mean_fmg_Extensor,rms_fmg_Extensor,std_fmg_Extensor,median_fmg_Extensor,wl_fmg_Extensor,ssc_fmg_Extensor,rms_Extensor,mav_Extensor,sd_Extensor,iqr_Extensor,wl_Extensor,ssc_Extensor,iemg_Extensor,kurt_Extensor,log_Extensor,mnf_Extensor,pkf_Extensor,mnpsd_Extensor,mean_fmg_Flexor,rms_fmg_Flexor,std_fmg_Flexor,median_fmg_Flexor,wl_fmg_Flexor,ssc_fmg_Flexor,rms_Flexor,mav_Flexor,sd_Flexor,iqr_Flexor,wl_Flexor,ssc_Flexor,iemg_Flexor,kurt_Flexor,log_Flexor,mnf_Flexor,pkf_Flexor,mnpsd_Flexor,labels
129.738145195132,158.897270037953,91.7599554367108,113,2117,476,53.1439528969448,37.2735329736781,53.1551037019406,50.9944956728024,70422.6997951144,820,88822.8290762749,4.32349311203528,3.37679194076952,0.781471255071801,93.75,6.66685590644343,224.122549019608,280.523888395952,168.743493704107,253.5,2414,407,11.4500162645271,6.77602292159203,11.4523503363249,6.83807351263179,14101.9547883419,866,16587.7041120573,14.8182025542963,1.48032421732418,0.826146976687952,90.8203125,0.287036838747403,ok
292.491084017583,374.043117006288,233.156016172719,323,7598,1765,6.08311939037652,4.61855161202618,6.08337166918685,7.15278221321618,34564.5749228843,3314,55685.8767861996,4.30922565455789,1.59183538136586,0.59607947909476,50.048828125,0.0722863907050035,212.770541245517,304.362375694675,217.644236545057,142,7996,1608,4.18554373022719,2.5452987190068,4.18571429984352,2.77242285151103,22139.2974346768,3299,31225.7246847755,14.8435363488152,1.10350497152386,0.7314062373952,50.048828125,0.0301782434668839,ok
3.17376133984648,16.3961767708398,16.0916919954182,0,300,7,89.609984885215,70.3675851301463,89.641165109828,117.994737045819,108954.782458983,706,100836.7494915,3.31291211625506,5.21818167792534,1.12039282713771,123.046875,16.9452771687747,113.134262655906,126.204221413421,55.9503426647064,134,1126,299,14.6059141808959,10.8938496245811,14.6112740739556,16.9717575281065,10493.764731533,499,14848.317038304,4.72965488191005,2.2814183973299,0.637920127793222,66.40625,0.445269308012118,open
451.918683446273,473.917925792243,142.750016582468,536,1744,316,6.23691435513676,4.62172201630531,6.23842243365066,7.02903369738602,6660.19840410125,661,9548.47768568676,4.88422844625651,1.55039386325202,0.664049405704171,50.78125,0.0873428531117596,320.739450441609,360.231328331779,164.03053681988,394,2628,464,8.37849668138408,5.22631972749537,8.38055259489247,6.25490465455762,7658.45417434582,636,10651.2396046356,12.0044654751415,1.52424884571716,0.670349391656503,44.921875,0.150079835385826,ok
415.428660826033,441.445406515536,149.355395093098,485,2258,380,11.6794529901002,8.82789770316263,11.6831087147977,13.647611235383,10027.5987770237,555,14106.9805296539,4.27568718428846,2.09691671586429,0.668728586919523,50.78125,0.319878433535507,131.938836104513,148.544152365215,68.2662150272926,150,1038,226,12.0741914863383,7.67583331532687,12.0777780394597,9.82830362434039,10109.8081302061,553,12926.1033030105,11.5764790344479,1.75908033306348,0.73464849191981,95.703125,0.32615050947317,point
287.570893776322,296.324700337229,71.5101532483303,317,1828,361,18.8011672776626,14.3842983190836,18.8055670155073,23.1092639370916,16694.3304451176,564,30739.2455078817,3.92086063945277,2.60066740078471,0.490780730486589,58.59375,0.720341210073956,273.561334641806,285.962795331899,83.3206033472817,287,2195,530,10.4282492321436,6.68670606956382,10.4308084703818,8.91262957245917,9834.5423596941,664,13627.5069697711,11.4366734999038,1.75456955541229,0.701571218682951,76.171875,0.232334414148317,point
379.609160305343,395.552634958865,111.191237626854,397,2367,434,80.0321976283116,57.2323468248991,80.0473877496177,81.3248853834171,151191.655443208,1207,149948.748681236,4.58644093514016,4.33645259577121,1.01031897971023,125,12.4910036989227,47.513325608343,72.1637445362453,54.3252227443524,0,1884,413,9.18686985205404,6.58907369605928,9.18864087245393,9.54615940934587,14970.3341132957,918,17059.1117990975,4.9807317608901,1.72149294690967,0.859679231163142,65.4296875,0.189506880301031,open
273.542217700916,281.772131481005,67.6203742273867,259,1765,372,13.6929114901015,10.0506201657306,13.6963890728529,15.7743081046978,10923.1610159261,522,19759.5192458263,7.48921302650357,2.19500119822104,0.500802922634854,50.78125,0.391895886375799,247.306587419515,282.960523309104,137.533553384022,285,2128,366,10.4085476498226,6.57628240399114,10.4111258502772,7.84908965025305,9196.28893025583,630,13277.5141736581,10.521755972359,1.66753143514645,0.680101149979604,58.59375,0.209809258612343,point
55.0693597560976,83.9640284840377,63.4065297540838,25,1914,229,69.3493394492638,51.0485721759043,69.3757809711483,73.6882095465134,66325.9880502256,581,66975.7266947864,4.37874997821687,4.36738094785951,0.997556913249747,107.421875,11.6641040974042,78.3967766692249,119.015619037281,89.5813692127568,0,678,92,10.2070597668478,7.52628350650341,10.2109787375992,10.9553321621767,8805.60295341505,536,9806.74740897395,4.29149584439192,1.90563323023095,0.88978830582955,89.84375,0.245325360991663,open
192.806901128069,205.513631390861,71.1667925092966,211,1450,245,23.3592458270103,17.5331936586324,23.3669917583912,26.0380910411959,19352.5200860273,511,26422.522843559,3.77441654420918,2.75317455578057,0.728608748046675,82.03125,1.1771579973463,142.570787956438,177.455127368414,105.693183281909,208,1368,233,17.0300279489342,11.9228219372242,17.0354853885269,15.9567621609347,14569.864669805,516,18611.525044007,5.44153419430883,2.23312929268805,0.770054139341011,70.3125,0.651022048827472,close
304.971482889734,313.250822739172,71.560509093415,332,1496,414,31.0309830289479,23.4988574272121,31.0383563652057,37.297681922529,38144.6796979066,809,49441.5960268542,4.90025513033215,3.21243086816462,0.756288226958477,50.78125,2.08694117974603,199.106046065259,211.97102955461,72.7395262345149,204,2116,550,4.4542667154986,3.34613954490508,4.45533501336592,5.24049024859859,6161.2196090598,773,6973.35481158218,5.07086490363485,1.38065273915362,0.897936156318259,50.78125,0.0426980668955713,ok
473.050201961916,489.994660639562,127.779871322753,508,2351,375,16.7450490957462,12.9522622954141,16.7498817166974,21.063036336628,15793.2743431543,590,22446.2705579527,3.70156967099091,2.51334057266437,0.672472316666093,74.21875,0.587168685229036,34.7467811158798,50.9406189449218,37.2620336769595,15,810,191,3.37080214919918,2.51838368665051,3.3718359545323,3.79670650694186,3040.38245460833,496,4107.48379292698,4.65827603222341,1.20715096218023,0.759544564299822,50.78125,0.0240586107492509,pinch
371.421252371917,406.218177170385,164.549649015392,463,2006,350,15.8260509918389,11.9611634349072,15.8310289430872,18.7611814573554,15148.3635118977,579,18910.5993905883,4.32161249917254,2.3788585155185,0.799255973433724,87.890625,0.576921866934883,15.0634218289086,22.1500647568255,16.2454091323224,9.5,1436,288,13.8130133396547,9.40972721733528,13.8181094150089,12.573112192268,10729.4382083557,530,12759.5901067066,8.11930793261608,2.01131720354763,0.779753202193807,72.265625,0.500552039016185,ok
476.257252326218,482.887730721815,79.7688716659586,518,1444,341,26.9221261693158,20.6009811091704,26.9294953484228,31.9483610838923,25555.2216050354,616,37637.9924864543,3.75432620608875,3.04858150453155,0.657882922850998,78.125,1.53371025947889,97.9806763285024,114.008032412822,58.3047445360817,108,2222,512,5.78780423076226,4.36472092789484,5.78935663008554,6.64775113038288,5986.58200412946,611,8131.47508866808,4.257008828493,1.53233559632852,0.705768608761669,48.828125,0.0680250484863393,pinch
399.296052631579,422.459109456382,138.006349548951,459,1969,298,47.3561316826485,34.9511531601608,47.3702978379026,53.3281758555292,50645.3054683329,659,58438.3280837889,4.03879735743227,3.5848053595656,0.863936812355277,113.28125,5.3691962567594,29.5437158469945,73.8218021315204,67.6707447117891,0,1748,222,28.6971076775063,19.8599822551796,28.7049515736513,27.2814420975722,24791.3111659616,575,36343.7675269786,5.35359356374675,2.61516473532437,0.626983894538798,46.875,1.76644650052788,pinch
392.490959666203,409.12991170851,115.517607974656,424,1628,427,6.27537435929841,4.37501145597554,6.27682790695927,6.22671273543258,5829.18004576319,571,9436.89971053923,9.02738620963256,1.50619554439015,0.643785644327274,50.78125,0.0849644118305906,258.111476758536,289.823589941732,131.845855236814,283,1976,469,3.08581952189416,2.15917113506932,3.08645004969504,2.98065009249996,4451.38616693203,763,5248.94502935351,6.98928381002257,1.10412175298314,0.893245688901696,80.078125,0.0187469018661295,close
4.46607142857143,14.9150970177072,14.2349900273543,0,186,19,18.7938417448373,11.9067996670481,18.7994316936061,13.7555725885591,9264.83168992064,424,20003.4234406408,8.47136004975234,2.20315864240965,0.404595089531591,39.0625,0.905825755232605,94.3056008700381,152.897741686149,120.382945038322,0,1303,93,4.66067029835822,2.85537604429596,4.6619375927602,3.18622796242911,3765.1875399548,494,5251.03654546027,9.85167889340099,1.17140335553024,0.754333413111125,52.734375,0.0474760385764963,pinch
329.372881355932,350.528974599673,119.974270520854,379,1926,288,33.3856944744158,24.9205169508087,33.3970171207776,38.1058538167413,32649.7779994958,597,36757.7625024428,3.82781063766971,3.16398618786487,0.888894180509495,121.09375,2.50663703802413,95.4749009247028,125.179852118806,80.9868558290506,102,1774,281,19.68443636957,14.5000736256544,19.6909389736199,21.1259508302773,16946.8941967841,540,21953.1114692407,4.03241889217965,2.50313562531116,0.729614312507174,52.734375,0.851050951759391,pinch
86.6465349740933,192.369603318945,171.765011960353,0,2988,124,13.8609757184896,9.04143722070513,13.8620980068579,11.7961763566493,31424.8940119569,1553,55839.9162750749,9.62574434504393,2.02265152516762,0.58633546700166,35.64453125,0.330637096380097,90.6633552315334,134.344791462528,99.1476379955004,56,6386,940,10.0841164466192,3.87538713506254,10.0849243875439,2.65846958081549,12496.3523014351,1362,24186.2911099253,47.4149672308477,1.11666410568312,0.484165542619234,42.96875,0.155280334539442,point
175.511422637591,190.869920583608,75.0332610184707,162,2002,309,23.689963526849,16.8242104903839,23.6961156574653,24.7602487931373,24696.9803869341,686,32403.4294044793,6.80319879240876,2.70672535080185,0.729616744845856,91.796875,1.21154053877108,109.724935732648,132.689329253284,74.6308261114581,101,2058,406,17.1131037483658,12.2975525371526,17.1174945773359,18.0742906477462,18175.4483503882,695,23918.7396847618,5.76838216002431,2.39028800767425,0.728012159319546,72.265625,0.631597865150489,close
264.682020260914,362.633711219047,247.89335465263,196,6473,1323,7.2080749207219,4.76436909268756,7.20833759932841,6.06681279885878,38346.1543066229,3527,65371.908320766,9.76664241327702,1.53440140095416,0.598589651834714,50.048828125,0.0882627033882839,186.368424753868,279.310621993451,208.048738795784,0,7832,1662,6.47288037532725,4.16439715157,6.47310797901911,5.06641193153973,44653.2227507218,4246,59217.7274953255,13.2058578613566,1.3886893889183,0.735833062468407,50.048828125,0.0688312838948742,close
378.244759556104,388.531394183711,88.8392480084651,397,1741,402,7.64858555273364,5.91589851340458,7.65094340771606,9.4297209318485,8163.21978307666,634,9595.58738874223,3.5991885265238,1.77936005954947,0.825183133116674,99.609375,0.121669984167614,0,0,0,0,0,0,8.29608726627388,6.17192968021981,8.29849510334672,9.31433616733294,8640.79721218018,613,10615.7190499781,4.8166655837327,1.78059976153451,0.788579152367409,85.9375,0.130996635674947,pinch
172.879610504574,283.41665857987,224.616405847832,0,1258,179,31.3432996400053,21.8779722808459,31.3479173686927,28.643821227667,60285.1421759205,1208,74144.4480597867,6.18519197281269,2.97164538585511,0.799433087710349,75.1953125,1.9835417659671,123.569435431538,205.76048540079,164.550166908671,0,1672,275,12.0270598164827,7.60529141387256,12.0290114231064,8.3655107735831,16453.7734175427,954,23439.5081375552,8.68283377547549,1.76632709034084,0.699519085762891,83.0078125,0.256587047858577,close
289.471852610031,300.942961347006,82.3105341788375,310,1456,205,19.4280909337155,15.1087721302652,19.4313923173644,24.5142532831121,26429.2586448478,808,44283.8111138074,3.59018937302255,2.69939543832717,0.568385022986436,40.0390625,0.765903963636777,133.066398390342,138.052780077729,36.7744097626469,143,1753,349,6.56995939241233,4.45700624777907,6.57106086076464,6.21023548795903,7639.00632060128,727,13290.7926308772,9.57881329951258,1.48308925899897,0.549993402310673,47.8515625,0.0707921971526546,point
120.897580645161,128.555313186142,43.7239671676355,128,1383,276,25.8287726725502,18.4624597201018,25.8391713720866,27.0255684577251,15882.727185161,418,22893.4500529262,6.30216129996663,2.8149517286781,0.641718014725771,80.078125,1.66317194859931,203.203150912106,236.363099754114,120.781168423166,209.5,1554,272,45.7848759326168,29.1814822659687,45.8038694934288,36.9317994504266,24045.571184095,412,35192.8676127582,11.378941606967,3.15720426368408,0.666498608060591,76.171875,4.73822554168267,open
248.648674242424,261.370510120415,80.5695597802735,275,1706,460,17.8835756868089,13.6366331940155,17.8878064511683,21.5090293421406,21288.9589018513,759,28800.5693057608,4.10136752575216,2.56600664666819,0.711975567213567,91.796875,0.719667249362482,153.783956692913,170.762075753804,74.2488667799943,159,1768,427,3.28847198787171,2.38421415718446,3.28928142490499,3.41593929271139,4090.39219572268,675,4844.72316739883,5.17386216847954,1.16640146308671,0.872421876213256,80.078125,0.0251567468204742,ok
338.625674217907,440.950848151398,282.588832549709,474,1602,59,44.3559024173454,29.3705031591049,44.3798285222909,35.7264060741557,20069.3730082772,324,27226.4564284903,7.21808061063841,3.311219074543,0.691825679805998,89.84375,4.26197536098062,251.937052932761,298.380363297783,159.984934956635,317,1249,136,41.1681879302384,27.4407360036306,41.1976537910951,30.4619872919269,15107.6021822968,256,19181.0744665378,5.49084160047106,2.8511197129266,0.737736761764035,109.375,4.28132692701865,close
405.806428400096,436.169491846523,159.909667989272,494,2781,803,10.0097278985758,7.4544340720861,10.010925225201,10.9701134856227,20729.1411281517,1254,31077.535646527,4.1030069142312,1.90796793887112,0.645777066435547,49.8046875,0.198870622064756,254.106971428571,295.991220719225,151.808159882157,351,2248,601,3.96364199263063,2.84212723833067,3.96409411748889,4.04936074504572,10810.1326894381,1470,12434.3066676967,6.11918946055963,1.23422580382853,0.914518945231666,49.8046875,0.0289107679442241,close
70.7119370979271,77.5338336071689,31.812587266989,80,2412,499,22.853811913231,16.576802456445,22.8619663066686,23.7173103714083,15446.9512732938,459,23190.9466365665,5.00537491669527,2.70805850192537,0.62550828460884,66.40625,1.19100984540136,117.634560906516,151.985191987803,96.2713484140669,120,1144,223,30.1313115609078,20.3122129678775,30.1419846186536,27.7596764887307,19574.1678705107,424,28680.844710643,6.83649813023267,2.7559385648924,0.705171196211029,101.5625,2.06612045247405,open
291.989690721649,346.669445534725,186.927091213324,339,2328,181,35.3286096221903,23.726775934764,35.3386844293819,33.3039756632073,27585.7754735095,563,41426.9507820979,12.1891038953873,3.12315562388958,0.690853435655768,50.78125,2.76601144359862,23.4265842349304,57.4855535914512,52.5090899752377,0,804,84,36.8482319207673,19.6217741811399,36.8577271728311,19.6024431949999,28941.9802040395,615,38085.8636855925,37.6235630152681,2.33723716453229,0.771229542529738,91.796875,3.41956453398667,open
282.488527325824,311.654060190475,131.665171622591,330,2256,416,34.5595157997647,25.833756671313,34.5667269494379,38.8455069599128,51875.906608281,884,61923.5147411373,4.66987471958909,3.31905754619219,0.822126185078406,112.3046875,2.3075177720344,47.3877725523728,76.7952809580527,60.4439920262386,17,1572,361,15.7234229969388,11.6631146441955,15.726784927821,18.0159775672665,25488.5015997231,954,27280.0251527733,4.95429703109686,2.32921129320492,0.952011541814445,88.8671875,0.47481898181541,ok
187.690555291884,239.533223507178,148.858783539538,255,1696,107,29.2542416322333,20.8094869718725,29.2611735066685,29.1288508427474,27929.4664801196,645,43845.5890497353,7.03099677326511,2.98908980133859,0.616729784833758,50.78125,1.70461445277172,188.606333072713,252.528829278734,167.956806021238,257,2002,169,9.92464344671977,6.49563808439151,9.92658355020526,7.11314905943336,10184.6232805139,680,16615.8422198735,8.02032247438944,1.68494362298695,0.613574677683383,44.921875,0.188048837992324,pinch
455.775367931836,481.315670421542,154.734810467705,511,2439,463,8.62673763467069,6.45784591154347,8.62840063934828,10.1047583913588,13348.1378450926,955,16674.1581436052,5.0491133747628,1.83784390229687,0.76558514691467,49.8046875,0.151655315919955,192.601805869074,204.76164307321,69.5273850266455,211,1483,427,5.5388284056628,3.87584177434238,5.54007863863229,5.45649824637671,7453.57168802481,819,8584.98953016837,6.71307039766086,1.40981574897026,0.84611293735459,70.3125,0.060982429063047,point
314.436527847466,415.11826702116,271.033187364684,170,7842,1571,12.8207666674733,7.98452978098073,12.8213025665595,8.3070925956674,64330.0146405854,3586,95479.0071209675,8.59471689696081,1.80098243352352,0.667591792587787,50.048828125,0.231024128622649,254.374065439344,385.572585784146,289.770260768505,0,5420,680,11.002511609885,6.77493948793269,11.0029536193114,7.91251459681306,64187.0672635878,3966,84273.4722903947,17.0786684145087,1.63400671436095,0.732920522506645,99.365234375,0.205216077814825,close
382.738581146744,456.695740102952,249.223511054147,551,2803,395,17.3771673997303,12.9010374155467,17.3813893793368,19.2973909633454,19066.4082838773,712,26550.3350011952,4.65698161992855,2.45339137221828,0.709627713590059,76.171875,0.606121679172415,105.954412624196,128.881562074119,73.398011526297,113,1106,213,7.24960156133924,5.0319425881225,7.25171839565906,6.92209905692096,5949.98098182029,512,8609.6537682776,9.78682789172267,1.60359077523025,0.700592998961884,50.78125,0.114724846857912,pinch
113.435311463325,159.625009795783,112.326419508513,141,1714,225,23.3751981586118,13.9810620563181,23.379506177719,11.4822960852088,27857.2261049281,830,37930.6213587911,11.6244079184265,2.14834751943048,0.729190963007275,97.65625,0.985061865172053,62.9840031213422,107.468359542566,87.094335299534,0,2370,329,16.8468603745369,9.34233589435651,16.8501478812724,6.3103112668249,19335.7211933873,777,23944.4068972357,12.1762429470768,1.50932672952884,0.812637836768499,83.984375,0.614500259776855,close
254.831001076426,262.77304216755,64.1330357607958,266,1168,299,14.11107622571,11.0734480013964,14.1148696880475,18.3315086850836,15306.3226198031,658,20574.4663865944,3.50342559560662,2.36021529984045,0.734391926911406,76.171875,0.399827265204967,84.8400724200362,93.6768415013834,39.7299049804201,98,1212,375,1.65984030065589,1.14410391497556,1.66034096166782,1.49272612737825,1530.99384458109,488,1895.7801871145,5.68790464608042,0.803389534085959,0.852536053436513,72.265625,0.00505983864537716,ok
23.9530900967982,57.323636097149,52.0986543006391,0,966,103,83.9932968095768,61.611565806545,84.0245775216564,86.973264228797,79057.8836783752,576,82744.3328781899,4.3683767474592,4.77031464349963,0.983234502585792,134.765625,15.4371872907417,41.7383399209486,63.3984887788868,47.7397214607851,25,600,142,9.0232214189611,6.58172388756256,9.02678887071255,9.33999491413458,7515.53303397905,520,8325.88071776664,4.90630426507721,1.80399227942556,0.884649313823633,76.171875,0.194130459815368,open
320.492230854606,348.558038836134,137.068824011711,302,2032,354,37.5112338825194,28.5969022300931,37.5216254406474,43.5936057796382,40432.4523248585,670,51531.6178186278,3.96079633368214,3.50037406054682,0.755770732563698,50.78125,3.00004108990551,184.801818181818,196.496697481693,66.7977868390049,206,2090,425,22.8818307624494,17.5713289390912,22.8887654658393,27.5291058130416,25962.1299997175,707,28992.6927495004,3.51668980107724,2.81426174590908,0.888414637558194,101.5625,1.10352364738613,ok
317.296849087894,360.753841890723,171.704227054891,415,1980,295,28.3348750214396,19.7224431401438,28.3427079158381,25.025932247092,31674.7818200147,700,35677.8996405202,5.20586836402553,2.74247760133822,0.906439203784488,148.4375,1.70572694664651,38.9764549089294,82.7191810003906,72.9771524431831,1,2392,208,14.8018504636868,9.40521072832515,14.8051334817305,9.2118487004256,14706.2687477651,633,21171.1293494599,5.5711950042904,1.68072625890876,0.661322283133087,60.546875,0.450759847252428,pinch
100.766041461007,106.810919651326,35.4315832023276,110,2941,653,24.9341795770763,18.3953341763005,24.9403109155391,27.6678200670829,25492.7210039961,708,37268.9470411847,5.34689177764165,2.85867554404692,0.627729948617888,91.796875,1.17954966252217,149.459701492537,189.023142124732,115.750644341257,185,1730,318,31.904496441926,23.0061326363312,31.9124317783974,33.867102508146,30667.8928150136,620,46242.3265990257,6.50030726215568,3.10429776540128,0.661289236740153,91.796875,1.89649248775629,open
378.268847795164,382.115963149283,54.0987595887541,390,1734,390,17.4372050944781,13.4271105540914,17.4413324385185,21.3189295824585,14962.1642902221,539,28317.7761585788,3.61639484665766,2.54176484056157,0.485283305586001,66.40625,0.619690297709731,434.882710280374,449.091306308494,112.097732437857,480,2274,457,14.5519808666003,10.5069215420573,14.5553808495587,15.8870040755628,16206.4588383515,727,22484.8121000027,7.18593218846268,2.22119294430975,0.703021734145254,82.03125,0.434171969275227,point
224.490204251772,226.387878311618,29.2570751606472,217,1548,394,17.5327856303701,13.4040623064281,17.5364091399494,21.7008615858967,18164.7296467647,638,32156.3454731211,4.1730600718507,2.53932874506812,0.520208724880434,69.3359375,0.603829076567859,260.227272727273,273.01814006169,82.6050688674577,283,1924,556,8.6612737591956,5.91924838426409,8.66313137852958,8.1003128408364,9578.05587594622,760,13803.6872321038,9.95130248211721,1.7106411839635,0.637773517476448,48.828125,0.143220314446101,point
258.503211991435,267.206214960183,67.664752564949,277,1057,277,16.6595192221153,13.1066657287817,16.665460517633,21.8218374239666,14227.507669732,529,18362.4386860232,3.29685331202416,2.5352993158701,0.749388607330685,89.84375,0.591732373678667,102.210608424337,112.193837167128,46.283037323536,124,1027,273,2.4580586131151,1.76137151123128,2.45901742498222,2.48546804259942,1893.6278072738,408,2258.0782773985,5.49998994947212,1.00417402692501,0.866096248129208,83.984375,0.0107965117731449,ok
386.890764647468,403.48882804792,114.59411467177,420,1578,234,59.4208271956929,43.4992829074473,59.4503506940941,62.3663090305931,40351.9869748103,448,43803.7778877994,4.992839190413,4.17010174476864,0.92155986323435,121.09375,7.82070470455795,56.3590504451039,81.1069740915712,58.3555224014062,38,696,129,11.6613040221781,8.43761492180059,11.6670745291291,12.1334279672068,6861.6091145094,364,8530.4286859404,4.95473176742275,1.9662045375443,0.803921603299372,62.5,0.299995050890501,open
73.9799839871898,126.776667643408,102.973444324072,3,1230,225,71.7324024609303,54.8194784955969,71.7467529941577,87.6786612355481,119805.577248481,1016,136939.057282001,3.5218000505681,4.56679665237665,0.856550291663065,136.71875,11.7093567015841,0.00694176629386811,0.0833172628803185,0.0830435893616751,0,36,18,21.7533333937919,16.485317040437,21.7575217102892,25.9647719184593,36573.3753375008,971,42746.4270858531,4.06732624593697,2.7185074025415,0.863701688177678,90.8203125,0.926773065159257,point
132.956043956044,158.452264839315,86.2242218671964,130,1716,382,34.1233607217467,24.525747675707,34.1343946096447,34.8593523793529,32344.8804478912,558,37941.3316543187,4.94686092746869,3.1219321717127,0.831368211794525,138.671875,2.59402452117357,136.851600985222,162.131869867096,86.9657379573017,159,1294,298,5.29625979449885,3.52759825714573,5.29789116119387,4.42531946905121,4940.62688256431,532,5728.81956960466,6.45543382595321,1.19010869373708,0.867717203976888,56.640625,0.062687853428201,ok
442.713395638629,481.761038087675,190.094901611556,522,1927,246,28.991532348527,21.8826176880498,29.0065724532216,34.1466110125524,15093.5662522601,325,21072.960833592,4.33068968111767,3.09688941478621,0.687134480848532,85.9375,1.80643659787081,152.984186046512,185.145082017722,104.329600235283,209,1136,182,28.6276049323436,19.4433030190135,28.6409000742798,23.1921221891284,16785.6341206538,367,20901.5507454395,5.32322411426454,2.6342252596856,0.781763538454697,74.21875,1.80935628145979,close
258.503615702479,276.295361071421,97.5701006185992,243,1972,385,14.7855921567902,11.1178726594299,14.7894007389551,17.1343930546934,12104.2231345587,522,21524.2014686564,4.30386615578931,2.33663640042509,0.527810041160636,41.015625,0.459169156028984,275.703605514316,301.854145637591,122.928676816316,262,2053,381,15.2905112978334,8.89159069725644,15.294564948992,11.1053573316709,11443.9887641938,612,16769.5400550256,27.8686075613757,1.93121453439619,0.632454040241091,54.6875,0.583286945209864,point
60.0280189423836,71.4953953402174,38.843582847197,63,1784,442,64.4959388429224,46.6410903443521,64.5086665937157,69.6894919696252,127839.048516089,1186,118188.522932588,4.85059338322213,4.09053584756473,1.1266071215059,146.484375,9.34620754792664,0,0,0,0,0,0,5.46047122964687,3.77622948039626,5.46154180532329,4.85589251368745,7847.59382280195,878,9633.16140449087,5.90454300935106,1.36273234565197,0.79700564257626,70.3125,0.0544900043052941,open
144.30063473745,241.579576669511,193.803229847016,0,1434,67,18.5553367917448,13.0622645357153,18.5606543268545,18.0685728482187,12563.8306082813,447,22636.9044403946,6.33889138886556,2.40104980770434,0.536996257643549,56.640625,0.822813738094256,144.505403687222,164.155340584275,77.903930545549,112,1310,141,10.7871221391246,5.53543269586054,10.7905515135988,3.62908956253497,4920.85429178042,359,8707.23563058863,12.1801068282183,1.35061924028157,0.617106712028213,44.921875,0.277972043134915,point
374.90662202381,398.32080340549,134.577951370979,433,2146,522,20.7245590652426,15.2300712066962,20.7284151141487,22.5653761578294,31100.997840184,978,40938.4314035995,5.92871629091268,2.61043669069801,0.76244650036864,65.4296875,0.925364413304761,221.931954887218,247.111437982856,108.695500380058,250,3182,731,4.15545427092447,2.88326334047697,4.15623558278571,3.87617313966567,6901.21732808705,933,7669.48048566875,6.99865004931922,1.23356279535269,0.902936703305658,78.125,0.0368070231582658,ok
86.8209618752526,203.785577918261,184.378041172487,0,5503,472,25.689693891954,17.1885472438128,25.6914223288454,20.4030019700122,67820.625735774,1786,127590.586190822,6.52737229505836,2.64201158115292,0.52131125328953,49.8046875,1.14190779137661,239.51434060656,373.995299085649,287.257181291604,0,4252,330,36.4334319421136,15.4117094840417,36.4359320891285,5.47264532910147,66099.5748706013,1844,112305.127010212,25.4337125157905,1.72962010049067,0.516440504031207,39.0625,2.22245582148976,point
345.87750385208,380.334520465375,158.247884179937,415,1914,320,10.1301290633034,7.21507542353055,10.1340328761409,10.786712629131,8092.39225993957,504,9365.16789974266,6.62322983941489,1.89556096721786,0.83874869901928,95.703125,0.229264248837772,173.725099601594,191.026556840474,79.4797272664608,201,742,158,9.3398912797503,6.31103764161193,9.3445433434857,8.61168075342636,5163.58235022701,365,6336.28179217837,9.74775130432487,1.71052751446322,0.800468456321203,97.65625,0.215486221046304,point
156.314242270654,178.754373942991,86.7340575509158,189,1602,315,18.4655280698095,13.4171114501277,18.470205601881,19.2180940245547,19510.4957732315,649,26471.9608911019,4.20571068311772,2.35639637979368,0.719199532834228,70.3125,0.702388489584135,1.46732673267327,5.04798754136951,4.83121985342143,0,160,40,13.2493556404558,9.08448213065202,13.2526363852403,12.6046168256694,13965.6393934734,684,18350.6539039171,6.20476298567382,1.9055911937892,0.744299524011506,66.40625,0.333912181882121,close
389.561622464899,434.487344729521,192.483493076189,474,1922,238,48.970388033145,31.6276021533215,48.989497756825,38.6130024497299,34953.3216948971,500,40546.5859605581,10.0311077970099,3.43523616385206,0.840742447376459,83.984375,5.29714974066652,72.0393442622951,111.866833890077,85.6185145516092,14,724,127,10.0968023854819,6.57215895199487,10.1009415925811,8.31727844186775,6638.18077900625,477,8018.03392143374,9.6041524839355,1.70275559381966,0.812328606682574,89.84375,0.253189980305016,open
418.045544554455,448.289191270435,161.907686552507,496,1396,282,35.3178875349721,26.4874545154732,35.3266290795841,39.5022987738921,41722.7322016012,773,53504.6581212559,3.7071879237298,3.26629112197009,0.771160758704208,64.453125,2.66965068310648,0.702160493827161,5.15994186013757,5.11325922783075,0,118,10,10.7650139129055,7.74642451906291,10.7677775167295,11.3898434221832,11583.8489640036,633,15059.0492650583,4.48703233510144,1.84945138494518,0.758758984126783,87.890625,0.246755089900899,pinch
155.2699669967,172.708843301249,75.6528895580318,146,1880,272,28.3446699997758,21.9090046504483,28.3540251517306,34.2613713624462,25973.2163770131,561,33192.1420454292,3.31631335722262,3.11723334859866,0.772450777790993,83.984375,1.79055569078466,170.077551020408,197.897193814687,101.212126716154,226,1816,316,16.7134833716554,12.6420789445644,16.7191683203584,19.1059228160403,13840.2204110373,513,18583.8560485097,4.02454043716265,2.45533348916204,0.724925826651115,107.421875,0.62846439455817,close
379.607429295061,398.826622163343,122.340476159546,425,1848,482,21.8311414275546,16.822932554439,21.8356583659002,27.3511433257461,29501.5014339703,811,39853.5272214659,3.79691651609123,2.80326428448971,0.718001111182009,75.1953125,0.922010778346658,119.62230057294,137.124208218339,67.0487506955745,124,1550,344,21.8668396230442,13.9902228085504,21.8716567698832,18.4436045348936,25034.6731775855,828,31743.8155526009,14.0365845063806,2.38607562252669,0.748001838310212,103.515625,0.89947454624783,point
366.350062735257,379.047381193249,97.3164429047422,400,1582,343,20.1371464556849,14.7520668410152,20.1434594903118,20.8943206246668,12738.4646715374,383,23514.7945445783,4.61942923631467,2.55434328193197,0.493242746099245,68.359375,0.8702439334829,464.412656558998,487.4325523377,148.073734745565,534,1621,233,14.2867720590024,9.78179986198255,14.2914832115951,12.6812915155238,11151.201918383,497,14838.9903906275,6.09944829102597,2.01138164312713,0.721668137437036,87.890625,0.469684902179555,point
226.449275362319,261.159018223361,130.14483528069,225,1681,322,35.2496321464914,26.5598467627636,35.2630711643644,39.868308344706,28342.294834342,517,34819.9591059831,3.6684258553684,3.30622292470955,0.787535627500336,93.75,3.06820537512161,242.76330420969,260.714380281914,95.1059966975451,268,1709,358,8.0767682005975,5.50544603133224,8.07997758344337,7.04258986858123,6192.04157268484,476,6931.3565534473,6.15896364824624,1.53909040572869,0.917218890030877,66.40625,0.143039622141664,ok
462.460057061341,473.826952316769,103.200159158049,494,1290,289,30.7681065160973,24.1598675873534,30.7790324715378,40.0759539884966,28160.7792725318,569,33872.1343574694,3.37240723504589,3.28231653188559,0.8024769508319,103.515625,2.07267727804516,196.235659986178,214.275051072434,86.0841712315023,212,1462,386,19.884026510622,15.3705053885026,19.8908873506387,25.3502977592345,19226.5509285131,597,22241.1212971632,3.76685913663766,2.69680815360125,0.864162014519014,136.71875,0.886425106202925,ok
455.81718061674,458.864032628979,52.8056225821562,480,1157,339,19.3706333480995,14.950443197145,19.3758104250764,24.1072158486802,19388.5179000298,641,27150.0048460152,3.60232582704091,2.64889754060811,0.676560609919322,54.6875,0.737698687216006,0,0,0,0,0,0,4.70198782965172,3.67432160047987,4.70315619156261,6.03150802213565,5309.2275716054,635,7297.20269855302,3.44431681149114,1.46659110623268,0.726413983660711,66.40625,0.044047878411612,pinch
396.424267782427,446.242436500487,204.976270016502,502,2004,254,15.2984447458086,11.0995196886194,15.3048493286444,15.9933941576091,8620.85651281127,349,13263.9260279001,4.79319457945782,2.236003248195,0.631691205939672,66.40625,0.572929038857906,25.3130890052356,39.6050660464606,30.475913890319,0,373,92,2.50724593450925,1.81970065859762,2.50855966048946,2.4928921599829,1294.94719734384,265,1737.81412896073,4.86330771203972,1.03262763961524,0.788573703004092,50.78125,0.0119461097807534,pinch
160.353806890685,266.32199643434,212.645030734875,0,6942,538,15.3189865746741,10.7535865830944,15.3196381937077,15.4370961537882,69343.3532526032,2925,126408.410284275,8.68597588844071,2.2674620023428,0.555609874952012,50.048828125,0.434241151118951,215.869647954329,352.803535252463,279.065164060905,0,5022,244,23.2348957639527,9.69834985895628,23.2359007069065,3.90923898302862,69430.6875342639,3176,112122.622719394,47.7979273846923,1.44604617031667,0.580991115326885,66.40625,0.821170632095111,ok
304.930018879799,363.113059731074,197.164070206453,409,6098,1784,6.63988459509828,4.78601997476777,6.64030218093261,6.68800886869613,23392.6896008118,2136,38024.9286995299,5.28818794391405,1.57624861095993,0.609914688742495,49.8046875,0.078313427053451,204.427972697881,276.191331396802,185.728258912724,275,4782,1099,4.25442449958553,2.85398327269937,4.25467917963358,3.59111722310875,19338.1455280787,2559,23833.6143103124,7.42218588725019,1.19153302107549,0.853542074815827,49.8046875,0.0376548891224376,close
138.800597014925,154.104269798566,66.9716206208274,166,1604,250,25.3304299181839,19.1377230809532,25.3379944469861,30.1378993451145,25421.4628856872,586,32055.6861605966,3.82963925936238,2.87496195599634,0.799790747057336,89.84375,1.3380387089924,2.8561872909699,9.01027531851808,8.54798131506989,0,388,75,18.3769884422205,12.9394940041171,18.382111313965,18.0349411455676,18123.8920360985,626,23213.4522433861,5.5615760086796,2.35101250257619,0.772938321899645,113.28125,0.718591160884795,close
205.601333333333,209.657145517787,41.0482553710684,207,1573,372,16.8111283358091,12.5064551019876,16.8148636992609,19.347641247625,15164.299260855,569,28139.5239794721,4.57843854691072,2.42130050793087,0.505467655756047,48.828125,0.517912855505857,176.707820954255,187.519664815647,62.7686919083177,176,2019,480,10.3267002655445,6.44855354800166,10.3292406978078,8.05367770641761,9702.84497973134,651,13109.9093630874,13.0915699403555,1.69074498890986,0.671325851619734,50.78125,0.227386309505749,point
270.686859688196,315.174120222309,161.47744342066,321,2020,361,30.883772945224,20.9163183577051,30.8906530484781,26.0339817268508,39534.7969250875,833,46957.134713048,5.14313028927344,2.60079477155925,0.837935151709051,91.796875,1.89526025779948,10.5651428571429,27.4339414386111,25.3251928674992,0,906,122,15.3766475743401,9.84929369468235,15.3810426895081,12.805224329057,14019.7740861863,650,17236.2639656941,14.0471864136372,1.99058485490252,0.790808802439449,87.890625,0.348852113044093,point
124.475099601594,131.825623533213,43.4260625519256,129,1487,300,15.4815413940778,12.0729083594425,15.4892382946255,19.251861699355,8746.22326802921,365,12121.1999928803,3.4940938590309,2.45527227454352,0.683323353363577,74.21875,0.552890309674279,92.8147138964578,107.301839834976,53.86788722619,111,846,255,13.7663169633736,9.15739047292846,13.7725698441093,11.8354091615636,9732.21194965512,438,10082.2869106942,8.21390976390469,1.9231418177697,1.00013003512978,85.9375,0.453907607327093,point
230.507335907336,248.406652215404,92.6042330490816,276.5,2182,483,97.7477341329729,72.4943886761568,97.7666069640534,108.852823402947,204188.103916238,1271,187760.466671246,4.30158672006465,5.0314542790435,1.12497986813904,119.140625,21.0804866344644,9.37770775896022,16.4805971587721,13.5551114854668,0,1500,301,9.18787984629578,6.81959582298451,9.18968833756954,10.4843917170628,14051.8695724931,940,17314.9537945577,3.96951251094243,1.7860071489537,0.776153556812023,70.3125,0.174415198369298,open
176.658718330849,199.243038461972,92.1727526217638,200,1806,318,62.2345702076328,43.7660986011331,62.2577396593905,59.6907221611437,55975.2681644893,590,58734.1043227206,6.24003843449897,4.05775125334015,0.9592358652274,177.734375,8.67299682213085,25.6375282592313,45.6308291586522,37.7619423748979,0,772,149,9.50925304023437,6.99414087513584,9.51283711657943,10.104665437121,7742.23083203732,527,9281.22494130526,4.38240907971915,1.86428591002224,0.808297417066641,50.78125,0.191841746671515,open
176.481900452489,185.778860659315,58.050235942105,180.5,2366,541,24.7519109498652,18.4264203280709,24.7589137440064,28.1143547360253,24456.4287138259,624,32577.9111400293,3.88530758008019,2.76603480918815,0.728294914186814,93.75,1.34465234566585,273.057395143488,326.210102395798,178.522486864673,367,2308,357,13.9682146536498,8.86988245345901,13.9720706071587,10.4862551860723,13679.6456274854,658,16072.2270056677,8.87923851316659,1.77268688778765,0.835952936891387,97.65625,0.428746641940486,point
2.83951406649616,14.7752774433989,14.504499225425,0,266,13,95.7001425995293,71.5114007435174,95.7307503897955,110.214764231154,116075.884695642,774,111843.830762861,4.06994994343226,5.02529235267392,1.07166570175453,173.828125,22.0102597215506,65.7309711286089,90.8916533622237,62.795856276019,50,1046,271,11.300834499186,8.45984944367329,11.3045404022476,13.1936410670584,10338.0926647104,546,12892.8105521581,3.69702316667268,2.00474171716072,0.74787506970771,48.828125,0.270160009725845,open
155.542913385827,183.482408133554,97.344372563633,116,2983,621,22.5584785338539,16.8269022560205,22.5629204068788,26.0695734738098,23768.0157362654,672,42740.331730292,5.51906164997912,2.77798873859397,0.509518486186601,49.8046875,0.949254721025764,167.999116607774,196.217921237692,101.401731201645,166,3938,744,7.49766347325793,4.60642976157135,7.49931739711507,6.13006995811832,7638.26260206267,666,10428.9569801975,23.030802113495,1.51819778156284,0.799521679945029,83.984375,0.11463258158335,point
255.30269266481,333.690696552429,214.971916818509,211,1537,179,41.1294456914855,24.346839290851,41.1485524692926,21.3127894452481,22563.5372072242,373,26221.5459162465,8.6066771563103,2.60521683622108,0.846570987730245,50.78125,4.20657335270428,25.5902394106814,55.2327487796255,48.9694220074108,0,428,39,13.2717574678954,7.64472180043527,13.2778720724321,5.5906168130545,6496.68174525107,351,8302.1678752727,8.48505561947761,1.41276526984063,0.77994538034853,97.65625,0.419048544735993,open
141.597872340426,151.237230865948,53.148338775181,160,1164,325,21.4326739771599,15.5664606138667,21.4402645024589,21.4843814314433,16298.7481291074,486,21948.7094655521,4.59822906845308,2.60809969816808,0.739712057362243,48.828125,1.10624615432416,13.7182280319535,23.2164830134732,18.7368688995833,0,516,161,3.26549863645141,2.08549070575478,3.26668255139414,2.43183664691487,2631.56067567158,435,2871.72070182433,9.16749648551483,0.972791504362948,0.937302883682672,148.4375,0.018233626222942,ok
167.998822143698,188.827574172742,86.2358867639569,163,1754,265,27.266944560621,20.9063517817962,27.2749711152883,32.9930406410444,27908.0263785713,623,35498.9853254899,3.77239376637764,3.06097560512113,0.774299377077667,78.125,1.64485102816567,168.157323688969,199.235556848466,106.886894264785,231,1978,390,19.0607587793026,13.7447374016367,19.0665058821822,20.2542162900575,16996.6147673097,597,22802.5193493153,6.81868512649692,2.42588377172141,0.721585362449436,85.9375,0.814092322103061,close
264.042056074766,275.865001523246,79.9141785312183,282,2222,504,38.1589495556897,28.8252182896085,38.1678452393497,44.8826255165311,49561.8880000869,814,61685.9671397623,4.02862649399985,3.49106184047525,0.771742287993028,78.125,3.22815015420878,108.682817406909,129.187303377578,69.8540886044021,116,3642,674,4.9888560681335,3.60519779008617,4.98997536171842,5.21036323942592,7390.10985284648,848,8035.98587410207,5.34037654731107,1.37520657888617,0.890357300943551,83.984375,0.0524334047257254,ok
145.627372052904,176.435802189981,99.6248688221403,124,2208,524,75.1046444737619,50.3809654503403,75.1154368174582,66.5502636861583,191908.209017054,1592,175224.997836284,5.73122969402538,3.44818756141487,1.15141754190164,206.0546875,10.7819897790103,0,0,0,0,0,0,12.6365729024883,8.54719009013616,12.6384657285336,11.4941194020794,19295.2981821737,972,28487.7845704238,6.46655235905859,1.73546452494977,0.649232078598773,60.546875,0.298332751914009,open
5.96341463414634,20.5597569420048,19.6811247496431,0,486,37,92.3724983223655,65.886293472958,92.3969948090719,94.0815041719157,124387.059376268,781,124261.549489999,4.3876363745707,4.57228355531159,0.993092087885506,132.8125,20.0566990885916,193.698271346255,227.658362498976,119.652870134367,251,2174,470,16.8568113138591,11.8907879466173,16.8612281378539,16.9941786989496,15545.6971806911,645,22699.5141900924,5.19370261014771,2.1590673966577,0.647387918014651,70.3125,0.609686819893286,open
236.885691499967,345.6562391475,251.725069093956,110.5,12793,2360,7.16565449511285,4.71784290850132,7.16577354959936,5.980339226241,83279.7913362642,7605,141978.764488439,9.26463389909557,1.52597332050394,0.593075201524549,50.048828125,0.0976190577203975,173.889965941839,272.793249660835,210.19011303657,0,15868,3256,6.30228711138466,4.083514842327,6.30239030823394,4.98640093387789,94803.211037407,9155,124694.209225297,12.4757397789761,1.37779028304686,0.75273054201876,50.048828125,0.0778083212915881,close
258.902130492676,271.790052962725,82.7289330154996,286,1430,368,23.3794822549433,17.8922126999914,23.387251830729,28.4774304327856,21688.0500964204,559,26874.1034753871,3.7661921192697,2.86713554321254,0.788141999876562,85.9375,1.19318032208394,124,142.917897848819,71.0867027564958,145,1634,245,16.2682751149926,11.6281331850961,16.2743845914478,18.1362132486813,12860.0415467978,545,15488.673402548,7.81959174319525,2.3196905901417,0.792446642747165,78.125,0.590184649159592,point
245.824550898204,260.164412548846,85.2065674303415,286,1846,462,23.4032749408559,17.9634110822725,23.410276475949,28.3019381284993,23862.5399673434,622,29998.8965073951,3.53849252858676,2.8437664943882,0.784488803990726,89.84375,1.32422126386565,63.2825567502987,77.765143623117,45.2101379715625,71,1432,232,11.5062258911073,7.49875156959844,11.5096641745586,9.11603428206091,9997.70940843421,604,12552.9101275078,9.26900604839723,1.74113119507644,0.730826436870681,58.59375,0.262536108021605,point
272.303827751196,361.861902999066,238.373341047311,392,2098,283,8.29956077998617,6.43517902581097,8.30153218552863,10.430405172604,8858.25166420715,636,13449.5241639449,3.80869638187822,1.86931004542791,0.664052161393709,50.78125,0.14105772683278,138.339846062759,177.280435670498,110.895089743068,189,990,183,10.1585558936761,6.22852707516867,10.1615642840213,5.92067730743887,8350.06016383414,583,10519.9822299599,7.85659293384391,1.45649865657245,0.75948001999026,99.609375,0.25544628269577,pinch
279.877624167947,299.035492553061,105.339560606539,323,2806,456,43.9195085893986,32.7854221334018,43.9307433218707,48.8619631199582,54395.1804372823,794,64029.9294265338,3.80829237503618,3.59758510816097,0.836370266506055,99.609375,4.07630096744622,18.9722357525572,70.1469197868103,67.5489982345714,0,912,55,22.1728312304476,15.5888710248286,22.1782332298366,22.6328148417007,22155.8048710686,728,32003.9522139731,5.42537482499866,2.41895857307451,0.629948588771836,60.546875,1.05099566353207,pinch
173.560076775432,221.951591616535,138.371813510511,197,2231,417,30.9849160075489,19.9187778098834,30.9908647669606,21.0192423911738,43242.3452714759,940,51888.4161947463,7.88258172484434,2.65426627824482,0.798484616409674,71.2890625,1.81062390574835,0.0644558617468473,0.515069500532043,0.511139962487612,0,26,8,14.3331884273219,7.91614479704996,14.3365369011217,8.54777613826813,13292.6385717115,720,16948.466010484,21.4745699771244,1.6666393756106,0.759200102993656,72.265625,0.280216970288901,point
147.279424216765,152.497173111318,39.5578248623813,152,2023,522,15.6551073332914,11.5498387742682,15.6584210730978,17.9119683810557,14332.0754540312,583,27280.7191848215,7.67796331376057,2.38524944239802,0.474900610066201,50.78125,0.460541621743243,57.5268408551069,81.3210113584493,57.4920838222958,59,3980,537,7.28670996855574,3.76248096258431,7.28844136509364,4.3272674333962,4983.1809964811,595,7920.02242623996,29.5679087342987,1.30847549639566,0.612223237932582,93.75,0.114918896497729,point
352.270612038442,379.566197427591,141.371932829623,412,1819,351,19.6289196310275,14.0592470515846,19.6338830459901,20.1823926417129,20248.4569531196,657,27795.1314209827,5.79969311394837,2.45431548397054,0.705029446969024,83.984375,0.925229309751121,156.614547253835,198.906799515796,122.650894602072,152,2438,520,4.3298641618007,2.75591119575381,4.33093577745149,3.47276973256577,5084.30472619744,674,5569.69652661846,10.0991986923177,1.16171991059962,0.964573040868801,95.703125,0.04405084146572,ok
404.221250840619,443.076940859241,181.475699950994,466,1840,471,9.19016241737246,6.87974768779609,9.19169719256783,10.5533819758277,13383.320288551,894,20460.3696235056,4.62665221262624,1.88119992904029,0.629409982492938,49.8046875,0.178808477719941,315.256770654782,349.496474082293,150.89320558606,348,2118,481,5.35553336483908,3.80745402624196,5.35645082512209,5.1932414318252,10724.9981224169,1074,11106.3433945478,4.75237615580991,1.33681862949864,1.02023157953127,96.6796875,0.0567269929871946,close
391.914668153932,392.644565935849,23.9367416914991,400,1059,346,39.4697120904898,30.3348239098327,39.4807199572604,48.3791170416831,47492.7111710856,741,54390.3392703301,3.88908860674567,3.59895711794716,0.847259135200502,173.828125,3.20064103795139,1.30296456977585,3.41639109694127,3.15930823791525,0,115,52,16.4967850725458,12.5117146551783,16.5026741959588,19.3384510539306,16913.5643342604,621,17303.7013681116,4.10393750030036,2.4487670281949,1.00569946721954,85.9375,0.568544570999713,ok
333.723065250379,348.895848862617,101.809102404621,360,1253,214,18.8462971178179,13.4393714012066,18.8534450135461,19.9404190846076,13933.1164029476,472,17713.0915067903,8.40740906700025,2.49958363427791,0.746717059453596,87.890625,0.799962126695309,265.02875399361,298.688584661397,137.80347504217,287,1536,272,24.0699118896031,13.9687222310111,24.0795301937844,15.8546669448928,14616.5063162036,513,17488.8402332259,14.4922855951432,2.20035922090383,0.757600990428296,72.265625,1.30319707060332,point
330.30319803198,354.138702752478,127.765635257855,381,1984,390,4.78738026861786,3.46270976838836,4.78885095130799,4.93618959454683,5017.96321870931,566,5630.36608339948,5.16340790429035,1.35427901753553,0.934465889478378,160.15625,0.0510432648104455,122.53813559322,138.105231923869,63.7174857284687,144,984,170,11.6685306467029,7.32937370900703,11.6720637729652,8.48888356658101,9425.42769407887,542,12108.1253672796,11.5372645821797,1.67903410417822,0.759234452851196,74.21875,0.354529096385387,point
303.419447092469,310.1348364468,64.2045227184976,325,1764,447,17.9536502335737,13.4147779776921,17.9579292571795,20.3528169452803,16210.1475299869,559,28144.204197198,5.05953335857752,2.51352745245549,0.532545607370484,62.5,0.631156942846985,340.788565264293,364.567219893572,129.54328657393,377,2160,416,11.9390468089607,7.40793110475113,11.9422676666076,8.96928606406119,9907.63246250588,587,13734.3042682086,15.1364412254132,1.78250162800346,0.696260049662597,80.078125,0.317597396998578,point
445.442782348542,467.90052017907,143.272388999897,512,1461,219,37.7852651409244,28.5487964056219,37.799376933715,43.8078728167498,32319.0822489504,549,38169.7407943165,3.80393364272015,3.41225840558562,0.846629097322055,97.65625,3.4401347339368,127.940095846645,148.864066797151,76.1345652652479,171,1468,312,16.2275358759239,12.0643417410332,16.2340187817633,18.0150141293367,14182.1633201403,531,15104.5558597736,4.578000843411,2.33849161246261,0.92217838368613,128.90625,0.581070192108019,ok
303.942929843693,350.718730801797,175.024166684578,408,2406,575,5.80066607616985,4.4031582625694,5.80171315428194,6.85829539141407,7128.51616648543,753,12113.0883803284,4.14461735710153,1.5652376889029,0.552996228347502,49.8046875,0.0547543852045907,238.534108527132,290.505998016772,165.848952799842,344,1760,405,4.25399184020989,3.01687433688756,4.2548154593226,4.15675193076462,6541.14044588056,790,7783.53578916991,5.50595574669821,1.25296636302473,0.891951644971148,95.703125,0.0425247229564576,close
266.498987854251,326.506668003905,188.735124749133,257.5,1934,192,76.4328456904967,49.6395423042893,76.4715167686618,51.6366853680732,42807.8703622349,368,49043.8677966378,6.62283368143652,3.95576813211357,0.8941425164524,113.28125,14.7678287350796,126.729122055675,181.33899129656,129.775155825525,96.5,892,124,17.6709089840813,11.3439815895077,17.6803762854828,12.1562051602139,8355.1329540626,305,10595.2788046002,7.20426653999124,1.91477571180007,0.760612076236601,89.84375,0.760048616629662,open
219.582405935347,234.913394949407,83.4958960259075,232,1710,322,31.9150752139381,23.5618995246939,31.923534170963,34.7848116520533,34526.7791835034,692,44461.3044030973,4.48232512070781,3.16390919815586,0.746868738236162,91.796875,2.35764846848803,176.584823848238,206.096781801256,106.300555090318,234,1964,432,18.7966898825009,13.6468272980749,18.8017855710658,20.3510073020559,19885.1769927089,685,25178.3963649481,4.87245014515094,2.38677269223884,0.767971226647046,85.9375,0.740709303540311,close
148.4824,156.013243027635,47.9055826195329,153,1233,277,24.9784679175963,18.0247754505512,24.9884333101447,25.7524290754767,16117.7172599198,427,22530.969313189,5.02519492135018,2.73453840611343,0.679313579067901,66.40625,1.40453711153488,289.320836965998,320.777043979463,138.593331850796,348,1456,245,40.885795241132,28.2406485229348,40.9036295125458,38.5949994245234,22377.0836590285,363,32392.0238558062,8.33631116124272,3.25503893088066,0.662202832551003,66.40625,3.54421688891236,open
197.437837837838,313.079260608913,243.08467247013,0,1426,44,28.356717240313,19.8451084783575,28.369422589985,27.0540625422104,12662.2780020644,315,22028.0704109769,6.80537197491043,2.90170919279894,0.555217656163977,50.78125,1.67380057305375,21.5802879291251,42.5304398839471,36.6690407115039,1,818,83,7.88414328479693,4.29603312772607,7.88851008013408,3.59793040720696,2764.55763256488,219,3879.31791433665,11.7297411679903,1.30058688562335,0.81964812820952,50.78125,0.137701579143729,open
74.5264602116817,122.63605233703,97.4121544212756,0,2890,214,29.8151475339494,19.8319474871941,29.8209922371931,23.9944767398838,26833.2737171227,669,50591.2980398321,6.45911230077334,2.79410892073968,0.495300262766208,31.25,1.8129628152889,38.7564151666028,64.2725281169777,51.2826032359278,3,1410,114,6.57788126367238,4.47000167860094,6.579141243693,5.76876207681747,8217.84306557679,772,11671.174382827,6.99041047912566,1.46130522756989,0.70601819174203,49.8046875,0.0821966608693949,pinch
384.880411255411,410.589853256754,143.046038853462,432,2431,450,6.71718810890328,5.18362652449385,6.71900587715808,8.64578397079316,6703.82924519864,605,9579.34181726464,4.09050827220108,1.6972696578014,0.687916498608999,50.78125,0.096765432985981,49.6184807256236,76.559459944735,58.3205404969964,37,1478,329,10.5440511240247,6.77329961608542,10.5470409507687,8.61185213270343,9203.7447969146,606,11948.1005227747,9.9295862938933,1.69734332027832,0.772446536261822,97.65625,0.239526335391462,point
605.651910531221,607.62013834766,48.8785134825544,618,416,42,20.6608168863526,15.6952564601765,20.6656133988674,24.0356048035816,23835.7355431258,788,33682.0203635388,3.67741624588357,2.6582064804487,0.661514577928327,64.453125,0.929455438904162,454.412698412698,522.851442181841,258.663617057466,618,1780,225,13.4296274117329,9.38281116963148,13.4320503346679,13.5596335483147,19586.8632228819,933,26009.1525622185,9.49039750482691,2.07976444477423,0.707093876619404,63.4765625,0.311103643064293,close
111.01958041958,215.388475406637,184.615106341715,3,2871,252,25.2051600701458,18.8608342697394,25.2110374251617,28.7839259108806,22596.6568786254,584,40456.489508591,4.70054838339758,2.90519474205659,0.52748809915051,50.78125,1.3396688369965,304.667037037037,415.277100259574,282.245586677759,434,1930,136,37.0237093331494,15.5968120690238,37.0305674705994,8.37011383108092,23394.6846072299,703,42111.3925863642,40.0226118730097,1.91902695853549,0.464702111330062,45.8984375,2.05483489155921,point
352.638565891473,372.265441732814,119.337340180984,387,1197,190,24.5501615528986,17.5969832449547,24.5620558605667,25.5807094809548,13674.3838099889,393,18160.0867087932,5.48084005058957,2.71765328340284,0.742150138782013,109.375,1.35882035973832,340.455266138165,367.354861903292,138.063005199713,396,1618,206,31.9180409436519,21.2196179291408,31.9361147932836,26.0076247064671,16612.2488626512,367,18736.9226314314,8.372402141684,2.88196826504166,0.840571477654215,105.46875,2.29875235634281,point
388.677563150074,390.225924833404,34.7364642596507,385,1281,368,18.4031645256546,14.5127278945827,18.4077082233179,23.9872440169088,16505.8468711589,541,29301.1976191624,3.25551037499329,2.67448662985256,0.533861271534006,52.734375,0.693878479058711,436.195661997289,448.886861939074,106.008666519275,460,1995,439,13.1771955242378,9.40446695723612,13.1801731357976,13.6518332354713,16251.5668377371,736,20812.0853763635,7.08534583800988,2.09704574912544,0.783480502069841,113.28125,0.331386207100375,point
320.911458333333,332.844796946214,88.3452449216175,352,1841,421,18.1747634178154,12.9089112265242,18.1787088779975,18.1982081344391,16062.1570709254,580,29742.1314659118,6.11747544616894,2.39696216685407,0.516865750188178,64.453125,0.635241027142607,328.999567847882,356.157538608538,136.438709318842,379,2356,546,12.7289990571513,7.63663119807426,12.7317501551309,9.19430020617439,12895.6524183034,732,17671.1645923438,14.6336224674747,1.76818137805229,0.63787575990472,50.78125,0.305266139648326,point
354.115370018975,359.579381095883,62.4589187006322,343,2099,622,27.8875100402406,21.5540217035525,27.8927908136645,34.4450080432842,44591.2586793117,948,56794.8471888609,3.54355199464297,3.12341076430971,0.772324441295005,81.0546875,1.5997943075184,10.4341539663931,25.1078720010374,22.8415750507451,0,862,191,14.1037978867778,10.3021874979064,14.1065542226488,15.7502359560865,21693.4897885173,975,26363.2978071426,6.02079782534627,2.21919626238135,0.816049042770994,115.234375,0.328755388513244,point
342.185372918175,363.236499440387,121.904412971129,408,1281,269,18.9595941365813,14.3494676939061,18.9664615140933,21.3914738424855,14763.9848447904,519,19816.6148852843,3.62159105490691,2.58693220008173,0.718928769260083,76.171875,0.803893385594757,220.462686567164,271.627863197296,158.729306796906,275,1594,257,19.8453755885216,12.6387418248466,19.852110550849,14.1830559619276,16533.5746243634,526,18629.5054498239,8.54607524412833,2.04772230592779,0.83978156466412,70.3125,0.968353301919007,point
335.54034620506,407.729883692532,231.669219436455,478,2158,511,9.72635657688866,7.12810338439182,9.72765096981588,11.0126160592969,18452.8769038343,1189,26766.0282083913,6.23203151332722,1.8916478901044,0.682942512665452,49.8046875,0.190535167645457,289.46652150245,354.394839454386,204.490138687961,410,2480,535,5.12087961875269,3.44295809653148,5.12157656232882,4.38560569147033,11137.0672957179,1275,12649.4280466567,7.92803437030526,1.26154982128256,0.911924895966084,81.0546875,0.0483169008357526,close
157.191403626595,164.754488978855,49.3613272205827,182,1168,304,25.6977377378453,19.3426397250176,25.7063699926448,30.1712471240416,21766.46843992,544,28801.1905505512,4.25316035292121,2.92804990329771,0.72795136815659,85.9375,1.46015152236135,65.6447552447552,73.0450287410185,32.0477855209685,79,1146,346,3.62712384274999,2.4591179216167,3.62839268049196,3.29744259886155,3242.24287138962,539,3516.53862791188,7.86440466566556,1.12137158906434,0.931699682932938,115.234375,0.0269859477331561,ok
333.675581395349,373.728461306732,168.374736107903,429.5,2186,381,31.5000953598717,22.8559997369367,31.509250294373,31.4157927150128,31691.2824925609,621,39312.3195475312,4.9179340501094,3.06825895069004,0.79544070219921,68.359375,2.19425159583908,238.714465408805,281.419825596907,149.085549853562,339,2274,370,16.3535759006598,12.1644824205065,16.3587007728091,18.4176849840924,15904.6497887115,554,19341.5270486054,4.42002259426708,2.35491705533044,0.805584271225728,95.703125,0.615664954061434,ok
147.529102844639,193.403522559164,125.087705333832,216,1776,184,25.4961659076144,18.4117258554154,25.5017381896321,25.5419065115085,22523.739101326,600,42070.7935796241,5.13770328742376,2.83597538248008,0.508879153033238,39.0625,1.34139714119274,30.3986143187067,62.1562026952041,54.2280007092788,0,1142,98,7.24436347952449,4.56876161600772,7.24603709427498,5.39336183051112,7316.72011719516,649,9891.36889865672,12.9454750814775,1.44489207662454,0.710781285620527,87.890625,0.122954595699616,pinch
332.188721804511,373.794086091517,171.449039764409,426.5,2234,288,23.9224382556355,17.6512993099935,23.9314367281102,26.0516625870762,17697.039599794,426,23476.2280822914,4.61223546733998,2.80605416408148,0.716064015416357,72.265625,1.31384499415341,51.2490974729242,62.5644312894732,35.9080726706322,55,1215,212,14.1825893911688,10.8839549160652,14.1911262849673,17.3109052593568,7981.83140288613,337,9044.56653525021,3.53437101495381,2.29743470446745,0.848624050213284,74.21875,0.42028309501023,close
2.82231698649609,15.3636099835644,15.1075230957037,0,421,12,99.5100924297922,76.6072815488279,99.5454723867028,124.238333861702,112273.113041886,639,107786.445139201,3.39287178905431,5.29684069375115,1.10654936752068,142.578125,21.3640064814421,71.3591893780573,91.7899609174506,57.7546012858896,83,974,243,13.0434507752224,9.82356173728213,13.0480096754723,15.0744414009205,10985.6620793093,508,14057.5168460507,4.11101164575578,2.18042798974854,0.751635030881559,54.6875,0.361851286780601,open
336.409979423868,400.411253994069,217.213647191414,472,1425,303,24.8676923115134,16.7643232637906,24.8740755144643,19.0465101356026,22895.6493914903,622,32589.8444248089,5.80465179193906,2.50097921360894,0.681794582351143,101.5625,1.28704728360233,198.59649122807,271.807065575357,185.621404081565,248,2168,311,21.1456662519895,12.6830015556171,21.1508162906859,10.3939784991115,19360.482690744,670,26025.5191921262,8.21290739154986,1.93779386909213,0.711170290558242,76.171875,0.891414053560935,close
399.597023468804,471.293929459153,249.9518926274,535,2486,229,16.6937203755947,12.6198010757708,16.6984983960376,19.9471401337474,16409.7640982882,599,22046.7924793716,4.84454924715856,2.46446333537105,0.730201865924693,46.875,0.558462276956736,108.170596393897,134.997102758247,80.7952150952951,131,1096,218,6.59103746988889,4.73832526398713,6.59332242164583,6.76392187208413,4976.91765550922,420,6832.66503066945,5.70955090177643,1.5459056855534,0.738564920007794,50.78125,0.091456550597606,pinch
384.571148569189,407.624309643847,135.165717948173,453,2372,548,6.40511710113182,4.68963580254023,6.40637234426111,7.03155563548884,8060.7829666194,799,11963.2609322801,4.75815180104592,1.5475401176925,0.641394453647828,67.3828125,0.0844084749233497,345.071719641402,376.094466969084,149.605069687528,423,2116,423,5.03032523828212,3.42713522858931,5.03135043836624,4.37839047370231,7800.17729364152,881,8410.18985095818,7.42617659837771,1.27585445384066,0.962394969159739,89.84375,0.0557465245013357,close
236.340323767476,341.418998696736,246.439705806325,129,3006,451,8.14346609442096,5.9722437766105,8.14496042473025,9.23379569601652,10292.0070916544,787,16232.5585848273,6.14208136003253,1.77355350218202,0.626890702662828,49.8046875,0.127703938985816,96.7616179001721,160.910993025399,128.594916606282,0,1100,179,12.2480868155364,6.66877283569647,12.2507224924197,5.5820115808261,11763.0650557067,718,15498.2280701586,16.4761433551842,1.54190525112393,0.72925215873822,103.515625,0.296887844393701,point
193.69670152856,203.413738064732,62.1312277518538,213,1933,551,19.0049328408661,14.2577293252739,19.0087511873425,22.4664778640977,18960.3980118025,641,35444.7151026309,4.73883556912078,2.59013481197518,0.512398300257227,49.8046875,0.662934522693929,157.567533557047,171.722136110058,68.2855791650333,150,4876,949,7.66258821010357,4.52066149243603,7.66419578052867,5.55212883505097,6671.14099919185,711,10777.2569979675,16.5766335144963,1.46412567805442,0.567211032135134,41.9921875,0.107355738202835,point
394.031098153547,416.372938256489,134.62366122034,443,1207,212,28.6193143833878,20.7123044942226,28.63309772078,31.0063679581295,17636.3364878195,403,21312.961324555,7.08871637367599,3.00683519621577,0.774155656140249,89.84375,1.74164639163586,222.546830652791,242.725025558072,96.9393453553262,235,1502,309,16.5752691591267,12.6084170708397,16.5831146135958,20.4346918867024,11231.8383314114,434,13327.0968438775,4.53239026148467,2.46082806309294,0.832787084148494,148.4375,0.584746200990316,ok
383.344797936371,443.122183073197,222.365805392693,463,1397,169,10.3854987330047,7.60072019094504,10.3899522055062,11.098428781783,7846.21275001569,490,8839.63758206908,4.84708966165991,1.93451779218467,0.897175477898843,80.078125,0.232947767267625,63.9172597864769,106.059730200047,84.6736614593542,0,610,67,12.7273345781385,7.41196059113571,12.7329964493805,7.60241701055642,6095.40316225106,345,8331.04370443654,16.5373639223811,1.6990446906785,0.70762656667025,101.5625,0.361246043519106,point
331.960306720794,367.343341244043,157.336108223155,403,2234,430,44.8644136331309,32.3665787750109,44.8745344793217,44.3674457047483,56948.536958154,839,71756.7051441991,3.84637920224044,3.34654539818661,0.771137632422322,68.359375,4.1933811179217,138.301339285714,170.297325339704,99.3897808516149,180,1700,352,30.8485101207993,20.5122305003859,30.8553981542019,24.8745022234018,38200.3174007007,806,45947.3963208645,5.53856210680571,2.44623819663151,0.825509021836491,109.375,1.98871942981871,point
224.730102267675,283.068976317594,172.155756842208,268,2326,207,22.5385712274532,16.5852440058567,22.5435780113172,25.9175071528915,20456.6263491583,613,37300.2137691718,6.28193938911042,2.76860372014394,0.50431919295334,48.828125,1.10216425140794,443.016020671835,500.797663474583,233.587891936278,575,1942,156,25.7331884693779,14.633620608969,25.7398401635758,15.7309707550141,16849.4034280523,572,28316.0558783549,20.9685429693407,2.26825250305224,0.540552047640026,46.875,1.51005369371138,close
352.905282331512,378.121675947695,135.833233821993,411,2238,242,72.9394660093779,50.6483146228794,72.9726959919083,67.2733000204116,56122.7361871864,477,55611.8494559216,6.0443780282393,4.2810161337551,1.00704912810119,93.75,11.5392297704606,79.2201426024955,116.837482539651,85.9170846106311,39,816,159,18.5637576773591,13.2012156960965,18.5720351334765,17.4138830356616,12584.9161917331,442,14811.7640110202,4.25235035238981,2.27282435418344,0.824115032219537,97.65625,0.871493135809398,open
227.8578574406,241.534008714237,80.1383252875587,262,1881,547,19.5056069511024,14.8701904173338,19.5096733848389,23.2693965921901,26048.924112581,863,35673.5868111837,3.91635514317548,2.6425812519271,0.69479803505408,76.171875,0.791737409192458,66.2539682539683,74.4305757727157,33.9234874897778,71,4002,827,3.94403756596696,2.82102788497604,3.9448613353072,4.02770765779263,5651.26909788436,820,6753.54075663264,7.22799106867041,1.24994243064363,0.833328462283676,99.609375,0.0292534689780077,ok
316.421428571429,350.28325386251,150.312238490598,411,1415,235,19.5410701886672,13.9350878614168,19.5488289282699,18.5604496747504,13302.588545277,424,17558.2107053852,5.03748630571551,2.45773706253488,0.731494618765532,74.21875,0.839156758693865,240.003037205771,304.016481889453,186.684294536618,314,1792,236,25.2711982247182,14.8803782926384,25.2807979012987,14.579102581867,16889.5831301936,496,19597.4582114048,11.2374997905733,2.15587929158191,0.813251853309379,76.171875,1.48589338952806,point
306.483691623425,363.645146825155,195.754291386876,419,2298,403,5.92442930764801,4.37660761072533,5.92552306269411,6.91754376337971,7195.70034816869,739,11808.087333737,7.49848795569717,1.55387975164729,0.593741313036578,49.8046875,0.0733972285141777,182.251188299817,239.990602344954,156.169494178871,255,2382,469,5.71335078111997,3.885893990531,5.71439545127297,5.33823415450373,7265.79065478962,742,10627.9200641023,7.94399632105459,1.3938404729375,0.691375154512436,49.8046875,0.0590018506503286,close
363.050086355786,425.075441846262,221.144482534609,479,1989,246,42.6754783195895,28.8508150285785,42.6846924637805,33.9957991858799,52486.745896714,817,66818.4876061878,5.04797232520894,3.04821133379673,0.750437670516083,111.328125,3.5250806417448,119.374642516683,148.716337684787,88.712992327062,143,1596,285,45.4332616154526,29.9152387432534,45.4440932296575,37.3297591053813,52324.8025959879,773,62762.1708833457,6.12089938467873,2.85032321835339,0.823288294547946,132.8125,4.05884574814634,point
52.2736021998167,129.803258374009,118.839508672016,3,2202,202,23.8498776987942,18.3058499534909,23.8553014372607,29.6980829266861,21524.0541888973,603,39943.3645985172,3.88470121623863,2.9037279267971,0.502096902358435,50.78125,1.11184197368997,323.952637658837,419.9794065949,267.329214215158,527,1568,81,36.497458819528,15.093477896332,36.5044876957431,10.0802040613282,23000.6364402999,720,39197.7620967741,43.3710151861522,1.87302426862095,0.527172788898028,67.3828125,2.37793654179055,point
160.199574241618,168.777899158269,53.1373537144638,165,2249,451,20.8644973294055,12.9393249498221,20.8700515370415,15.2213875831025,16708.7250501873,582,24312.9915807157,13.1948864619233,2.22096602856461,0.6902599799883,97.65625,1.06133005548342,119.51391862955,159.401984006954,105.505330382951,127,1476,282,28.5847540745856,17.954197553443,28.5924081472704,21.4774790347769,23812.9879879531,522,33538.4410298316,9.10332056448193,2.37497575521865,0.699260268294788,80.078125,1.97472729196836,open
409.179951690821,423.658368315177,109.842915507776,443,2133,365,52.8582909120695,40.7985259768928,52.8742215828711,64.4545733593713,58589.7625639389,630,67562.3590177345,3.58821132305924,4.08964691220521,0.848913544044137,80.078125,5.7333319344172,44.8594035301278,84.9284400360849,72.1362668851891,0,846,147,27.6233234798204,21.1416899530696,27.6317290161352,32.9388261888005,28473.4311197141,681,34735.7965928934,3.96433125925512,3.07449206480283,0.779430229048224,60.546875,1.65187677437679,ok
328.739409499358,335.37684243871,66.4142920536653,341,1819,466,39.6014979527663,30.4093137371402,39.6142052340818,48.4857784844971,37647.0441900405,597,47377.7108024644,3.909183575535,3.62293470961233,0.784355007013293,83.984375,3.22059222373285,0,0,0,0,0,0,13.6164976975119,9.48040644997513,13.6208494802205,13.3069635257427,11261.080039305,603,14836.8360942111,7.30704853218634,2.09858428356536,0.686609895080972,46.875,0.406784337989404,ok
504.4201411161,533.582651328348,174.040789133285,582,1420,142,33.2247449471728,25.0854133703839,33.235392895741,38.0560318216257,30278.8099735045,567,39108.1594444285,3.81320418315616,3.25755612142258,0.739276488034065,83.984375,2.3512711514433,142.344324667089,162.737131989265,78.9012990687552,184,1358,374,9.46796580791687,6.88793415201286,9.47096841750218,10.2534752400097,9003.56119685473,593,10862.2721577243,5.19192965590598,1.85060988703678,0.781478418164546,50.78125,0.199666924895294,pinch
180.865650578606,295.079822435906,233.159932305689,0,8188,1306,9.46303537064797,6.86255880499142,9.46336923145074,10.0127545467326,64633.582744189,4065,97256.1833843384,5.69122525348611,1.84022353363082,0.639552344605355,50.048828125,0.155436003872838,21.9316221033868,48.517502217142,43.2791581091845,0,5012,1179,2.80898962040252,1.62948305876077,2.80908975124958,1.48419746393919,17019.2285547616,3508,22853.4998991198,11.6388876666327,0.862394754021369,0.805046592312064,50.048828125,0.0111188012549979,close
280.779049295775,304.992410722942,119.120701643308,344,1606,398,22.7922852910249,17.5004207773237,22.7972786192079,27.919622447883,25695.5742777902,775,39760.9560060795,3.93307915223339,2.86617867887377,0.604471071880698,50.78125,1.10440041991003,143.96393182719,174.374407546332,98.4106645079495,188,1342,362,4.31143215119863,3.08025358811753,4.31228555091378,4.32397191215776,6391.08964575228,829,7771.47980282052,5.11931748769213,1.26588307688047,0.832238143299087,49.8046875,0.0388993754697384,ok
306.098384030418,315.478533101555,76.3757592580106,340,1284,309,13.0771115553419,10.1355459848595,13.0802171395955,16.6571855769342,16147.5509307001,758,21325.1887521444,3.7554568940748,2.25316343665416,0.736243835240026,101.5625,0.380469054412422,178.859251449657,185.778812033362,50.2440637179245,175,1540,393,1.62811194175417,1.1268746130009,1.62853990820954,1.49468534323515,1961.57391817482,591,2137.68114086271,5.74506549919105,0.793127138795251,0.994639681716173,115.234375,0.00538877045275969,ok
274.317435496482,297.971051377399,116.392801033334,317,1826,263,63.350898091354,45.350990176469,63.3756279844263,64.9971975244055,55313.2308954759,566,58003.9164357038,5.56436453030931,4.13475441511173,0.936827393733807,82.03125,8.75844697523956,78.1039301310044,103.768439725041,68.3501668466665,81,906,178,12.8659405881505,9.16965982885615,12.8715588197246,13.0573029566193,9279.99277414878,474,10499.2605040403,6.09520479213137,2.04842082804224,0.859791879875156,85.9375,0.351906592674334,open
279.956904995103,300.904181012548,110.360257231913,340,1189,241,17.3303593766045,12.9581058632977,17.3388486475314,20.0899814550968,10230.8754808177,360,13230.226086427,4.19890872823658,2.4150412673389,0.77234875147575,74.21875,0.647689315597925,153.490566037736,180.969494863855,95.9179236357865,213,1132,194,3.05477655542868,2.02522731425074,3.05637617281206,2.64600275610344,1874.61997059223,340,1932.0668577952,9.04658036092635,0.98655272234936,1.00992058272207,109.375,0.019988569260595,ok
1.94038325053229,8.73325224753188,8.51798699281897,0,278,24,15.9652431652107,10.7992558649249,15.9709108843756,14.3205965216355,7440.16622868033,327,15216.1515136793,7.8839707269364,2.18880725730723,0.434603178592194,37.109375,0.590987715467665,170.897186147186,205.770763576503,114.673407995414,167,1112,72,5.42497318984146,3.45183153559264,5.42790516388148,3.86434114115515,2286.98580552629,258,3189.4923388876,7.4942377089797,1.26028400612984,0.712758362282089,85.9375,0.0702123454773551,pinch
346.029925187032,390.530073303726,181.100735321859,458,2200,411,7.3835593570901,5.21800812386273,7.38585964518886,7.06702697226953,7780.28687815751,620,8369.68503067581,5.94060724604885,1.6058263264549,0.888653603334575,44.921875,0.117119802900249,191.86197564276,218.877802797612,105.375460648385,244,1226,264,8.82618849577289,5.67708893323023,8.8291757955904,6.80220783167439,6822.47217716672,504,8390.73744331429,9.2312397191901,1.54692497592984,0.779533392576457,111.328125,0.178663126257414,point
281.491129032258,311.536580723729,133.537134102683,320,1977,366,7.21445631777708,5.60816455773114,7.21736543385257,9.11148839809936,5087.07576607106,425,6954.12405158661,3.91767688746064,1.77356152884927,0.727939121248366,50.78125,0.116368127901567,106.439932318105,116.572265409083,47.5557272389088,109,734,169,5.9065971231167,4.22078647503759,5.90909558459206,5.80690168594406,3800.8235016199,366,4988.96961349443,4.35507556496788,1.42938557384035,0.760622228747042,74.21875,0.0714463272355483,point
219.802698145025,343.084409891045,263.53794085709,0,1698,50,35.5643997676828,23.5197415887457,35.5793691695831,28.7753471378635,14930.7269065456,318,27894.4135242524,8.9619296642894,3.0606163225953,0.532414064404208,58.59375,2.96684704530783,42.8435305917753,68.6031645228385,53.6069811169235,7,1082,110,8.1914565559866,4.06465288665995,8.19556769510356,3.37025362197479,3165.29937519667,262,4052.45892799997,17.5801549067659,1.24855040674807,0.906837269770471,70.3125,0.163481058321591,open
348.614235500879,349.6719062257,27.1883500030473,353,674,205,32.0098591840848,24.6448752562119,32.0236725605346,39.6015182035608,23209.0935827852,452,28045.8680415691,3.76117217799122,3.2865260670763,0.811236185757705,109.375,1.98003005107259,0.0202127659574468,0.142171607423729,0.140802346554748,0,36,17,14.7076058757288,10.9121350632746,14.7152992245164,16.3384189029795,8988.17969547218,355,10257.4069594781,5.78097400879091,2.3063678885793,0.900997565333557,85.9375,0.370340467296207,point
410.400829875519,442.87592466435,166.498487332698,481,1943,376,15.0018307382142,11.6183933003659,15.0049341823161,18.9175797246146,19421.8680530094,722,28000.3278538819,3.60215341003697,2.37877507027879,0.684463892341083,129.8828125,0.422614803780531,100.910617059891,108.974037018464,41.1479808549994,107,1470,442,9.77488809447555,7.35461665576235,9.77710398263203,11.6210444154929,13902.4507629237,805,16209.5751093002,3.8745500189229,1.89761158961481,0.845505475648977,93.75,0.184914482106491,close
169.576638738295,231.990509187085,158.353145235124,185,1430,233,60.7752617688867,35.400790370067,60.7902438822616,27.5066782780916,68820.2448000093,811,71828.2036608659,8.44160617240213,2.73763267195285,0.96640866135111,60.546875,7.62902265324529,0,0,0,0,0,0,9.95487736773484,6.14144696156079,9.95759245632531,6.34116588081423,8533.29844201352,574,11263.4137275025,8.19590067229854,1.47825154297942,0.727057138392553,62.5,0.244706031601023,open
266.049134948097,302.238780233141,143.45863706335,355,1590,282,6.26181224631499,4.56040866189922,6.26397936022195,6.35152455111607,5962.09055489879,547,6589.79051644437,4.75078440042329,1.51948279292217,0.94969950741632,119.140625,0.0917936756705691,146.628571428571,166.126749277161,78.1217160526189,167,918,177,7.8001270304205,5.12032367876937,7.80322398344175,6.03739371687741,5205.69361205837,411,6451.60783524941,7.04833983925884,1.48886473565073,0.791703118153519,105.46875,0.131226381534625,point
287.188914910226,321.13861273139,143.766027048377,332,1943,284,51.1245547458857,37.7238347084926,51.1445202953686,54.6539460132563,45474.5186644073,538,48324.232261579,4.47177964012045,3.85730407919691,0.933059369890044,50.78125,5.73882027660676,38.5075697211155,58.6080709125937,44.1998837933158,7,466,110,15.7586785204865,11.4601976386592,15.7649605289893,17.239533499509,12199.4852636302,479,14382.5480365174,4.94169120101766,2.21848487440539,0.855704288017174,97.65625,0.556607333527097,open
197.188235294118,211.85953210686,77.4840874268171,191,2583,561,57.1495578665239,41.5267577146877,57.1615678608693,62.7764915446092,81695.031413096,948,98833.6833609567,4.08375189401797,3.75462466203164,0.807980841604125,117.1875,6.58243798837165,29.3177878662815,43.8518356689821,32.6173249328223,6,2350,433,30.4693781953093,21.2803255396754,30.4756620975291,28.9592440459977,42695.7613005031,851,51562.2287826334,4.46601907554736,2.59029160341858,0.814124480822319,67.3828125,1.88882477154647,point
123.98875432526,144.229485417053,73.7131849783949,107,1141,177,26.7390454517217,19.6303411863263,26.7505932059337,29.7698649379799,18592.9881909516,445,22692.6744113932,5.70802119859955,2.96038252213206,0.824849693975095,97.65625,1.4961616231796,157.15157480315,184.912551155413,97.4795834853012,190.5,1792,268,19.2918165822168,12.7286349340069,19.2981485971729,16.9673023388823,15051.6666746132,578,19398.4396394265,10.3819452711016,2.28787850218867,0.743921694413511,78.125,0.878653219762651,close
313.45797767564,323.932090128628,81.7207912621576,335,2465,327,24.4666131956744,19.2694607824318,24.4706268060616,31.8714915993297,34447.288648716,859,58694.7775432874,3.14955524972904,2.97984784082978,0.554959114999232,60.546875,1.210783254439,117.100881834215,121.083455412386,30.8045672714801,126,1725,289,7.20603780916432,4.78682380774586,7.207309030149,6.55087027034204,7328.70960059484,678,13570.6454949595,11.3537944016729,1.55306434232774,0.491183845094071,49.8046875,0.0859774254452363,point
329.856429463171,339.982968778598,82.3770536168891,359,1850,475,11.1383393830442,8.6527323795228,11.1406536170824,13.6054150678376,11135.7849965082,579,20792.5159079933,3.44174613259162,2.10519590223654,0.500096673579498,68.359375,0.252232315571983,291.351085620647,313.802620115962,116.585580540689,335,2044,442,9.81626496815172,6.31112335415571,9.81827623134059,8.21379760115587,10851.6589106004,722,15405.4521074941,12.5935868864845,1.68941990875285,0.627697336886605,56.640625,0.179869178137879,point
365.123934426229,387.178701487112,128.851645085358,408,2075,384,6.50516787822341,5.07414795391966,6.50729644048716,8.41680718200842,5125.38711438367,501,7738.07562972748,4.43676679591651,1.68463762506275,0.645384598846825,50.78125,0.0910979010716882,11.6928675400291,23.7347974786749,20.6622404216947,1,434,90,9.82096690960282,6.54222974797353,9.82453936762226,8.78275941989359,7248.60560923171,479,8989.02367371563,10.8252141833491,1.73788638090576,0.812059753836806,123.046875,0.259984895787012,point
8.77567737870195,28.4117821260666,27.0310426043689,0,528,50,81.3476898463677,54.7766075260824,81.3733285458403,65.3677163437794,91984.8718127349,717,86930.4761438928,4.81811569412265,3.83124051656775,1.0920237702591,142.578125,14.236792292485,149.530726256983,175.643338621864,92.1795965547453,197,1406,281,8.92597752155193,6.33823971771625,8.92909546044626,8.9543383794766,7444.52106354256,474,9076.35927576967,4.22054976341053,1.55671449619476,0.832963613410123,80.078125,0.162102736746042,open
411.103296703297,417.53306226546,73.0041839326079,436,2290,631,16.9756924352685,12.7197715409141,16.9783545416723,19.3908076910506,29914.215153459,1156,40512.4723578115,5.02150365035359,2.44805192617479,0.703963406806168,83.984375,0.560923563666806,177.402527075812,202.483769461423,97.6262647914015,162,3752,873,3.5602661482435,2.58323473999465,3.56080121436488,3.77010075892201,7741.09686023694,1172,8586.67227574222,5.46056983421698,1.19275200673222,0.921646195911624,58.59375,0.0230026483459716,ok
389.089880952381,451.357325318918,228.83109165892,546,1390,192,27.7315216421744,19.6654463865582,27.7397705033979,26.2477164936711,21694.3453689069,501,33037.9499294177,4.9768247768481,2.79227101828226,0.633971059033275,82.03125,1.83257116295037,263.451530612245,325.27144472748,190.835084712754,396,2234,342,27.1839601482662,17.355827052919,27.1926294701441,18.6830022946271,20315.5852599677,536,27213.936818977,6.02737440901684,2.33689840881156,0.718280780779521,78.125,1.7168317739699,close
448.685967657799,492.681239606501,203.561592645265,542,2380,369,17.2949452874355,13.0428434428861,17.2994556378833,19.902030015378,17818.6447088081,664,25003.1308800127,4.430408165537,2.48799600656788,0.69559295978104,58.59375,0.642222859613024,94.2552521008403,126.196329801869,83.9354591136895,83,1116,262,6.7790679627332,4.79390021070326,6.78084784101109,6.54605241996266,7010.91245067675,594,9127.58600117901,6.44916538914468,1.54658364610508,0.774718578603329,58.59375,0.0880834637800772,pinch
13.7819467101686,30.7112798169252,27.4526950998091,0,628,119,23.302876014572,16.7206472847714,23.3092082321331,25.9028613064884,21708.6222962573,634,30749.2703566947,7.41372731099423,2.71548176138323,0.664301628386476,70.3125,1.12944818928735,108.559732234809,175.420860711637,137.829768615006,0,1180,196,30.7102016696098,21.1305110974507,30.718108640936,29.3183624543529,31444.4016912833,692,41035.4525512492,7.18560803621431,2.90785024640828,0.769805953136167,115.234375,2.14375846309416,open
402.619139370584,426.510034171009,140.788381438604,482,1469,266,35.6367454397957,26.5719937826322,35.6481935464447,40.1395524297247,35592.4223944999,634,41372.5943195584,4.32185346414775,3.35051715445879,0.875458565760099,113.28125,2.70831152464789,74.5892857142857,85.9922390601119,42.8073250503979,91,1850,366,15.4549366616281,11.8228339553916,15.460688075224,18.6187051007328,14195.9581253277,564,15889.8888360463,3.8305934340767,2.41109133702234,0.894699530616305,64.453125,0.473025481076596,ok
243.51435768262,317.976262916491,204.525633598318,295,2006,113,31.1319716119963,20.1432905423408,31.1398148735277,25.2138953470384,25643.2654273418,612,39984.4317265465,13.0133993216445,2.83018608711539,0.623275723622473,35.15625,2.40488625440539,27.8258785942492,64.5718305397526,58.2842229584579,0,704,44,35.6088921604056,18.2828740417307,35.6183764478465,17.449017815911,25228.4620586197,601,34335.2374503702,28.9564175046953,2.19875121566429,0.683025163277974,89.84375,3.3834883981076,open
371.167888074617,400.292768441244,149.945585001594,419,2393,431,6.0441161158814,4.78374737603635,6.04612978469001,8.27683466548021,4632.66440131596,479,7180.40481143056,3.95251157203692,1.65593298476553,0.644007352193225,50.78125,0.0804274758006125,58.7328413284133,73.1592258346358,43.6363488034772,57,960,186,11.5207907848254,7.60837151311115,11.5250441573323,9.96590250991849,7988.54270907365,447,10309.3434002656,9.11081953645504,1.81885726606572,0.745814621697518,93.75,0.347419321356964,point
147.94656019656,152.226822630756,35.855411604468,156,1595,460,27.7992536767431,21.655856113669,27.8077932950427,35.5730343692877,27318.6488826302,615,35255.7337530532,3.62028162704504,3.14024226982801,0.754020439979592,82.03125,1.63347386138284,117.650371287129,124.457031135287,40.6074270668432,133,1452,373,4.1327935164944,3.07316542866273,4.13407263069693,4.49905494159034,4511.20631291327,600,4966.23533271898,4.22396167235986,1.28506713994421,0.929343602136207,103.515625,0.0360678396242744,ok
390.066839714471,396.389784340032,70.5404190826561,408,1650,253,29.8368733020867,23.5231600399733,29.8464978956554,40.0507262124945,28712.8089014295,595,36249.1896215989,3.29162379203016,3.28040350843079,0.781402556696791,82.03125,1.84459196632137,11.9101988454137,49.6333833113885,48.198651751942,0,686,34,16.1002083619885,12.5018529635899,16.1053639567527,19.5804987166281,13838.6804191245,581,19490.3887702367,3.22359464810915,2.45412135710071,0.668374936795688,50.78125,0.555796583488876,pinch
101.917680744452,126.61860564559,75.1605041552748,95,1895,285,62.0778551982258,47.8556303820568,62.1000787489531,78.7784906178873,65055.231955419,609,66854.3156437333,3.92963147711281,4.41799351415303,1.00980191096142,169.921875,8.49128064551941,0,0,0,0,0,0,8.73869944677496,6.53767280717658,8.74199145038777,9.75938141327674,7174.67973210354,515,8682.0294879305,4.67579968799246,1.84061348455521,0.800930104101949,76.171875,0.166901312201742,open
20.1486251305256,36.5292867738103,30.4753172938464,0,1127,197,54.0714838101194,29.0893346363719,54.0808960882607,13.2533477992287,81786.4251535211,915,83573.6584102965,9.93570549642502,2.61959456974051,1.07130430385638,208.984375,5.79985292632698,41.8127090301003,73.1879926917489,60.0781723305924,0,1108,286,6.03453320155893,3.31912300512584,6.0355422823951,2.09628852234538,7062.41061685962,756,9924.17778532628,9.44948731608213,1.05545141657202,0.727531333626114,63.4765625,0.0645087877638448,open
189.691115086464,207.637211712008,84.4674316839531,236,1308,300,11.6402919753983,8.55260638307843,11.6437559771213,12.0256152794592,11051.8584410492,558,14342.7209044225,4.23846552537334,2.01418427621298,0.754949058597138,82.03125,0.275411735225691,59.1804416403785,70.9493132265465,39.1464841108263,78,1184,353,1.34468907505864,0.848457163931681,1.34511346675122,0.876601493874211,1031.48283076825,393,1344.80460483172,7.60869174900693,0.657087487649951,0.827474909052635,72.265625,0.00341786697410545,ok
414.102233676976,435.583890429128,135.131452765795,457,1840,364,20.7916735538603,15.1865214316904,20.79614055784,22.2923061197799,26445.8689343264,826,35354.2218929753,5.26879666599284,2.57581963411653,0.72990172544921,72.265625,0.993924877055525,259.359498956159,291.450548343002,132.979155958926,330,2614,563,5.56958212582305,3.69400400022661,5.57074495391307,4.62710569272079,7974.29172660278,827,8847.13958054274,7.59863479392104,1.33216260614286,0.937980821852602,117.1875,0.0596757222215419,ok
32.0320182961692,65.6272458027333,57.2953936380313,0,848,101,22.0308803571939,15.7094882267482,22.0371743840819,22.6647714697211,19578.9776951672,608,27475.8949085826,6.86476343439787,2.63549016582616,0.653285328513894,68.359375,1.0399424093766,99.903052064632,156.107218904621,119.989416435565,55,1366,240,29.9204019872849,21.4065783309691,29.9293473489973,31.0513401622946,26215.0182926556,548,35770.3923910493,6.10748902261468,2.96221772253999,0.708262640287767,82.03125,1.87866274603334,open
142.718295218295,157.280209972725,66.1122106520438,122,2010,320,32.7900672632475,25.9015808242138,32.7985462720581,43.0214558792959,39782.7574716332,747,49834.6415057874,3.34732880830649,3.42938392992813,0.79054135556144,82.03125,2.35767080568542,195.170962651236,213.832937095409,87.3890015876933,215,2176,398,18.2259954028941,13.1856218632248,18.2307900914214,19.9257064920289,20177.2509134718,735,25065.8671619904,6.61773582074994,2.45273391735849,0.742000156418886,68.359375,0.660916145331816,close
302.943229901269,366.974142834571,207.148622071467,429,1711,390,37.2849783104509,25.3220431704798,37.2915267643619,28.5210254447655,57317.9517082763,1009,71813.3144314806,4.82355430705471,2.89304681988027,0.788733188389882,64.453125,2.98513562078357,260.883738895326,317.920126200736,181.729572607348,373,2424,527,18.5487568915928,12.9642993899656,18.5523272370924,17.891519232955,25621.4907382825,851,33564.5711206209,4.49096957485329,2.13504026191083,0.769773381852235,85.9375,0.836234209594046,ok
174.288173652695,183.952103812395,58.8608722922031,172,1560,283,29.768195034161,22.1256142785977,29.7793261455079,32.5037083225118,24227.6370212858,524,29559.8206762066,4.0568745968491,3.06366359490418,0.788792580037386,109.375,1.86994768869115,28.6713615023474,51.3786763950417,42.6514343103743,0,1002,144,15.1210492155996,11.4569970584525,15.1269679356654,17.9495636608052,12799.1090259925,493,14642.0422407023,3.82626423069425,2.32569656944416,0.843717179595974,103.515625,0.471972206865146,point
4.88492947290275,18.5998778643881,17.9536129230254,0,376,49,68.1132241743205,46.6385488198731,68.1385215604713,60.7325764946763,65740.6876127826,598,62822.125260369,5.12167441432521,3.79929479155666,1.09187468270347,158.203125,11.1365830309134,85.7033783783784,126.340415844162,92.8582668925939,30.5,1126,186,12.5327416623505,7.98910026335459,12.5369777239342,8.88749145218698,7572.06824441733,437,11823.8683897648,6.72168960298508,1.63730431390558,0.605465957325642,52.734375,0.362864337782406,open
241.886593920499,263.851978065196,105.4185605291,292,2038,459,32.9297463273913,25.2719660820218,32.9361549777027,39.9451293446193,54297.2348652191,1013,64847.8649664679,3.95935305086925,3.34121588557246,0.791848052226499,71.2890625,2.12092011109752,0,0,0,0,0,0,16.7959963878315,12.3683040564942,16.7994427104159,17.8886846613032,29752.8580986397,1034,30141.5569856764,4.48158828651886,2.36694994838615,1.02939180750604,94.7265625,0.616585928294761,ok
38.3118971061093,97.6290425512396,89.8183400048379,0,1298,82,27.4156059042264,19.7515713733377,27.4219023323321,27.7812583693624,24485.9395657573,626,42999.1708797563,5.40457142219676,2.90646998860013,0.542855202527298,48.828125,1.57236939546292,111.044522261131,155.921623825524,109.483620610305,102,1468,141,10.5417876687075,6.58311727641928,10.5444252751525,7.95305053161174,8975.82610114956,578,13159.6514355621,11.7717583201991,1.67004154266976,0.660104327694097,52.734375,0.239257801000525,pinch
147.27174607683,236.157735797392,184.618333873883,31,8015,1933,14.6894440717496,4.4399711842346,14.6899656305599,1.90516540991976,47303.2116343444,3197,62528.1141875759,65.1274501857777,1.02260049232345,0.856778864795052,50.048828125,0.0689360961368001,109.976631035754,190.186908861384,155.170796014309,0,4938,1043,3.40134331898756,1.05554079882069,3.40146869208838,0.315775495362209,12756.0692550503,2508,14318.4109360026,89.9663764863725,0.486368785135339,0.955178823566575,81.0546875,0.00539405259426313,close
92.0435643564356,123.183423298663,81.8936188698086,49,2328,435,17.080133487721,13.0020575216566,17.0857731620038,20.1864525791541,14376.9362337234,529,19698.1171453097,3.63220141744245,2.43646923215965,0.690117185408676,103.515625,0.602620152701812,19.0581639803784,31.117945935025,24.6076672561778,0,526,144,12.8580689632153,8.8436168618722,12.8625746494532,11.6002041843978,11556.9272316016,544,12619.8412618916,6.90780372255859,1.91400176766283,0.935948827992122,68.359375,0.406644442486991,point
484.377142857143,490.324099812708,76.1529243747893,509,1624,467,24.7809632010094,19.2911066963417,24.7868573396433,31.836257687206,32265.5759283937,784,40511.3240623175,3.56382440869757,2.97319831034089,0.774551270721341,56.640625,1.25292946705425,109.532732447818,114.580981115526,33.6439997510796,119,947,316,5.68213085013447,4.32412961449177,5.68347739473603,6.57572018865327,7518.85571274226,744,9115.26522734866,4.29191156608703,1.54819426429064,0.828254377165816,50.78125,0.0663149890231083,ok
423.293621013133,483.409534115274,233.522731978399,556,2228,362,13.3692899454375,9.94109013563956,13.3724176387578,15.2946415887553,15440.7579556975,671,21194.4041691835,4.84842329708429,2.17481682223147,0.698139315265091,103.515625,0.390495331618949,129.247444862829,161.831484152635,97.4147419880592,148,1550,329,8.28193832370017,4.86444989223236,8.28416670526027,5.2173662800351,6901.27364381435,603,9043.01234965995,14.9237092774162,1.37863983013891,0.729158408746222,83.984375,0.173813784909844,close
126.300761990139,183.581993328094,133.260743075968,172,1896,107,26.1687958339594,16.5603280644318,26.1746527474007,20.6511161129803,23195.725473394,651,36946.0919117473,17.8124477128621,2.58379522855657,0.649449363183897,48.828125,1.34731504226044,8.60042507970245,27.6416648658661,26.2766284235206,0,398,27,27.6866341026846,15.7776483347689,27.693992673037,17.2666065850347,20801.1413504833,540,29693.5341660351,20.5229647919577,2.11098778184098,0.65828789965641,52.734375,1.74818166297783,open
25.6791666666667,48.4974164751268,41.153224565014,0,949,192,15.5287493332386,11.6381293847927,15.533372993123,17.1503342120711,13793.0595867912,565,19552.0573664517,4.0168929312189,2.34783887678876,0.664746582970992,46.875,0.566461565204927,62.8820326678766,71.5115768679051,34.0654902345681,77,1328,360,9.80681786004478,6.60657572801123,9.80978555595995,8.52888196518833,9153.55823073583,565,10920.6696784026,8.96553383220744,1.70302082174676,0.865356089536515,91.796875,0.229519475641146,point
428.529078014184,456.644295667818,157.783618649576,488,2089,481,8.55328824036943,6.48147914086421,8.55480464122355,10.0191327291064,11804.0096673392,828,18277.7711772371,4.2653443201248,1.83614942857163,0.623950234273616,49.8046875,0.140451479049108,340.454443614638,366.068689812364,134.550428036357,396,2146,488,5.88860684808103,4.32597763846547,5.88970659389004,6.60452550446012,10522.6816915586,965,11584.9681158105,6.02188885058103,1.52941631249565,0.963342225583691,49.8046875,0.0651514413459672,close
305.087270973963,339.666082695708,149.350459235585,377,2282,295,83.2259710751254,56.3704538629504,83.2460410125139,75.253005914737,124802.816536244,1067,116912.321311759,5.24439125833411,3.76565334490252,1.07282546068298,123.046875,14.1685637601468,8.17432432432432,25.9959716213982,24.6828968568305,0,580,91,7.76239552717066,5.244120842708,7.76414403429094,6.25263689973136,10071.1045958671,729,11641.9482708118,5.76882204275499,1.45736129378568,0.876321740276329,66.40625,0.140829516874691,open
75.9775068930489,103.256780431009,69.9291840772781,62,7259,1618,16.2953350592664,8.5851091555809,16.2965173929781,6.82781658499967,40329.3678657215,1894,59159.987191108,23.3430800876657,1.70532532403851,0.685434535380634,49.8046875,0.400795067549679,67.0565545243619,117.018779354332,95.9069708359553,0,3272,669,20.2337504964632,10.1343553238261,20.2352177112532,4.26388099317469,48255.9338160594,1520,69886.5143131047,14.9155065850835,1.59384606376203,0.714316901358274,79.58984375,0.772063715840168,open
366.635560675883,424.628448322088,214.255253240021,525,2165,426,20.9017497026907,14.4029512214797,20.9057621171386,17.2150677875765,25501.7841210046,826,37505.284980733,4.88632138954052,2.34054901517115,0.659776794364782,58.59375,0.84775031212789,61.6654611211573,91.28102286688,67.3174918153526,16,966,216,5.13985527381136,3.53693302438339,5.14101724208492,4.54531280065057,5973.72648607548,645,7823.69584993606,5.77078996274332,1.28879931212174,0.779337954193093,72.265625,0.0591707432389313,pinch
39.1948955916473,96.3334952377298,88.0164653415895,0,2004,138,29.1697384909632,20.3970533592969,29.1753798400566,25.371790325965,28725.9655622287,682,52746.7799871418,5.72663063172612,2.86640012925042,0.514175880284229,53.7109375,1.67443148501343,54.7445255474453,100.797739590575,84.6551275089607,0,1514,96,9.56137912951922,5.83109138337511,9.56356074878151,6.81284569322716,8999.55313657433,678,12781.7523123582,16.4363275216442,1.57740791112572,0.705484741602242,119.140625,0.204747898197553,pinch
383.673817649927,404.216325904512,127.25224955414,430,2440,305,92.3368929993546,66.295681913765,92.3594105110488,99.4340616279668,138892.056951505,907,135972.443605132,4.42343142531467,4.61232414940715,1.04091919168862,156.25,17.5486656768423,7.07667584940312,21.6775031176135,20.494576123881,0,502,88,11.0746815275535,7.55020583322476,11.0772246158973,9.5843757739609,13222.5933358817,736,16444.3483047635,6.20260039151644,1.79825337861678,0.76885184345122,97.65625,0.254458269103548,open
141.313615023474,156.349872494697,66.9167177448623,173,2462,547,20.2280759955178,14.959971624777,20.2328247824018,22.5775672719739,22981.205187999,753,31864.7395607749,3.80577746856199,2.48771543410829,0.698550642744362,50.78125,0.949844974594327,231.600762066046,276.905875882441,151.814718712371,304,2441,456,8.72169548275894,5.77330230939489,8.72354222506948,7.08424651941152,10669.0053092357,740,13636.5400547907,5.77242469760817,1.44058316720012,0.806961876109758,104.4921875,0.153211462568937,point
148.344988344988,159.268242158859,57.9835895498408,172,1666,448,37.4171773595144,27.8756973739564,37.4280845599299,42.1849277139509,38974.0779477926,642,47834.6966937093,4.61149403126423,3.43845806947513,0.809990722024497,85.9375,3.27893600447033,135.796518607443,144.506588990622,49.4259662325663,146,1293,331,5.48831968421573,3.85283336685612,5.48996690900397,5.49593033404713,5704.29082720844,620,6418.82038918229,7.84147795453524,1.38579020109068,0.870311862909429,87.890625,0.0675276620436945,ok
356.56342780027,400.484816683557,182.409050784476,459.5,2234,306,17.5045337713395,13.4216300422993,17.510441576949,20.5144520027365,14273.1290226848,466,19890.8557226876,3.77634463951683,2.53678155514823,0.688519882368824,62.5,0.691507676229149,10.0781078107811,18.4666619008465,15.4826695193857,0,398,94,8.99992637666603,6.50680513796109,9.00487788806281,9.44635784491012,5105.55681689614,355,5914.68587040663,6.4254881423965,1.82613463867231,0.832072451108895,93.75,0.150497251846512,close
322.135022850021,326.828293264123,55.1998753024456,335,2130,565,17.5360517495521,13.7864810620969,17.5396399286478,22.5186420637198,25079.1643706244,803,33184.0599164673,3.27740708840095,2.61313564904761,0.734539433099851,98.6328125,0.614609692897253,72.021711366539,75.2548755649512,21.8259521211956,69,1212,393,4.08859657420125,3.14310571450019,4.08946712403365,5.10213006902751,5700.11546145708,792,7383.15532336095,3.67733917699448,1.34064075437604,0.754511807221441,49.8046875,0.0311687232676508,ok
116.823272438443,140.946639275697,78.8717227633751,115,2188,304,17.909583491114,12.7365771351352,17.9131405186579,18.2311716861853,22759.7381808566,793,32070.7012262704,6.52240674475467,2.38091398194486,0.721898597347855,49.8046875,0.720104557365241,22.6662987490802,53.1736122432853,48.1094948416047,0,1334,168,13.446241675601,8.60305800311962,13.4487159121307,10.1700453226297,16413.247882733,794,23383.1116524791,8.30502563700735,1.79974670787259,0.694985613117513,82.03125,0.332934087559269,close
350.758265582656,379.545492701218,145.033862054095,398,2158,398,6.08027088401992,4.83103211627124,6.08191870928372,8.23217621215216,5600.29003746136,556,8913.25425452045,3.86314985410125,1.6798709579332,0.606981241119612,50.78125,0.0764412293722246,32.9579405366207,63.6312174538787,54.4504912245465,6,742,151,7.89685766431098,5.33974603836726,7.89972212075574,7.38925411986111,5528.42080299316,431,7363.50978690846,10.682520016541,1.63359404360964,0.748729049569107,113.28125,0.131031449518053,point
24.196981731533,34.7458033419988,24.9453639631025,24,1268,200,81.0099397111831,59.976181854171,81.04212599868,89.5030367211861,72720.1002067806,537,75510.0129544013,4.48971381965731,4.68933327449163,0.984663161817647,103.515625,13.8260760633047,35.853203568532,58.2563830307724,45.9354469224568,0,438,81,9.43506751716387,7.14844177152969,9.43889588713375,10.6810485875671,7891.41126077977,492,8814.02870429611,3.63760970177941,1.89143829074521,0.897742483193126,115.234375,0.188437230519008,open
29.5773101555352,46.4675707635163,35.8551818215175,19,851,170,13.2306618051802,10.0618972637869,13.2367183633047,15.2525313738242,7324.03996031512,346,10997.6537093191,3.69957265746919,2.20872227260273,0.634571308559706,70.3125,0.373332094196667,28.1650390625,43.9379778601326,33.7400085988819,5,820,89,4.87329273819833,2.75686344196717,4.87567158637365,3.37337427001002,2445.7131554256,368,2823.02816457439,25.4240786775712,1.15237174353505,0.87473258191234,101.5625,0.0208276418749145,point
267.233350279614,313.916318479345,164.753121345217,344,2120,168,19.8953684406954,14.830258318431,19.9004265884376,23.5650752614454,16820.3588073269,567,29171.1181123538,5.75694254480625,2.63393754197523,0.560928587528885,50.78125,0.918636807068699,419.752310536044,496.21473926885,264.70633702822,591,1752,148,19.2558712763588,12.6463753825889,19.2603214777826,15.3836738757596,17459.3788136222,650,27366.7563279224,10.5175206061959,2.209024475731,0.578800574647034,48.828125,0.743308804183901,close
359.75786163522,452.078450688064,273.912124805502,517,1630,82,49.0537587172821,33.6271090243535,49.0794845338537,40.1882494702625,24565.0251387577,350,32080.2620092333,5.43556139194947,3.53217431011623,0.741950195013789,97.65625,5.40861427967316,257.512408759124,294.084247326421,142.135134326897,304,1218,158,46.9391953919083,33.0491499796983,46.9734773137599,43.7870334449387,17234.412150277,249,22638.6677360933,4.65374286102869,3.46296746601865,0.729189652884756,85.9375,5.08848254708471,close
53.147619047619,67.9864282174664,42.4111851124888,41,2367,356,26.6766314011875,18.1035144485089,26.6857094691257,24.9175506987443,18533.2310647908,514,26612.1662393081,8.24259882712359,2.73922283677868,0.640989611263902,70.3125,1.66858235984347,108.683146067416,168.208026190507,128.430016326181,2,1170,183,33.2667116433111,23.3520799656812,33.279178089744,32.4927155861709,21405.8902458711,445,31175.0267541845,5.22239871253919,2.9912478493929,0.666854828187442,50.78125,2.42201116919955,open
178.159641728135,188.328098282598,61.0620924959794,180,1985,407,23.4001381082335,17.9509789648647,23.4063036563163,28.1403829397846,26133.1735508369,692,34070.9580753132,3.85574871805423,2.87741246746569,0.758626678138632,72.265625,1.1232200229061,137.155837563452,172.320965725086,104.347105929829,166,2316,462,15.0316659808862,11.35709198993,15.0354790997346,17.4568733993186,16892.5694097904,749,22373.4712201622,4.06957799514594,2.35200086579509,0.729496123690588,82.03125,0.444062144929112,close
29.3512528473804,80.6655741437214,75.1532563126273,0,1176,100,28.1974061029528,19.6042420206636,28.2038310344916,24.2397803812388,24346.200580532,618,43031.3112353566,5.56419796757768,2.80419493129625,0.54743122575926,50.78125,1.54653138466485,32.71802054155,63.8315286695187,54.8215127897127,0,962,82,9.01429856194714,5.46264881563785,9.01640313172669,5.98156000857947,8267.30390089211,684,11700.9937630963,12.9209318676588,1.54392647426605,0.688630418453842,62.5,0.170166974268552,pinch
169.413697362332,275.952197773106,217.877446177973,12,2284,166,36.8531707449085,26.6622073827227,36.8617000948151,37.7894569469891,32992.5473389606,614,57617.0301540637,4.47736115651779,3.24290020009085,0.545031140035406,44.921875,2.77562667103394,403.205552849489,490.285616630072,279.003915425844,588,2080,194,47.7935169172691,25.1234983383257,47.8051609854713,20.6396723397841,31264.6189770899,618,51578.5420885827,14.3217129892839,2.46551395984819,0.528220527008158,44.921875,4.9433340173863,point
252.832087912088,279.768441928144,119.802442659516,311,2227,416,35.4264581988138,26.9171852582899,35.4342446305058,41.2679272620715,50258.395837446,873,61236.5964626095,4.18041358120708,3.416282461687,0.818665793021788,99.609375,2.67588760199067,10.8104308390023,19.7659204181673,16.5514481424691,0,538,142,16.8091903418372,12.7032992907346,16.8130028092506,19.406888593551,27285.9777334646,938,28010.7749360698,3.75061091570192,2.42131615914217,1.00363899963198,103.515625,0.572334973419782,ok
317.550951847704,347.887034219195,142.119986911644,393,2334,373,32.8127870369259,24.2458274553334,32.8219762441754,35.5214690820404,35437.7777615211,683,43303.0478352254,4.08261650170499,3.13197079080014,0.822082446699408,60.546875,2.24524853438197,67.3957388939257,94.5988165011005,66.3984110400048,86.5,1640,268,18.5635131617028,12.1694046366423,18.5677122697409,15.2841107226205,20179.8297501508,677,26845.7066284329,5.34090910942631,1.83069666600732,0.736315969715872,80.078125,0.728385117881556,pinch
193.335637480799,287.986885528767,213.524694178804,52.5,1620,65,19.2168672760296,12.8233894177036,19.2242506494152,17.1415341767687,9632.14833588633,363,16696.05302185,10.2179889126591,2.35784721172751,0.554130186038028,41.015625,0.933212387899253,233.935871743487,266.059770734334,126.798736802682,255,1091,76,25.988457542719,13.0936836464693,26.0014874331748,8.52288425906657,7201.88425288395,267,13067.4962791764,13.3091840793628,1.84447115178058,0.490137582468725,54.6875,1.45732538961413,point
306.48784082535,322.064075885035,98.9650500300027,344,1471,213,22.4750953450587,17.5219424675191,22.4792100902699,28.128851803787,27864.6659965174,753,47554.5518568468,3.60754604706323,2.87330887171263,0.552099750629666,56.640625,0.936084648301896,133.698006769462,139.009645202033,38.0666443606515,143,2206,342,8.9504346260312,5.57171720497863,8.952117918879,6.94518278487246,7766.96315249859,629,14815.1960480382,14.0636410481125,1.59873968351582,0.474344023993152,47.8515625,0.139117413554536,point
115.253068932956,224.249504827739,192.411148945608,6,3082,289,29.8127246742123,22.2955118274258,29.8197633329487,33.5429715610401,27076.5637307517,618,47221.8940504878,4.47584173899134,3.13999084847835,0.53165721296847,50.78125,1.77607118208888,409.864772170505,493.918827275581,275.688075617724,595,1920,155,41.853593618575,21.9526996540465,41.8638505457038,17.0374397737015,28499.7848164065,595,44805.4599939088,14.4119777324183,2.36356771364853,0.599000275808551,66.40625,4.21915679830174,point
420.36563071298,456.30614001857,177.545591040085,500,2499,393,22.5680987140893,16.7424657168901,22.5732538868444,25.4173873142652,26942.4838371115,746,36632.5149885554,4.50899730670313,2.72541620617607,0.722613501661733,62.5,1.10003268478263,116.899422521655,140.954751816577,78.7766049068412,163,1784,425,18.3583430582951,13.0060864757355,18.3627558499096,17.8560982771998,21580.6866151381,757,27026.6476965784,5.29674569296304,2.34326053347724,0.795920712224026,78.125,0.727342744529379,close
365.166444028854,409.588499569297,185.54084297222,453,2466,586,10.3255542040531,6.39192442896091,10.326932963531,8.13786584286884,16077.3822192771,1101,23924.9731376007,18.646132573476,1.72479034796534,0.664704651374459,49.8046875,0.198476266147543,294.813344837504,326.664644626401,140.714521228958,363,2588,632,4.58008873089543,3.19457222371498,4.58074738119221,4.31852452302654,9745.10814643791,1165,11107.527621857,6.09889585710309,1.27978773022197,0.922326453909132,49.8046875,0.0395048892278058,close
343.742700729927,381.250012963184,164.951746319221,432,2108,303,35.2008903533474,24.4917135034694,35.2115989990024,31.9268298731512,36624.9747347892,661,40264.3769997037,5.54144937448034,3.02775335478622,0.913572496750172,123.046875,3.14801886194567,156.185816382628,195.012309841083,116.804504133844,199,2214,272,19.4395406773421,13.6553607296647,19.4448808823316,18.2719559445918,16929.6195811532,549,24839.10116726,4.48655707662934,2.25667642661091,0.657100849365878,70.3125,0.832875464112359,pinch
544.013521457966,564.023103895927,148.944258600337,615,1757,469,52.2039923912302,38.0731110606625,52.2193373660378,53.888634150308,47509.1622038601,644,64762.3619141868,4.60596833343854,3.83143031229011,0.703636221547875,83.984375,5.79404772782255,141.048603351955,164.186692007611,84.0625308642878,167,1476,329,13.7979692439033,10.1918040530845,13.8018250101993,15.1236977117223,14037.4349299056,621,18243.3292550212,4.43891657879874,2.1722473709516,0.784006619203491,109.375,0.387898673229822,pinch
43.6453265044814,85.6867564473866,73.7617036431019,0,1018,100,104.928457825787,77.1676048503036,104.962047576294,116.54921474892,126730.688724973,731,120535.798776174,4.46608256824461,5.21140297668498,1.07570342025789,89.84375,25.9970795806056,68.9230267449446,86.7043736026418,52.6219639955531,79,2064,425,11.3551293039742,8.25857498753721,11.35883059294,11.9417996947438,10679.8791499435,611,12660.3954558945,4.94470124740575,1.99157679906626,0.804796161882166,50.78125,0.265099261316675,open
441.483267158253,502.540545627912,240.15044737815,588,1834,219,19.4660699326871,14.715536085909,19.471592065427,22.5582726008158,18311.2964067979,581,25943.4901194576,4.05028118366994,2.61972555920128,0.683193701041834,72.265625,0.824390654761869,125.312005277045,143.44254777392,69.8275169715009,145,1158,236,6.61938083557153,4.84311372067031,6.62156439035674,7.1493042289703,5258.58476894345,483,7342.16040053619,5.5475086949567,1.59751849715308,0.716192068024765,91.796875,0.0948561118066083,pinch
153.901474530831,169.092672134061,70.0710979202781,155.5,1400,253,18.2117576276836,13.7026031465605,18.2178565728365,21.3167691389332,16033.9229107113,541,20444.2838946682,4.79310615400514,2.54310198701221,0.763945446525414,70.3125,0.759957989807821,94.8260416666667,120.864994415257,74.9814989273724,105,917,164,15.3532728302827,11.1676967498609,15.3612274769107,16.0851433127483,8578.15536958353,391,10720.9888798665,4.67177496645573,2.22777975987648,0.748055607883343,93.75,0.568694124145542,close
270.723404255319,337.864290502521,202.215523650971,349,1712,224,37.7852248396083,24.0981859597695,37.7990287422453,26.0150172499032,28726.0637482348,553,32845.8274631658,7.76949757619957,2.80686978749195,0.872940477493793,95.703125,3.23812909192091,88.2976190476191,129.140012610898,94.2724025978535,38.5,888,136,11.5583698567213,6.61832194517892,11.5626720993897,4.79812470753696,7682.42926065271,458,8895.02469432047,11.5575219588618,1.44378328375396,0.796060985421125,62.5,0.316623250446227,open
305.188493565481,336.932807665194,142.825566596328,345,2595,355,56.5961300439878,40.7464494663437,56.6175560524216,58.7957825136601,51135.5457454131,565,53826.0597450401,6.28148837278606,4.04863420014516,0.967886592328844,123.046875,7.65567333260473,61.4275123558484,93.6811647345914,70.7597745140012,20,1068,166,15.1680823918674,10.0485067803598,15.1743333231942,12.6403758583819,10417.252011458,488,12198.8872313567,8.76288974658211,2.02530324643828,0.788141836974589,85.9375,0.536403584977496,open
290.325481798715,297.725537563281,65.9844007269627,312,2236,420,30.6915148914955,23.3367237231798,30.6997330177594,37.383824502658,35137.06139737,723,43592.9999148998,3.92629482809528,3.18049569784378,0.782843591986087,95.703125,2.10530190884681,19.4381572358538,65.5713535288498,62.6396460456376,0,948,59,16.3919001304798,12.1170646094276,16.3960027766297,18.2422153455019,19316.3032746955,735,24197.778025027,4.55631137814221,2.34191066884753,0.768579336507742,62.5,0.548826289314013,pinch
335.633372048006,363.120276054533,138.614620772547,405,2028,454,13.9578954770864,10.6763838968432,13.9605949812197,16.7533932690751,15131.3985517198,654,27577.099605546,3.68105140987084,2.28350630891151,0.507145571615734,73.2421875,0.378106034528111,297.580853352456,344.784824890947,174.163966323564,400,2596,589,10.6389464889002,6.90949386386206,10.6408540162727,8.85583653519197,14866.8355322179,876,19270.5783863113,11.6516325858133,1.75013831161137,0.757719548519072,81.0546875,0.184027365840159,point
223.27139874739,231.798439816711,62.3091126639336,245,2361,557,29.1915515303175,21.0005574256848,29.1991723491135,30.9519337322675,29439.6275904438,707,40237.0680276121,4.55269731158432,2.810121461307,0.683371211180908,74.21875,1.73819122497942,320.278474661315,348.621362642506,137.72461837051,390,1866,359,14.1528215427435,9.77742466145908,14.156373405655,13.3080169393147,16262.3717523728,735,19486.407350288,6.00676117624449,2.01996551130017,0.825620774732733,107.421875,0.429596733079799,point
212.377358490566,284.021291280836,188.625458038971,248,2370,178,24.7854921990041,18.4372859920393,24.7909246752348,27.4205357455235,22352.0366097972,631,42018.5747758577,4.52843276163229,2.87156525752347,0.505371513746395,50.78125,1.24576038651156,360.410179640719,460.614035352517,286.888471601935,556,2108,180,27.394047447296,14.5799653232314,27.3999076875419,11.721836310115,21540.3000388005,705,34087.958925715,23.9148737314464,2.05452119556198,0.585627721856708,41.9921875,1.67554172618948,close
184.861212121212,186.491366279969,24.6115635132402,184,1380,349,21.4738366892559,15.3393497516838,21.4803428102842,21.555843901326,16836.2537518412,562,25309.9270902783,6.28334029508094,2.61275326858048,0.615823760018539,56.640625,1.02638054963092,250.128651685393,304.187058984981,173.153886560506,340,1622,303,31.2122369251992,20.6303169699468,31.2210078169654,25.2420192937014,26558.7531475217,573,36721.9642065052,8.05240854159979,2.7098625530978,0.705836534499735,76.171875,2.45839925749207,open
363.297169811321,399.263275949608,165.674103207153,444,1892,349,11.0790590147038,8.22104274994995,11.0834046525909,12.1690473005009,9073.61888389085,508,10457.1663779363,4.64940680542333,2.0243288004579,0.841482411399146,128.90625,0.267377947599877,0.0141911069063387,0.153791562980216,0.153207911679329,0,6,0,9.28277981924426,6.25268310431209,9.28717050952253,8.26965006741803,5052.52323003926,365,6609.08604125788,10.6737513346034,1.7251041561741,0.752654959474498,109.375,0.18268009635477,point
379.576874843241,414.917414369931,167.585503401372,457,1937,492,36.0553979573888,26.7253115185716,36.0599097483698,40.421329932452,87743.6151704905,1467,106553.817024545,3.75095874554415,3.19345143483187,0.792771853829191,98.6328125,2.5942539462165,38.8236336032389,56.6045372174638,41.1974339991556,14,2064,610,15.7292822988897,11.3130566325829,15.7312669850557,16.7946246320226,41612.0077062107,1585,44709.1998119674,4.81154569009859,2.08503150926829,0.952550882814651,75.1953125,0.480084930448833,ok
331.394666666667,377.18760083309,180.213566384157,412,1793,222,55.2815728815524,36.0215153755695,55.3061584194426,42.6362895827837,37122.1098877683,515,40524.2047975157,9.76408176750588,3.5698829602216,0.912162749826402,97.65625,6.66506942865996,61.2391304347826,88.0929906405725,63.3543966390275,33,1016,146,17.6187082671754,10.8647434454416,17.6266922574415,10.8429631967452,10441.6821305897,436,11994.6767637675,8.04396051952844,1.90925682481965,0.867278962525052,125,0.764307628182826,open
202.850753295669,220.272065765692,85.876812847417,240,1430,388,13.2748528680255,9.97153550849364,13.2779779389736,14.8878971543998,15973.4236881935,764,21179.5414200405,4.02316803162754,2.1843355501692,0.717888852826501,119.140625,0.382115288871919,22.8539889613648,37.1912376582837,29.3481774129796,0,594,142,1.77513913153041,1.12563520047856,1.77558463680887,1.24820626413307,1911.66496511372,580,2243.39095455377,10.1889377194323,0.741830577763127,0.90544321683318,117.1875,0.00529912760708987,ok
391.140857392826,400.190832650103,84.6443522330571,418,1769,371,17.7843475567683,13.4439045822167,17.7882383453779,20.652127952158,22601.5839674096,813,30732.7658749474,3.79658729759747,2.47042969549349,0.710955051039128,82.03125,0.610308258190844,273.658773784355,305.909191434003,136.745075157075,349,2300,539,4.90023034377102,3.33586303253148,4.90126663144552,4.4803332968828,7302.76024826308,859,7889.31607193696,7.59707671986302,1.30667751561183,0.938266631645483,102.5390625,0.0504877908646226,ok
377.251987767584,421.557394309776,188.184042609689,476,2128,365,13.2986771837802,9.68013207160337,13.3027444073363,13.7503487379557,11093.467904265,499,15827.0159370715,4.79738124550136,2.12264843617156,0.671370109416837,72.265625,0.421131760231803,57.0752762430939,69.4798203940464,39.6351257003296,71,940,238,4.136689552388,3.06772554053374,4.1381165201152,4.60997475612046,3688.20798268482,486,4442.06658269286,4.3025605994513,1.30628763539058,0.828988387891902,99.609375,0.036867387090702,close
304.783265543289,377.838942043229,223.379544771048,431,1360,236,16.7185810135835,10.863320072595,16.7234375810281,14.5017977707601,13088.3414214806,506,18695.7738449359,15.0718143655915,2.19760382108894,0.666203392725895,95.703125,0.641678633933759,88.1401952085182,113.661002217217,71.7962620253621,119,882,164,5.34968881102489,3.35648473539603,5.3520624000375,3.76856512105111,2842.56481197239,345,3782.75829679132,9.17012339910958,1.22188722939132,0.73118764927725,109.375,0.0621059179893682,close
261.358526395746,300.259789402092,147.837622394964,327,2134,408,36.9638024616811,26.9108322896311,36.9708230234327,41.0773412738702,62200.964286354,1024,70856.2214185987,4.30993428951211,3.02201704587711,0.866810453272722,69.3359375,3.11498556584389,0.00146896804994491,0.038327118988321,0.0383059924167637,0,8,4,18.0666276953235,12.2662772496045,18.069943782899,16.0294145763513,31716.2725363914,1096,33401.0729506732,5.84140672772863,1.9989076163535,0.970280506285492,70.3125,0.704029268568301,ok
423.911847672779,442.733684002736,127.762951981604,468,1477,293,38.4939415974107,28.9143989063163,38.5075101392593,43.5275065392501,35432.763592103,563,41000.6176491565,4.13376821706051,3.47118088402699,0.839378995816718,83.984375,3.6298063576089,164.43972179289,176.891746862853,65.219285044864,193,1304,350,16.4576885465327,12.6278809500292,16.4640514598843,20.0840792867967,15050.5108658726,547,16340.4779493377,3.66917191474424,2.46003527558495,0.926762238970418,107.421875,0.607485606261285,ok
244.675068744271,253.065573899221,64.6390770463416,265,1490,393,13.6843847619074,10.5748644966273,13.6875170439024,17.0915206834044,16545.5193679337,781,23074.3543316409,3.80437056207204,2.30198276297409,0.688820858159795,52.734375,0.372506054776129,1.51612903225806,5.4958745524961,5.28394383642077,0,178,40,1.92944971240356,1.30814922922584,1.92993586309804,1.68282238721892,2132.17650950567,630,2595.36807078407,6.9260122654141,0.845950516063552,0.826477908478026,60.546875,0.00714307708806741,ok
214.099120703437,272.226743139347,168.167384648517,281,2598,174,28.2745995790381,16.3903315716087,28.2802430207436,20.0284868558612,21762.7099716185,672,41008.609592165,18.8355753483763,2.55862698093772,0.487873032914788,41.015625,1.46905672831454,373.203651115619,468.844136078389,283.84246145525,588,1832,96,25.2552494682578,13.8243903965065,25.2603737808869,13.6083990406439,19079.8025000151,690,34077.1223273885,19.3402414371357,2.1080077256436,0.472424950348363,53.7109375,1.18424823882029,close
174.82915451895,185.81217828137,62.9542949834985,195,2489,526,34.0993365878745,24.8548397760343,34.1092734602398,36.0131994679922,31641.6709817647,611,42626.0502158988,4.5425725717746,3.10272390317696,0.717405268519691,72.265625,2.84184363730021,219.247586598524,249.61210452565,119.351529230603,255,2252,419,10.2934322988122,7.1568841745646,10.2963561454554,9.55460090755216,10255.4811575705,645,12603.2730314083,5.20147819340704,1.71312506308333,0.77999821314271,83.984375,0.256427328145442,point
83.7185051235684,90.8648321492919,35.332451261109,86,1898,418,24.7420825683063,17.8384744324743,24.7495401766919,26.6391963496466,20055.8775214548,559,29594.0290834748,7.02498418432975,2.77239564528263,0.638258753205656,72.265625,1.32270586496682,184.620872641509,218.071774740977,116.096423207091,228,1770,321,39.5585885227723,27.1436214463354,39.570253873367,38.8241413681733,33396.1207794572,567,46035.5819729849,10.5819008540932,3.18628428824279,0.715255437866912,103.515625,3.38977968038885,open
283.098156452417,288.786168162143,57.0482805407094,290,1666,374,20.1404248745511,14.5817453670219,20.1454276390543,21.7662471155505,15550.6755214399,497,29265.5629516129,6.17393018242771,2.56086065189786,0.508612406277654,54.6875,0.850418708438287,289.923490735206,311.417886160512,113.724227341663,317,1692,348,9.74701117293755,6.46569135605891,9.74992377712923,8.0744829405482,8041.62529663588,519,10817.1016386866,8.76907548496621,1.69478826519688,0.724434647703991,76.171875,0.205065979108219,point
411.356308411215,437.639776069464,149.467923081619,482,1197,196,17.0347148673817,13.026562016806,17.0446687413063,20.762580583087,9303.45753273426,344,11150.737086386,3.93379842695428,2.51038799628741,0.811022764784969,50.78125,0.603751686652317,130.968348170129,141.420863150119,53.3851222195611,151,1129,239,15.3339618087289,11.5420395684048,15.3415507284963,17.8293040765762,9927.5156374837,400,11669.0020036573,4.21757848185878,2.37050942810574,0.867343951683424,97.65625,0.520999918498858,ok
224.568094740509,341.920338075538,257.879529471372,0,1283,180,39.2692318266112,26.7515332980407,39.2760639052245,33.5674645585888,60325.3293797749,1006,76803.6520986747,6.38950317360933,3.16212594672671,0.758336354222997,78.125,3.01270525123925,193.696093163035,305.418929323611,236.185311498556,0,2080,298,24.1445872680648,14.3851844685033,24.1491220264132,11.9835541584525,30540.8169265801,900,38293.3610551557,8.38113458249307,2.14388716742751,0.809015476143744,102.5390625,1.29651156093413,close
354.228244274809,415.690835829185,217.617491522331,466,2252,259,25.1707132029863,18.7793957605144,25.1803254892221,27.5330149876556,18053.7493840246,466,24601.0084462739,4.48351567016287,2.90401405133008,0.712807067797855,93.75,1.49626737373816,78.1286804798255,92.294004172031,49.160227468368,98,1068,241,14.7341031637673,11.1563092032379,14.742128974938,16.9891984428586,7944.20528546165,346,10230.3355393691,3.68204777488105,2.29791872660281,0.73795746440055,105.46875,0.452234707799646,close
491.788407163054,503.433284658246,107.678682776915,526,1616,360,34.1721680986779,26.5225934978289,34.1802147780224,43.9065587905067,46456.8677911656,812,56280.9434023929,3.52414229407219,3.41483437771607,0.81813047257854,105.46875,2.60065759053441,256.593345656192,267.767136466621,76.5624132193719,285,1599,423,6.54598409539105,4.99276892852257,6.54749688437846,7.58789607775599,9524.72580201066,804,10804.3519613228,3.73516460008004,1.64358775663226,0.868644671533896,50.78125,0.0857993489815489,ok
232.736909323116,244.958189671423,76.4315125225188,267,1400,379,14.0530189222756,10.7055800412289,14.0574839844791,16.831717554847,12424.6201084206,554,16764.9383445645,3.9289211197019,2.28989540629543,0.721612405322683,74.21875,0.406136605449509,119.050407709414,126.401612647002,42.493607236747,140,1088,292,1.72788538906528,1.23889532841488,1.72851876920929,1.73352940736344,1435.48416426843,411,1671.26979803168,5.09123894773739,0.852653091284176,0.919305531916834,83.984375,0.00561925665070928,ok
267.655749636099,280.172356756584,82.8368475595474,293,1573,371,20.6334843960154,16.0629864361972,20.6409936495256,26.1793567370273,17575.0214357581,503,22070.5433633349,3.51739651005071,2.76687084426937,0.78056493458476,85.9375,0.965921302153923,59.5139103554869,89.0094684368269,66.2130502228183,5,1212,180,14.1591258838116,9.28428195469247,14.1646000308167,12.4707258655811,9680.75763259626,496,12013.8608493721,8.67314681057102,2.00167223695163,0.740950990363428,46.875,0.47295315092744,point
