# OpenSignals Text File Format. Version 1
# {"98:D3:31:B2:12:BA": {"position": 0, "device": "bitalino", "device name": "98:D3:31:B2:12:BA", "device connection": "BTH98:D3:31:B2:12:BA", "sampling rate": 1000, "resolution": [4, 1, 1, 1, 1, 10, 10, 10, 10], "firmware version": 771, "comments": "", "keywords": "", "mode": 0, "sync interval": 2, "date": "2022-7-28", "time": "12:57:12.510", "channels": [1, 2, 3, 4], "sensor": ["EMGBIT", "EMGBIT", "RAW", "RAW"], "label": ["A1", "A2", "A3", "A4"], "column": ["nSeq", "I1", "I2", "I3", "I4", "A1", "A2", "A3", "A4"], "special": [{}, {}, {}, {}], "digital IO": [0, 0, 0, 0, 1, 1, 1, 1]}}
# EndOfHeader
0	0	0	0	0	472	508	0	0	
1	0	0	0	0	476	510	0	0	
2	0	0	0	0	480	510	0	0	
3	0	0	0	0	480	511	0	0	
4	0	0	0	0	483	510	0	0	
5	0	0	0	0	483	508	0	0	
6	0	0	0	0	483	511	0	0	
7	0	0	0	0	487	511	0	0	
8	0	0	0	0	480	511	0	0	
9	0	0	0	0	472	510	0	0	
10	0	0	0	0	480	508	0	0	
11	0	0	0	0	487	505	0	0	
12	0	0	0	0	487	508	0	0	
13	0	0	0	0	467	508	0	0	
14	0	0	0	0	465	508	0	0	
15	0	0	0	0	472	511	0	0	
0	0	0	0	0	467	511	0	0	
1	0	0	0	0	473	508	0	0	
2	0	0	0	0	463	511	0	0	
3	0	0	0	0	463	508	0	0	
4	0	0	0	0	467	512	0	0	
5	0	0	0	0	467	511	0	0	
6	0	0	0	0	473	512	0	0	
7	0	0	0	0	473	510	0	0	
8	0	0	0	0	472	510	0	0	
9	0	0	0	0	476	512	0	0	
10	0	0	0	0	480	511	0	0	
11	0	0	0	0	476	510	0	0	
12	0	0	0	0	472	511	0	0	
13	0	0	0	0	478	511	0	0	
14	0	0	0	0	480	510	0	0	
15	0	0	0	0	480	508	0	0	
0	0	0	0	0	480	510	0	0	
1	0	0	0	0	478	508	0	0	
2	0	0	0	0	476	508	0	0	
3	0	0	0	0	472	508	0	0	
4	0	0	0	0	472	508	0	0	
5	0	0	0	0	472	510	0	0	
6	0	0	0	0	472	508	0	0	
7	0	0	0	0	472	508	0	0	
8	0	0	0	0	473	510	0	0	
9	0	0	0	0	476	510	0	0	
10	0	0	0	0	480	511	0	0	
11	0	0	0	0	480	510	0	0	
12	0	0	0	0	480	511	0	0	
13	0	0	0	0	480	510	0	0	
14	0	0	0	0	481	512	0	0	
15	0	0	0	0	478	512	0	0	
0	0	0	0	0	476	511	0	0	
1	0	0	0	0	472	508	0	0	
2	0	0	0	0	472	510	0	0	
3	0	0	0	0	476	508	0	0	
4	0	0	0	0	472	511	0	0	
5	0	0	0	0	478	508	0	0	
6	0	0	0	0	483	510	0	0	
7	0	0	0	0	480	510	0	0	
8	0	0	0	0	481	510	0	0	
9	0	0	0	0	480	508	0	0	
10	0	0	0	0	472	510	0	0	
11	0	0	0	0	473	510	0	0	
12	0	0	0	0	487	510	0	0	
13	0	0	0	0	492	508	0	0	
14	0	0	0	0	472	511	0	0	
15	0	0	0	0	460	508	0	0	
0	0	0	0	0	463	510	0	0	
1	0	0	0	0	463	508	0	0	
2	0	0	0	0	481	508	0	0	
3	0	0	0	0	496	508	0	0	
4	0	0	0	0	497	510	0	0	
5	0	0	0	0	499	508	0	0	
6	0	0	0	0	496	508	0	0	
7	0	0	0	0	487	508	0	0	
8	0	0	0	0	478	510	0	0	
9	0	0	0	0	480	511	0	0	
10	0	0	0	0	472	510	0	0	
11	0	0	0	0	455	505	0	0	
12	0	0	0	0	451	510	0	0	
13	0	0	0	0	455	508	0	0	
14	0	0	0	0	463	508	0	0	
15	0	0	0	0	463	508	0	0	
0	0	0	0	0	463	510	0	0	
1	0	0	0	0	467	512	0	0	
2	0	0	0	0	478	511	0	0	
3	0	0	0	0	481	510	0	0	
4	0	0	0	0	487	508	0	0	
5	0	0	0	0	487	510	0	0	
6	0	0	0	0	483	508	0	0	
7	0	0	0	0	483	508	0	0	
8	0	0	0	0	480	510	0	0	
9	0	0	0	0	478	510	0	0	
10	0	0	0	0	480	510	0	0	
11	0	0	0	0	478	508	0	0	
12	0	0	0	0	480	508	0	0	
13	0	0	0	0	480	510	0	0	
14	0	0	0	0	480	508	0	0	
15	0	0	0	0	483	510	0	0	
0	0	0	0	0	486	510	0	0	
1	0	0	0	0	480	508	0	0	
2	0	0	0	0	473	511	0	0	
3	0	0	0	0	472	508	0	0	
4	0	0	0	0	467	508	0	0	
5	0	0	0	0	463	511	0	0	
6	0	0	0	0	463	511	0	0	
7	0	0	0	0	463	512	0	0	
8	0	0	0	0	463	512	0	0	
9	0	0	0	0	472	510	0	0	
10	0	0	0	0	480	510	0	0	
11	0	0	0	0	487	512	0	0	
12	0	0	0	0	487	511	0	0	
13	0	0	0	0	487	511	0	0	
14	0	0	0	0	487	508	0	0	
15	0	0	0	0	483	512	0	0	
0	0	0	0	0	483	508	0	0	
1	0	0	0	0	480	508	0	0	
2	0	0	0	0	472	508	0	0	
3	0	0	0	0	455	505	0	0	
4	0	0	0	0	451	504	0	0	
5	0	0	0	0	455	504	0	0	
6	0	0	0	0	448	510	0	0	
7	0	0	0	0	451	512	0	0	
8	0	0	0	0	455	511	0	0	
9	0	0	0	0	462	510	0	0	
10	0	0	0	0	467	511	0	0	
11	0	0	0	0	480	510	0	0	
12	0	0	0	0	483	512	0	0	
13	0	0	0	0	480	511	0	0	
14	0	0	0	0	480	512	0	0	
15	0	0	0	0	481	508	0	0	
0	0	0	0	0	480	508	0	0	
1	0	0	0	0	480	510	0	0	
2	0	0	0	0	476	510	0	0	
3	0	0	0	0	467	510	0	0	
4	0	0	0	0	462	510	0	0	
5	0	0	0	0	476	510	0	0	
6	0	0	0	0	481	508	0	0	
7	0	0	0	0	470	510	0	0	
8	0	0	0	0	462	508	0	0	
9	0	0	0	0	465	510	0	0	
10	0	0	0	0	481	510	0	0	
11	0	0	0	0	480	508	0	0	
12	0	0	0	0	473	510	0	0	
13	0	0	0	0	478	508	0	0	
14	0	0	0	0	478	508	0	0	
15	0	0	0	0	478	511	0	0	
0	0	0	0	0	480	510	0	0	
1	0	0	0	0	483	510	0	0	
2	0	0	0	0	487	510	0	0	
3	0	0	0	0	487	510	0	0	
4	0	0	0	0	481	510	0	0	
5	0	0	0	0	483	510	0	0	
6	0	0	0	0	483	508	0	0	
7	0	0	0	0	476	508	0	0	
8	0	0	0	0	467	508	0	0	
9	0	0	0	0	465	510	0	0	
10	0	0	0	0	472	508	0	0	
11	0	0	0	0	472	510	0	0	
12	0	0	0	0	472	508	0	0	
13	0	0	0	0	467	508	0	0	
14	0	0	0	0	462	510	0	0	
15	0	0	0	0	460	504	0	0	
0	0	0	0	0	462	511	0	0	
1	0	0	0	0	476	511	0	0	
2	0	0	0	0	483	511	0	0	
3	0	0	0	0	487	511	0	0	
4	0	0	0	0	487	511	0	0	
5	0	0	0	0	487	510	0	0	
6	0	0	0	0	492	510	0	0	
7	0	0	0	0	492	511	0	0	
8	0	0	0	0	483	510	0	0	
9	0	0	0	0	481	508	0	0	
10	0	0	0	0	483	510	0	0	
11	0	0	0	0	481	511	0	0	
12	0	0	0	0	480	511	0	0	
13	0	0	0	0	473	510	0	0	
14	0	0	0	0	472	508	0	0	
15	0	0	0	0	472	510	0	0	
0	0	0	0	0	467	510	0	0	
1	0	0	0	0	465	508	0	0	
2	0	0	0	0	465	510	0	0	
3	0	0	0	0	463	511	0	0	
4	0	0	0	0	472	510	0	0	
5	0	0	0	0	480	512	0	0	
6	0	0	0	0	480	511	0	0	
7	0	0	0	0	480	511	0	0	
8	0	0	0	0	481	512	0	0	
9	0	0	0	0	476	511	0	0	
10	0	0	0	0	460	511	0	0	
11	0	0	0	0	462	511	0	0	
12	0	0	0	0	472	510	0	0	
13	0	0	0	0	480	512	0	0	
14	0	0	0	0	483	510	0	0	
15	0	0	0	0	483	510	0	0	
0	0	0	0	0	480	511	0	0	
1	0	0	0	0	483	508	0	0	
2	0	0	0	0	487	504	0	0	
3	0	0	0	0	487	508	0	0	
4	0	0	0	0	480	508	0	0	
5	0	0	0	0	472	508	0	0	
6	0	0	0	0	470	511	0	0	
7	0	0	0	0	465	511	0	0	
8	0	0	0	0	455	511	0	0	
9	0	0	0	0	455	511	0	0	
10	0	0	0	0	460	504	0	0	
11	0	0	0	0	448	504	0	0	
12	0	0	0	0	448	508	0	0	
13	0	0	0	0	463	508	0	0	
14	0	0	0	0	467	511	0	0	
15	0	0	0	0	467	511	0	0	
0	0	0	0	0	467	512	0	0	
1	0	0	0	0	483	511	0	0	
2	0	0	0	0	489	510	0	0	
3	0	0	0	0	487	508	0	0	
4	0	0	0	0	480	510	0	0	
5	0	0	0	0	476	510	0	0	
6	0	0	0	0	472	508	0	0	
7	0	0	0	0	472	508	0	0	
8	0	0	0	0	472	508	0	0	
9	0	0	0	0	480	511	0	0	
10	0	0	0	0	476	510	0	0	
11	0	0	0	0	472	510	0	0	
12	0	0	0	0	463	508	0	0	
13	0	0	0	0	467	511	0	0	
14	0	0	0	0	467	511	0	0	
15	0	0	0	0	472	511	0	0	
0	0	0	0	0	476	511	0	0	
1	0	0	0	0	476	511	0	0	
2	0	0	0	0	480	508	0	0	
3	0	0	0	0	481	510	0	0	
4	0	0	0	0	499	508	0	0	
5	0	0	0	0	504	511	0	0	
6	0	0	0	0	487	510	0	0	
7	0	0	0	0	487	508	0	0	
8	0	0	0	0	487	510	0	0	
9	0	0	0	0	480	508	0	0	
10	0	0	0	0	480	510	0	0	
11	0	0	0	0	483	510	0	0	
12	0	0	0	0	478	510	0	0	
13	0	0	0	0	455	508	0	0	
14	0	0	0	0	449	508	0	0	
15	0	0	0	0	455	508	0	0	
0	0	0	0	0	462	505	0	0	
1	0	0	0	0	463	508	0	0	
2	0	0	0	0	481	508	0	0	
3	0	0	0	0	486	510	0	0	
4	0	0	0	0	483	510	0	0	
5	0	0	0	0	480	511	0	0	
6	0	0	0	0	480	508	0	0	
7	0	0	0	0	472	508	0	0	
8	0	0	0	0	480	510	0	0	
9	0	0	0	0	481	508	0	0	
10	0	0	0	0	483	510	0	0	
11	0	0	0	0	480	505	0	0	
12	0	0	0	0	476	508	0	0	
13	0	0	0	0	472	508	0	0	
14	0	0	0	0	462	510	0	0	
15	0	0	0	0	463	511	0	0	
0	0	0	0	0	467	508	0	0	
1	0	0	0	0	467	511	0	0	
2	0	0	0	0	472	511	0	0	
3	0	0	0	0	467	510	0	0	
4	0	0	0	0	465	510	0	0	
5	0	0	0	0	472	510	0	0	
6	0	0	0	0	472	511	0	0	
7	0	0	0	0	478	512	0	0	
8	0	0	0	0	480	511	0	0	
9	0	0	0	0	480	512	0	0	
10	0	0	0	0	480	512	0	0	
11	0	0	0	0	480	511	0	0	
12	0	0	0	0	483	510	0	0	
13	0	0	0	0	483	510	0	0	
14	0	0	0	0	480	508	0	0	
15	0	0	0	0	476	511	0	0	
0	0	0	0	0	486	510	0	0	
1	0	0	0	0	487	508	0	0	
2	0	0	0	0	481	508	0	0	
3	0	0	0	0	476	510	0	0	
4	0	0	0	0	467	508	0	0	
5	0	0	0	0	467	508	0	0	
6	0	0	0	0	470	508	0	0	
7	0	0	0	0	467	508	0	0	
8	0	0	0	0	472	510	0	0	
9	0	0	0	0	480	512	0	0	
10	0	0	0	0	478	508	0	0	
11	0	0	0	0	480	508	0	0	
12	0	0	0	0	480	510	0	0	
13	0	0	0	0	480	510	0	0	
14	0	0	0	0	480	508	0	0	
15	0	0	0	0	480	508	0	0	
0	0	0	0	0	480	511	0	0	
1	0	0	0	0	487	511	0	0	
2	0	0	0	0	487	510	0	0	
3	0	0	0	0	481	511	0	0	
4	0	0	0	0	480	508	0	0	
5	0	0	0	0	476	510	0	0	
6	0	0	0	0	472	508	0	0	
7	0	0	0	0	465	510	0	0	
8	0	0	0	0	463	510	0	0	
9	0	0	0	0	467	512	0	0	
10	0	0	0	0	465	508	0	0	
11	0	0	0	0	463	510	0	0	
12	0	0	0	0	463	510	0	0	
13	0	0	0	0	462	512	0	0	
14	0	0	0	0	463	510	0	0	
15	0	0	0	0	465	508	0	0	
0	0	0	0	0	472	508	0	0	
1	0	0	0	0	476	511	0	0	
2	0	0	0	0	480	510	0	0	
3	0	0	0	0	492	508	0	0	
4	0	0	0	0	504	511	0	0	
5	0	0	0	0	511	510	0	0	
6	0	0	0	0	487	510	0	0	
7	0	0	0	0	467	508	0	0	
8	0	0	0	0	472	511	0	0	
9	0	0	0	0	472	508	0	0	
10	0	0	0	0	463	510	0	0	
11	0	0	0	0	462	508	0	0	
12	0	0	0	0	465	508	0	0	
13	0	0	0	0	472	508	0	0	
14	0	0	0	0	472	511	0	0	
15	0	0	0	0	465	510	0	0	
0	0	0	0	0	472	511	0	0	
1	0	0	0	0	472	510	0	0	
2	0	0	0	0	472	508	0	0	
3	0	0	0	0	467	511	0	0	
4	0	0	0	0	472	511	0	0	
5	0	0	0	0	472	511	0	0	
6	0	0	0	0	470	508	0	0	
7	0	0	0	0	478	510	0	0	
8	0	0	0	0	480	508	0	0	
9	0	0	0	0	481	510	0	0	
10	0	0	0	0	487	511	0	0	
11	0	0	0	0	480	510	0	0	
12	0	0	0	0	472	510	0	0	
13	0	0	0	0	473	511	0	0	
14	0	0	0	0	483	508	0	0	
15	0	0	0	0	487	510	0	0	
0	0	0	0	0	472	510	0	0	
1	0	0	0	0	467	510	0	0	
2	0	0	0	0	472	510	0	0	
3	0	0	0	0	472	510	0	0	
4	0	0	0	0	472	505	0	0	
5	0	0	0	0	473	511	0	0	
6	0	0	0	0	476	511	0	0	
7	0	0	0	0	472	511	0	0	
8	0	0	0	0	476	510	0	0	
9	0	0	0	0	480	510	0	0	
10	0	0	0	0	480	510	0	0	
11	0	0	0	0	480	508	0	0	
12	0	0	0	0	483	508	0	0	
13	0	0	0	0	483	510	0	0	
14	0	0	0	0	472	510	0	0	
15	0	0	0	0	472	512	0	0	
0	0	0	0	0	480	512	0	0	
1	0	0	0	0	480	511	0	0	
2	0	0	0	0	467	511	0	0	
3	0	0	0	0	462	508	0	0	
4	0	0	0	0	463	510	0	0	
5	0	0	0	0	467	508	0	0	
6	0	0	0	0	480	508	0	0	
7	0	0	0	0	472	505	0	0	
8	0	0	0	0	463	510	0	0	
9	0	0	0	0	467	510	0	0	
10	0	0	0	0	472	508	0	0	
11	0	0	0	0	483	508	0	0	
12	0	0	0	0	483	508	0	0	
13	0	0	0	0	483	508	0	0	
14	0	0	0	0	480	508	0	0	
15	0	0	0	0	483	510	0	0	
0	0	0	0	0	496	511	0	0	
1	0	0	0	0	494	512	0	0	
2	0	0	0	0	487	510	0	0	
3	0	0	0	0	478	505	0	0	
4	0	0	0	0	467	510	0	0	
5	0	0	0	0	467	508	0	0	
6	0	0	0	0	472	508	0	0	
7	0	0	0	0	472	508	0	0	
8	0	0	0	0	467	510	0	0	
9	0	0	0	0	472	508	0	0	
10	0	0	0	0	472	508	0	0	
11	0	0	0	0	463	511	0	0	
12	0	0	0	0	467	511	0	0	
13	0	0	0	0	472	508	0	0	
14	0	0	0	0	472	510	0	0	
15	0	0	0	0	472	510	0	0	
0	0	0	0	0	472	511	0	0	
1	0	0	0	0	473	510	0	0	
2	0	0	0	0	480	511	0	0	
3	0	0	0	0	483	511	0	0	
4	0	0	0	0	473	512	0	0	
5	0	0	0	0	467	512	0	0	
6	0	0	0	0	472	508	0	0	
7	0	0	0	0	480	510	0	0	
8	0	0	0	0	496	510	0	0	
9	0	0	0	0	492	508	0	0	
10	0	0	0	0	481	508	0	0	
11	0	0	0	0	480	508	0	0	
12	0	0	0	0	478	508	0	0	
13	0	0	0	0	476	510	0	0	
14	0	0	0	0	472	510	0	0	
15	0	0	0	0	472	508	0	0	
0	0	0	0	0	467	508	0	0	
1	0	0	0	0	467	511	0	0	
2	0	0	0	0	476	511	0	0	
3	0	0	0	0	476	508	0	0	
4	0	0	0	0	480	510	0	0	
5	0	0	0	0	480	510	0	0	
6	0	0	0	0	483	508	0	0	
7	0	0	0	0	480	508	0	0	
8	0	0	0	0	480	510	0	0	
9	0	0	0	0	486	511	0	0	
10	0	0	0	0	483	510	0	0	
11	0	0	0	0	487	511	0	0	
12	0	0	0	0	487	511	0	0	
13	0	0	0	0	483	512	0	0	
14	0	0	0	0	483	510	0	0	
15	0	0	0	0	480	511	0	0	
0	0	0	0	0	472	511	0	0	
1	0	0	0	0	462	510	0	0	
2	0	0	0	0	455	512	0	0	
3	0	0	0	0	455	510	0	0	
4	0	0	0	0	448	508	0	0	
5	0	0	0	0	440	508	0	0	
6	0	0	0	0	451	508	0	0	
7	0	0	0	0	463	512	0	0	
8	0	0	0	0	478	511	0	0	
9	0	0	0	0	492	510	0	0	
10	0	0	0	0	487	508	0	0	
11	0	0	0	0	481	510	0	0	
12	0	0	0	0	481	508	0	0	
13	0	0	0	0	483	508	0	0	
14	0	0	0	0	483	505	0	0	
15	0	0	0	0	481	508	0	0	
0	0	0	0	0	480	508	0	0	
1	0	0	0	0	480	510	0	0	
2	0	0	0	0	472	510	0	0	
3	0	0	0	0	467	510	0	0	
4	0	0	0	0	463	508	0	0	
5	0	0	0	0	463	511	0	0	
6	0	0	0	0	463	511	0	0	
7	0	0	0	0	463	510	0	0	
8	0	0	0	0	465	508	0	0	
9	0	0	0	0	472	508	0	0	
10	0	0	0	0	476	512	0	0	
11	0	0	0	0	480	511	0	0	
12	0	0	0	0	480	512	0	0	
13	0	0	0	0	481	510	0	0	
14	0	0	0	0	486	511	0	0	
15	0	0	0	0	487	511	0	0	
0	0	0	0	0	487	511	0	0	
1	0	0	0	0	481	510	0	0	
2	0	0	0	0	486	510	0	0	
3	0	0	0	0	483	510	0	0	
4	0	0	0	0	478	508	0	0	
5	0	0	0	0	476	508	0	0	
6	0	0	0	0	472	508	0	0	
7	0	0	0	0	463	508	0	0	
8	0	0	0	0	455	512	0	0	
9	0	0	0	0	455	511	0	0	
10	0	0	0	0	465	510	0	0	
11	0	0	0	0	473	510	0	0	
12	0	0	0	0	472	511	0	0	
13	0	0	0	0	472	508	0	0	
14	0	0	0	0	472	510	0	0	
15	0	0	0	0	470	508	0	0	
0	0	0	0	0	480	510	0	0	
1	0	0	0	0	480	512	0	0	
2	0	0	0	0	476	512	0	0	
3	0	0	0	0	481	512	0	0	
4	0	0	0	0	487	511	0	0	
5	0	0	0	0	483	511	0	0	
6	0	0	0	0	480	508	0	0	
7	0	0	0	0	480	505	0	0	
8	0	0	0	0	476	510	0	0	
9	0	0	0	0	476	508	0	0	
10	0	0	0	0	487	510	0	0	
11	0	0	0	0	496	510	0	0	
12	0	0	0	0	481	508	0	0	
13	0	0	0	0	480	508	0	0	
14	0	0	0	0	483	510	0	0	
15	0	0	0	0	480	510	0	0	
0	0	0	0	0	476	510	0	0	
1	0	0	0	0	480	510	0	0	
2	0	0	0	0	476	510	0	0	
3	0	0	0	0	480	511	0	0	
4	0	0	0	0	483	512	0	0	
5	0	0	0	0	483	512	0	0	
6	0	0	0	0	472	510	0	0	
7	0	0	0	0	460	510	0	0	
8	0	0	0	0	455	508	0	0	
9	0	0	0	0	463	510	0	0	
10	0	0	0	0	476	510	0	0	
11	0	0	0	0	480	508	0	0	
12	0	0	0	0	480	508	0	0	
13	0	0	0	0	478	508	0	0	
14	0	0	0	0	473	511	0	0	
15	0	0	0	0	472	510	0	0	
0	0	0	0	0	462	508	0	0	
1	0	0	0	0	455	510	0	0	
2	0	0	0	0	463	510	0	0	
3	0	0	0	0	472	511	0	0	
4	0	0	0	0	472	510	0	0	
5	0	0	0	0	467	508	0	0	
6	0	0	0	0	472	508	0	0	
7	0	0	0	0	480	508	0	0	
8	0	0	0	0	487	508	0	0	
9	0	0	0	0	492	508	0	0	
10	0	0	0	0	483	510	0	0	
11	0	0	0	0	480	510	0	0	
12	0	0	0	0	483	510	0	0	
13	0	0	0	0	483	510	0	0	
14	0	0	0	0	480	508	0	0	
15	0	0	0	0	472	508	0	0	
0	0	0	0	0	472	508	0	0	
1	0	0	0	0	467	510	0	0	
2	0	0	0	0	467	508	0	0	
3	0	0	0	0	467	510	0	0	
4	0	0	0	0	463	508	0	0	
5	0	0	0	0	460	508	0	0	
6	0	0	0	0	455	511	0	0	
7	0	0	0	0	455	508	0	0	
8	0	0	0	0	455	511	0	0	
9	0	0	0	0	463	511	0	0	
10	0	0	0	0	480	511	0	0	
11	0	0	0	0	483	512	0	0	
12	0	0	0	0	487	511	0	0	
13	0	0	0	0	486	510	0	0	
14	0	0	0	0	481	511	0	0	
15	0	0	0	0	481	511	0	0	
0	0	0	0	0	480	511	0	0	
1	0	0	0	0	480	510	0	0	
2	0	0	0	0	480	508	0	0	
3	0	0	0	0	478	508	0	0	
4	0	0	0	0	472	508	0	0	
5	0	0	0	0	472	508	0	0	
6	0	0	0	0	472	508	0	0	
7	0	0	0	0	472	508	0	0	
8	0	0	0	0	467	508	0	0	
9	0	0	0	0	465	504	0	0	
10	0	0	0	0	465	510	0	0	
11	0	0	0	0	463	508	0	0	
12	0	0	0	0	463	508	0	0	
13	0	0	0	0	470	508	0	0	
14	0	0	0	0	467	508	0	0	
15	0	0	0	0	472	508	0	0	
0	0	0	0	0	478	511	0	0	
1	0	0	0	0	483	511	0	0	
2	0	0	0	0	486	511	0	0	
3	0	0	0	0	487	510	0	0	
4	0	0	0	0	486	511	0	0	
5	0	0	0	0	481	511	0	0	
6	0	0	0	0	481	508	0	0	
7	0	0	0	0	476	508	0	0	
8	0	0	0	0	472	508	0	0	
9	0	0	0	0	473	508	0	0	
10	0	0	0	0	472	508	0	0	
11	0	0	0	0	472	508	0	0	
12	0	0	0	0	467	508	0	0	
13	0	0	0	0	463	510	0	0	
14	0	0	0	0	455	508	0	0	
15	0	0	0	0	451	508	0	0	
0	0	0	0	0	448	508	0	0	
1	0	0	0	0	449	508	0	0	
2	0	0	0	0	476	510	0	0	
3	0	0	0	0	480	511	0	0	
4	0	0	0	0	476	511	0	0	
5	0	0	0	0	487	512	0	0	
6	0	0	0	0	487	511	0	0	
7	0	0	0	0	487	511	0	0	
8	0	0	0	0	478	511	0	0	
9	0	0	0	0	476	510	0	0	
10	0	0	0	0	480	511	0	0	
11	0	0	0	0	478	510	0	0	
12	0	0	0	0	481	510	0	0	
13	0	0	0	0	487	513	0	0	
14	0	0	0	0	480	510	0	0	
15	0	0	0	0	476	510	0	0	
0	0	0	0	0	476	510	0	0	
1	0	0	0	0	472	505	0	0	
2	0	0	0	0	467	510	0	0	
3	0	0	0	0	472	508	0	0	
4	0	0	0	0	473	512	0	0	
5	0	0	0	0	472	511	0	0	
6	0	0	0	0	463	510	0	0	
7	0	0	0	0	463	512	0	0	
8	0	0	0	0	463	510	0	0	
9	0	0	0	0	476	511	0	0	
10	0	0	0	0	496	510	0	0	
11	0	0	0	0	504	508	0	0	
12	0	0	0	0	496	510	0	0	
13	0	0	0	0	492	510	0	0	
14	0	0	0	0	483	510	0	0	
15	0	0	0	0	480	508	0	0	
0	0	0	0	0	480	508	0	0	
1	0	0	0	0	472	508	0	0	
2	0	0	0	0	467	508	0	0	
3	0	0	0	0	472	504	0	0	
4	0	0	0	0	467	508	0	0	
5	0	0	0	0	467	508	0	0	
6	0	0	0	0	472	508	0	0	
7	0	0	0	0	472	510	0	0	
8	0	0	0	0	467	512	0	0	
9	0	0	0	0	478	508	0	0	
10	0	0	0	0	483	511	0	0	
11	0	0	0	0	483	511	0	0	
12	0	0	0	0	487	510	0	0	
13	0	0	0	0	492	511	0	0	
14	0	0	0	0	492	512	0	0	
15	0	0	0	0	480	512	0	0	
0	0	0	0	0	463	512	0	0	
1	0	0	0	0	462	511	0	0	
2	0	0	0	0	463	508	0	0	
3	0	0	0	0	463	510	0	0	
4	0	0	0	0	455	510	0	0	
5	0	0	0	0	455	511	0	0	
6	0	0	0	0	463	510	0	0	
7	0	0	0	0	473	508	0	0	
8	0	0	0	0	483	505	0	0	
9	0	0	0	0	472	508	0	0	
10	0	0	0	0	463	508	0	0	
11	0	0	0	0	463	508	0	0	
12	0	0	0	0	463	508	0	0	
13	0	0	0	0	465	510	0	0	
14	0	0	0	0	472	511	0	0	
15	0	0	0	0	478	510	0	0	
0	0	0	0	0	480	510	0	0	
1	0	0	0	0	476	508	0	0	
2	0	0	0	0	476	510	0	0	
3	0	0	0	0	476	510	0	0	
4	0	0	0	0	472	511	0	0	
5	0	0	0	0	472	510	0	0	
6	0	0	0	0	483	508	0	0	
7	0	0	0	0	486	508	0	0	
8	0	0	0	0	480	504	0	0	
9	0	0	0	0	480	508	0	0	
10	0	0	0	0	472	508	0	0	
11	0	0	0	0	472	508	0	0	
12	0	0	0	0	472	511	0	0	
13	0	0	0	0	476	512	0	0	
14	0	0	0	0	480	513	0	0	
15	0	0	0	0	478	510	0	0	
0	0	0	0	0	472	508	0	0	
1	0	0	0	0	472	508	0	0	
2	0	0	0	0	473	510	0	0	
3	0	0	0	0	472	511	0	0	
4	0	0	0	0	465	508	0	0	
5	0	0	0	0	472	511	0	0	
6	0	0	0	0	487	510	0	0	
7	0	0	0	0	508	508	0	0	
8	0	0	0	0	497	511	0	0	
9	0	0	0	0	492	512	0	0	
10	0	0	0	0	486	511	0	0	
11	0	0	0	0	480	510	0	0	
12	0	0	0	0	476	508	0	0	
13	0	0	0	0	480	508	0	0	
14	0	0	0	0	478	511	0	0	
15	0	0	0	0	476	510	0	0	
0	0	0	0	0	476	508	0	0	
1	0	0	0	0	467	512	0	0	
2	0	0	0	0	462	508	0	0	
3	0	0	0	0	455	508	0	0	
4	0	0	0	0	462	511	0	0	
5	0	0	0	0	463	511	0	0	
6	0	0	0	0	463	510	0	0	
7	0	0	0	0	465	510	0	0	
8	0	0	0	0	465	508	0	0	
9	0	0	0	0	463	508	0	0	
10	0	0	0	0	472	510	0	0	
11	0	0	0	0	473	511	0	0	
12	0	0	0	0	481	512	0	0	
13	0	0	0	0	483	510	0	0	
14	0	0	0	0	480	508	0	0	
15	0	0	0	0	476	510	0	0	
0	0	0	0	0	472	510	0	0	
1	0	0	0	0	472	508	0	0	
2	0	0	0	0	478	510	0	0	
3	0	0	0	0	480	505	0	0	
4	0	0	0	0	473	508	0	0	
5	0	0	0	0	472	508	0	0	
6	0	0	0	0	467	511	0	0	
7	0	0	0	0	472	511	0	0	
8	0	0	0	0	472	510	0	0	
9	0	0	0	0	472	510	0	0	
10	0	0	0	0	472	511	0	0	
11	0	0	0	0	467	510	0	0	
12	0	0	0	0	472	511	0	0	
13	0	0	0	0	478	512	0	0	
14	0	0	0	0	481	510	0	0	
15	0	0	0	0	480	510	0	0	
0	0	0	0	0	483	512	0	0	
1	0	0	0	0	483	511	0	0	
2	0	0	0	0	499	508	0	0	
3	0	0	0	0	508	510	0	0	
4	0	0	0	0	492	510	0	0	
5	0	0	0	0	480	511	0	0	
6	0	0	0	0	472	508	0	0	
7	0	0	0	0	460	508	0	0	
8	0	0	0	0	462	510	0	0	
9	0	0	0	0	462	508	0	0	
10	0	0	0	0	465	510	0	0	
11	0	0	0	0	463	508	0	0	
12	0	0	0	0	460	511	0	0	
13	0	0	0	0	463	510	0	0	
14	0	0	0	0	465	511	0	0	
15	0	0	0	0	472	511	0	0	
0	0	0	0	0	472	511	0	0	
1	0	0	0	0	472	511	0	0	
2	0	0	0	0	472	510	0	0	
3	0	0	0	0	463	510	0	0	
4	0	0	0	0	462	511	0	0	
5	0	0	0	0	472	511	0	0	
6	0	0	0	0	496	511	0	0	
7	0	0	0	0	497	510	0	0	
8	0	0	0	0	487	510	0	0	
9	0	0	0	0	480	508	0	0	
10	0	0	0	0	476	511	0	0	
11	0	0	0	0	480	510	0	0	
12	0	0	0	0	476	511	0	0	
13	0	0	0	0	476	510	0	0	
14	0	0	0	0	472	510	0	0	
15	0	0	0	0	472	511	0	0	
0	0	0	0	0	467	511	0	0	
1	0	0	0	0	467	508	0	0	
2	0	0	0	0	472	508	0	0	
3	0	0	0	0	480	510	0	0	
4	0	0	0	0	487	511	0	0	
5	0	0	0	0	487	510	0	0	
6	0	0	0	0	480	510	0	0	
7	0	0	0	0	480	511	0	0	
8	0	0	0	0	480	508	0	0	
9	0	0	0	0	476	508	0	0	
10	0	0	0	0	480	510	0	0	
11	0	0	0	0	487	510	0	0	
12	0	0	0	0	487	508	0	0	
13	0	0	0	0	487	508	0	0	
14	0	0	0	0	487	511	0	0	
15	0	0	0	0	480	508	0	0	
0	0	0	0	0	476	508	0	0	
1	0	0	0	0	472	512	0	0	
2	0	0	0	0	472	510	0	0	
3	0	0	0	0	472	508	0	0	
4	0	0	0	0	465	508	0	0	
5	0	0	0	0	472	508	0	0	
6	0	0	0	0	472	511	0	0	
7	0	0	0	0	467	508	0	0	
8	0	0	0	0	472	511	0	0	
9	0	0	0	0	472	511	0	0	
10	0	0	0	0	467	508	0	0	
11	0	0	0	0	467	510	0	0	
12	0	0	0	0	472	511	0	0	
13	0	0	0	0	478	510	0	0	
14	0	0	0	0	494	508	0	0	
15	0	0	0	0	505	508	0	0	
0	0	0	0	0	497	508	0	0	
1	0	0	0	0	494	508	0	0	
2	0	0	0	0	487	508	0	0	
3	0	0	0	0	481	510	0	0	
4	0	0	0	0	472	510	0	0	
5	0	0	0	0	463	508	0	0	
6	0	0	0	0	448	508	0	0	
7	0	0	0	0	440	508	0	0	
8	0	0	0	0	455	510	0	0	
9	0	0	0	0	460	508	0	0	
10	0	0	0	0	460	511	0	0	
11	0	0	0	0	460	508	0	0	
12	0	0	0	0	462	508	0	0	
13	0	0	0	0	467	508	0	0	
14	0	0	0	0	480	510	0	0	
15	0	0	0	0	480	508	0	0	
0	0	0	0	0	480	511	0	0	
1	0	0	0	0	487	510	0	0	
2	0	0	0	0	489	510	0	0	
3	0	0	0	0	481	505	0	0	
4	0	0	0	0	481	508	0	0	
5	0	0	0	0	480	508	0	0	
6	0	0	0	0	472	511	0	0	
7	0	0	0	0	472	508	0	0	
8	0	0	0	0	472	510	0	0	
9	0	0	0	0	476	505	0	0	
10	0	0	0	0	472	511	0	0	
11	0	0	0	0	472	510	0	0	
12	0	0	0	0	472	512	0	0	
13	0	0	0	0	472	512	0	0	
14	0	0	0	0	472	510	0	0	
15	0	0	0	0	473	510	0	0	
0	0	0	0	0	478	511	0	0	
1	0	0	0	0	480	511	0	0	
2	0	0	0	0	483	511	0	0	
3	0	0	0	0	487	512	0	0	
4	0	0	0	0	487	510	0	0	
5	0	0	0	0	486	511	0	0	
6	0	0	0	0	486	510	0	0	
7	0	0	0	0	483	510	0	0	
8	0	0	0	0	480	511	0	0	
9	0	0	0	0	480	508	0	0	
10	0	0	0	0	472	510	0	0	
11	0	0	0	0	472	508	0	0	
12	0	0	0	0	472	511	0	0	
13	0	0	0	0	470	511	0	0	
14	0	0	0	0	460	508	0	0	
15	0	0	0	0	451	510	0	0	
0	0	0	0	0	455	510	0	0	
1	0	0	0	0	460	508	0	0	
2	0	0	0	0	467	508	0	0	
3	0	0	0	0	480	512	0	0	
4	0	0	0	0	492	510	0	0	
5	0	0	0	0	496	508	0	0	
6	0	0	0	0	478	510	0	0	
7	0	0	0	0	472	508	0	0	
8	0	0	0	0	481	510	0	0	
9	0	0	0	0	481	510	0	0	
10	0	0	0	0	480	510	0	0	
11	0	0	0	0	476	508	0	0	
12	0	0	0	0	480	508	0	0	
13	0	0	0	0	481	511	0	0	
14	0	0	0	0	476	510	0	0	
15	0	0	0	0	463	510	0	0	
0	0	0	0	0	460	511	0	0	
1	0	0	0	0	463	508	0	0	
2	0	0	0	0	465	504	0	0	
3	0	0	0	0	465	510	0	0	
4	0	0	0	0	462	508	0	0	
5	0	0	0	0	463	511	0	0	
6	0	0	0	0	467	511	0	0	
7	0	0	0	0	476	512	0	0	
8	0	0	0	0	486	511	0	0	
9	0	0	0	0	492	512	0	0	
10	0	0	0	0	494	510	0	0	
11	0	0	0	0	492	510	0	0	
12	0	0	0	0	487	510	0	0	
13	0	0	0	0	487	508	0	0	
14	0	0	0	0	487	510	0	0	
15	0	0	0	0	480	511	0	0	
0	0	0	0	0	472	511	0	0	
1	0	0	0	0	465	508	0	0	
2	0	0	0	0	460	510	0	0	
3	0	0	0	0	455	510	0	0	
4	0	0	0	0	462	512	0	0	
5	0	0	0	0	455	508	0	0	
6	0	0	0	0	455	508	0	0	
7	0	0	0	0	462	508	0	0	
8	0	0	0	0	472	508	0	0	
9	0	0	0	0	467	508	0	0	
10	0	0	0	0	472	511	0	0	
11	0	0	0	0	472	511	0	0	
12	0	0	0	0	480	512	0	0	
13	0	0	0	0	487	510	0	0	
14	0	0	0	0	487	510	0	0	
15	0	0	0	0	480	505	0	0	
0	0	0	0	0	476	510	0	0	
1	0	0	0	0	476	508	0	0	
2	0	0	0	0	480	510	0	0	
3	0	0	0	0	472	511	0	0	
4	0	0	0	0	472	508	0	0	
5	0	0	0	0	476	508	0	0	
6	0	0	0	0	476	512	0	0	
7	0	0	0	0	480	508	0	0	
8	0	0	0	0	483	508	0	0	
9	0	0	0	0	483	508	0	0	
10	0	0	0	0	476	510	0	0	
11	0	0	0	0	467	511	0	0	
12	0	0	0	0	462	508	0	0	
13	0	0	0	0	455	511	0	0	
14	0	0	0	0	463	511	0	0	
15	0	0	0	0	472	513	0	0	
0	0	0	0	0	480	511	0	0	
1	0	0	0	0	480	510	0	0	
2	0	0	0	0	492	508	0	0	
3	0	0	0	0	504	511	0	0	
4	0	0	0	0	494	508	0	0	
5	0	0	0	0	483	508	0	0	
6	0	0	0	0	480	508	0	0	
7	0	0	0	0	476	505	0	0	
8	0	0	0	0	476	505	0	0	
9	0	0	0	0	473	508	0	0	
10	0	0	0	0	467	510	0	0	
11	0	0	0	0	463	510	0	0	
12	0	0	0	0	463	505	0	0	
13	0	0	0	0	467	508	0	0	
14	0	0	0	0	472	505	0	0	
15	0	0	0	0	472	504	0	0	
0	0	0	0	0	467	508	0	0	
1	0	0	0	0	467	508	0	0	
2	0	0	0	0	472	508	0	0	
3	0	0	0	0	472	511	0	0	
4	0	0	0	0	480	508	0	0	
5	0	0	0	0	483	508	0	0	
6	0	0	0	0	480	510	0	0	
7	0	0	0	0	480	508	0	0	
8	0	0	0	0	487	511	0	0	
9	0	0	0	0	483	512	0	0	
10	0	0	0	0	478	510	0	0	
11	0	0	0	0	472	508	0	0	
12	0	0	0	0	467	508	0	0	
13	0	0	0	0	467	510	0	0	
14	0	0	0	0	462	511	0	0	
15	0	0	0	0	460	511	0	0	
0	0	0	0	0	472	508	0	0	
1	0	0	0	0	476	508	0	0	
2	0	0	0	0	472	512	0	0	
3	0	0	0	0	472	511	0	0	
4	0	0	0	0	480	510	0	0	
5	0	0	0	0	487	508	0	0	
6	0	0	0	0	487	508	0	0	
7	0	0	0	0	483	510	0	0	
8	0	0	0	0	481	505	0	0	
9	0	0	0	0	483	510	0	0	
10	0	0	0	0	480	511	0	0	
11	0	0	0	0	467	511	0	0	
12	0	0	0	0	460	512	0	0	
13	0	0	0	0	448	510	0	0	
14	0	0	0	0	463	510	0	0	
15	0	0	0	0	483	511	0	0	
0	0	0	0	0	487	508	0	0	
1	0	0	0	0	472	508	0	0	
2	0	0	0	0	465	508	0	0	
3	0	0	0	0	472	505	0	0	
4	0	0	0	0	470	511	0	0	
5	0	0	0	0	467	508	0	0	
6	0	0	0	0	476	510	0	0	
7	0	0	0	0	472	504	0	0	
8	0	0	0	0	472	505	0	0	
9	0	0	0	0	472	510	0	0	
10	0	0	0	0	472	508	0	0	
11	0	0	0	0	472	512	0	0	
12	0	0	0	0	478	511	0	0	
13	0	0	0	0	472	511	0	0	
14	0	0	0	0	470	511	0	0	
15	0	0	0	0	472	510	0	0	
0	0	0	0	0	476	512	0	0	
1	0	0	0	0	480	511	0	0	
2	0	0	0	0	481	511	0	0	
3	0	0	0	0	480	508	0	0	
4	0	0	0	0	481	510	0	0	
5	0	0	0	0	492	505	0	0	
6	0	0	0	0	492	504	0	0	
7	0	0	0	0	480	508	0	0	
8	0	0	0	0	472	510	0	0	
9	0	0	0	0	467	508	0	0	
10	0	0	0	0	463	510	0	0	
11	0	0	0	0	465	508	0	0	
12	0	0	0	0	463	510	0	0	
13	0	0	0	0	472	510	0	0	
14	0	0	0	0	480	511	0	0	
15	0	0	0	0	483	508	0	0	
0	0	0	0	0	492	508	0	0	
1	0	0	0	0	483	510	0	0	
2	0	0	0	0	480	511	0	0	
3	0	0	0	0	480	508	0	0	
4	0	0	0	0	476	511	0	0	
5	0	0	0	0	472	511	0	0	
6	0	0	0	0	467	508	0	0	
7	0	0	0	0	472	510	0	0	
8	0	0	0	0	473	511	0	0	
9	0	0	0	0	476	508	0	0	
10	0	0	0	0	472	511	0	0	
11	0	0	0	0	472	508	0	0	
12	0	0	0	0	467	512	0	0	
13	0	0	0	0	463	511	0	0	
14	0	0	0	0	462	510	0	0	
15	0	0	0	0	463	508	0	0	
0	0	0	0	0	467	511	0	0	
1	0	0	0	0	463	511	0	0	
2	0	0	0	0	463	510	0	0	
3	0	0	0	0	472	511	0	0	
4	0	0	0	0	478	510	0	0	
5	0	0	0	0	483	511	0	0	
6	0	0	0	0	487	510	0	0	
7	0	0	0	0	487	510	0	0	
8	0	0	0	0	483	511	0	0	
9	0	0	0	0	480	511	0	0	
10	0	0	0	0	483	508	0	0	
11	0	0	0	0	487	508	0	0	
12	0	0	0	0	487	508	0	0	
13	0	0	0	0	483	508	0	0	
14	0	0	0	0	480	510	0	0	
15	0	0	0	0	476	510	0	0	
0	0	0	0	0	473	508	0	0	
1	0	0	0	0	472	508	0	0	
2	0	0	0	0	467	508	0	0	
3	0	0	0	0	462	508	0	0	
4	0	0	0	0	448	508	0	0	
5	0	0	0	0	448	510	0	0	
6	0	0	0	0	467	511	0	0	
7	0	0	0	0	480	512	0	0	
8	0	0	0	0	483	511	0	0	
9	0	0	0	0	476	508	0	0	
10	0	0	0	0	472	508	0	0	
11	0	0	0	0	480	510	0	0	
12	0	0	0	0	481	512	0	0	
13	0	0	0	0	483	511	0	0	
14	0	0	0	0	483	511	0	0	
15	0	0	0	0	481	512	0	0	
0	0	0	0	0	480	511	0	0	
1	0	0	0	0	480	508	0	0	
2	0	0	0	0	480	508	0	0	
3	0	0	0	0	476	510	0	0	
4	0	0	0	0	472	510	0	0	
5	0	0	0	0	467	505	0	0	
6	0	0	0	0	463	510	0	0	
7	0	0	0	0	463	511	0	0	
8	0	0	0	0	455	508	0	0	
9	0	0	0	0	449	510	0	0	
10	0	0	0	0	449	510	0	0	
11	0	0	0	0	462	510	0	0	
12	0	0	0	0	472	510	0	0	
13	0	0	0	0	478	511	0	0	
14	0	0	0	0	480	511	0	0	
15	0	0	0	0	496	511	0	0	
0	0	0	0	0	511	512	0	0	
1	0	0	0	0	496	508	0	0	
2	0	0	0	0	476	508	0	0	
3	0	0	0	0	467	508	0	0	
4	0	0	0	0	467	508	0	0	
5	0	0	0	0	472	510	0	0	
6	0	0	0	0	473	510	0	0	
7	0	0	0	0	480	508	0	0	
8	0	0	0	0	480	504	0	0	
9	0	0	0	0	472	508	0	0	
10	0	0	0	0	476	508	0	0	
11	0	0	0	0	480	508	0	0	
12	0	0	0	0	476	510	0	0	
13	0	0	0	0	476	511	0	0	
14	0	0	0	0	478	510	0	0	
15	0	0	0	0	478	510	0	0	
0	0	0	0	0	480	510	0	0	
1	0	0	0	0	480	510	0	0	
2	0	0	0	0	480	511	0	0	
3	0	0	0	0	480	511	0	0	
4	0	0	0	0	480	510	0	0	
5	0	0	0	0	480	511	0	0	
6	0	0	0	0	480	511	0	0	
7	0	0	0	0	478	511	0	0	
8	0	0	0	0	480	508	0	0	
9	0	0	0	0	473	511	0	0	
10	0	0	0	0	465	511	0	0	
11	0	0	0	0	463	508	0	0	
12	0	0	0	0	467	508	0	0	
13	0	0	0	0	463	511	0	0	
14	0	0	0	0	460	510	0	0	
15	0	0	0	0	460	511	0	0	
0	0	0	0	0	460	510	0	0	
1	0	0	0	0	463	504	0	0	
2	0	0	0	0	476	504	0	0	
3	0	0	0	0	473	508	0	0	
4	0	0	0	0	480	510	0	0	
5	0	0	0	0	476	511	0	0	
6	0	0	0	0	480	511	0	0	
7	0	0	0	0	480	508	0	0	
8	0	0	0	0	481	511	0	0	
9	0	0	0	0	483	510	0	0	
10	0	0	0	0	483	508	0	0	
11	0	0	0	0	480	511	0	0	
12	0	0	0	0	480	510	0	0	
13	0	0	0	0	480	508	0	0	
14	0	0	0	0	472	504	0	0	
15	0	0	0	0	467	504	0	0	
0	0	0	0	0	465	508	0	0	
1	0	0	0	0	463	510	0	0	
2	0	0	0	0	463	510	0	0	
3	0	0	0	0	480	510	0	0	
4	0	0	0	0	472	508	0	0	
5	0	0	0	0	463	508	0	0	
6	0	0	0	0	463	512	0	0	
7	0	0	0	0	465	512	0	0	
8	0	0	0	0	472	511	0	0	
9	0	0	0	0	476	508	0	0	
10	0	0	0	0	480	511	0	0	
11	0	0	0	0	483	510	0	0	
12	0	0	0	0	483	511	0	0	
13	0	0	0	0	483	511	0	0	
14	0	0	0	0	487	508	0	0	
15	0	0	0	0	483	508	0	0	
0	0	0	0	0	480	508	0	0	
1	0	0	0	0	472	510	0	0	
2	0	0	0	0	467	508	0	0	
3	0	0	0	0	467	508	0	0	
4	0	0	0	0	472	510	0	0	
5	0	0	0	0	472	510	0	0	
6	0	0	0	0	467	508	0	0	
7	0	0	0	0	476	511	0	0	
8	0	0	0	0	483	511	0	0	
9	0	0	0	0	480	510	0	0	
10	0	0	0	0	481	510	0	0	
11	0	0	0	0	483	512	0	0	
12	0	0	0	0	487	512	0	0	
13	0	0	0	0	487	512	0	0	
14	0	0	0	0	483	510	0	0	
15	0	0	0	0	480	512	0	0	
0	0	0	0	0	480	513	0	0	
1	0	0	0	0	483	512	0	0	
2	0	0	0	0	483	508	0	0	
3	0	0	0	0	483	511	0	0	
4	0	0	0	0	480	511	0	0	
5	0	0	0	0	472	508	0	0	
6	0	0	0	0	463	508	0	0	
7	0	0	0	0	463	508	0	0	
8	0	0	0	0	463	510	0	0	
9	0	0	0	0	463	508	0	0	
10	0	0	0	0	465	508	0	0	
11	0	0	0	0	467	508	0	0	
12	0	0	0	0	467	504	0	0	
13	0	0	0	0	472	510	0	0	
14	0	0	0	0	472	510	0	0	
15	0	0	0	0	472	508	0	0	
0	0	0	0	0	476	508	0	0	
1	0	0	0	0	472	508	0	0	
2	0	0	0	0	472	511	0	0	
3	0	0	0	0	472	511	0	0	
4	0	0	0	0	465	511	0	0	
5	0	0	0	0	476	511	0	0	
6	0	0	0	0	487	511	0	0	
7	0	0	0	0	492	510	0	0	
8	0	0	0	0	486	505	0	0	
9	0	0	0	0	483	510	0	0	
10	0	0	0	0	480	508	0	0	
11	0	0	0	0	483	508	0	0	
12	0	0	0	0	483	508	0	0	
13	0	0	0	0	476	512	0	0	
14	0	0	0	0	483	512	0	0	
15	0	0	0	0	480	511	0	0	
0	0	0	0	0	467	510	0	0	
1	0	0	0	0	455	511	0	0	
2	0	0	0	0	454	511	0	0	
3	0	0	0	0	455	508	0	0	
4	0	0	0	0	455	510	0	0	
5	0	0	0	0	460	512	0	0	
6	0	0	0	0	463	511	0	0	
7	0	0	0	0	467	508	0	0	
8	0	0	0	0	480	510	0	0	
9	0	0	0	0	497	508	0	0	
10	0	0	0	0	496	505	0	0	
11	0	0	0	0	483	508	0	0	
12	0	0	0	0	480	510	0	0	
13	0	0	0	0	478	510	0	0	
14	0	0	0	0	476	510	0	0	
15	0	0	0	0	472	504	0	0	
0	0	0	0	0	472	508	0	0	
1	0	0	0	0	472	511	0	0	
2	0	0	0	0	472	510	0	0	
3	0	0	0	0	476	508	0	0	
4	0	0	0	0	472	508	0	0	
5	0	0	0	0	472	511	0	0	
6	0	0	0	0	463	510	0	0	
7	0	0	0	0	462	511	0	0	
8	0	0	0	0	463	511	0	0	
9	0	0	0	0	476	511	0	0	
10	0	0	0	0	483	511	0	0	
11	0	0	0	0	487	511	0	0	
12	0	0	0	0	480	510	0	0	
13	0	0	0	0	480	512	0	0	
14	0	0	0	0	480	510	0	0	
15	0	0	0	0	473	508	0	0	
0	0	0	0	0	473	508	0	0	
1	0	0	0	0	480	510	0	0	
2	0	0	0	0	472	508	0	0	
3	0	0	0	0	470	508	0	0	
4	0	0	0	0	467	508	0	0	
5	0	0	0	0	472	508	0	0	
6	0	0	0	0	467	510	0	0	
7	0	0	0	0	467	512	0	0	
8	0	0	0	0	472	511	0	0	
9	0	0	0	0	472	508	0	0	
10	0	0	0	0	472	511	0	0	
11	0	0	0	0	480	511	0	0	
12	0	0	0	0	494	511	0	0	
13	0	0	0	0	483	511	0	0	
14	0	0	0	0	476	510	0	0	
15	0	0	0	0	481	511	0	0	
0	0	0	0	0	487	508	0	0	
1	0	0	0	0	492	510	0	0	
2	0	0	0	0	492	508	0	0	
3	0	0	0	0	487	510	0	0	
4	0	0	0	0	487	508	0	0	
5	0	0	0	0	476	508	0	0	
6	0	0	0	0	472	508	0	0	
7	0	0	0	0	465	504	0	0	
8	0	0	0	0	460	508	0	0	
9	0	0	0	0	463	511	0	0	
10	0	0	0	0	476	510	0	0	
11	0	0	0	0	472	510	0	0	
12	0	0	0	0	478	511	0	0	
13	0	0	0	0	480	511	0	0	
14	0	0	0	0	480	511	0	0	
15	0	0	0	0	476	511	0	0	
0	0	0	0	0	472	508	0	0	
1	0	0	0	0	463	511	0	0	
2	0	0	0	0	463	511	0	0	
3	0	0	0	0	465	510	0	0	
4	0	0	0	0	465	508	0	0	
5	0	0	0	0	472	508	0	0	
6	0	0	0	0	473	510	0	0	
7	0	0	0	0	473	510	0	0	
8	0	0	0	0	472	508	0	0	
9	0	0	0	0	480	508	0	0	
10	0	0	0	0	494	510	0	0	
11	0	0	0	0	483	508	0	0	
12	0	0	0	0	476	508	0	0	
13	0	0	0	0	472	508	0	0	
14	0	0	0	0	472	508	0	0	
15	0	0	0	0	480	508	0	0	
0	0	0	0	0	472	510	0	0	
1	0	0	0	0	460	511	0	0	
2	0	0	0	0	455	511	0	0	
3	0	0	0	0	462	511	0	0	
4	0	0	0	0	467	510	0	0	
5	0	0	0	0	472	508	0	0	
6	0	0	0	0	472	510	0	0	
7	0	0	0	0	476	511	0	0	
8	0	0	0	0	480	512	0	0	
9	0	0	0	0	478	511	0	0	
10	0	0	0	0	480	511	0	0	
11	0	0	0	0	480	508	0	0	
12	0	0	0	0	486	511	0	0	
13	0	0	0	0	487	512	0	0	
14	0	0	0	0	480	508	0	0	
15	0	0	0	0	478	508	0	0	
0	0	0	0	0	476	510	0	0	
1	0	0	0	0	476	510	0	0	
2	0	0	0	0	476	510	0	0	
3	0	0	0	0	472	508	0	0	
4	0	0	0	0	472	510	0	0	
5	0	0	0	0	476	510	0	0	
6	0	0	0	0	480	512	0	0	
7	0	0	0	0	480	512	0	0	
8	0	0	0	0	483	512	0	0	
9	0	0	0	0	483	511	0	0	
10	0	0	0	0	481	510	0	0	
11	0	0	0	0	480	510	0	0	
12	0	0	0	0	476	511	0	0	
13	0	0	0	0	473	510	0	0	
14	0	0	0	0	472	505	0	0	
15	0	0	0	0	463	510	0	0	
0	0	0	0	0	460	508	0	0	
1	0	0	0	0	455	508	0	0	
2	0	0	0	0	472	511	0	0	
3	0	0	0	0	481	508	0	0	
4	0	0	0	0	476	505	0	0	
5	0	0	0	0	472	508	0	0	
6	0	0	0	0	472	510	0	0	
7	0	0	0	0	465	508	0	0	
8	0	0	0	0	463	510	0	0	
9	0	0	0	0	470	512	0	0	
10	0	0	0	0	472	511	0	0	
11	0	0	0	0	476	510	0	0	
12	0	0	0	0	480	508	0	0	
13	0	0	0	0	480	511	0	0	
14	0	0	0	0	480	508	0	0	
15	0	0	0	0	478	510	0	0	
0	0	0	0	0	480	510	0	0	
1	0	0	0	0	483	510	0	0	
2	0	0	0	0	492	510	0	0	
3	0	0	0	0	492	511	0	0	
4	0	0	0	0	483	508	0	0	
5	0	0	0	0	480	508	0	0	
6	0	0	0	0	487	510	0	0	
7	0	0	0	0	483	508	0	0	
8	0	0	0	0	480	504	0	0	
9	0	0	0	0	478	508	0	0	
10	0	0	0	0	480	511	0	0	
11	0	0	0	0	472	511	0	0	
12	0	0	0	0	467	511	0	0	
13	0	0	0	0	465	511	0	0	
14	0	0	0	0	463	508	0	0	
15	0	0	0	0	454	511	0	0	
0	0	0	0	0	449	508	0	0	
1	0	0	0	0	455	508	0	0	
2	0	0	0	0	467	508	0	0	
3	0	0	0	0	487	510	0	0	
4	0	0	0	0	487	512	0	0	
5	0	0	0	0	489	513	0	0	
6	0	0	0	0	492	510	0	0	
7	0	0	0	0	487	510	0	0	
8	0	0	0	0	487	510	0	0	
9	0	0	0	0	481	504	0	0	
10	0	0	0	0	473	505	0	0	
11	0	0	0	0	472	505	0	0	
12	0	0	0	0	465	510	0	0	
13	0	0	0	0	465	508	0	0	
14	0	0	0	0	463	508	0	0	
15	0	0	0	0	463	511	0	0	
0	0	0	0	0	463	508	0	0	
1	0	0	0	0	465	508	0	0	
2	0	0	0	0	465	510	0	0	
3	0	0	0	0	467	512	0	0	
4	0	0	0	0	472	510	0	0	
5	0	0	0	0	472	511	0	0	
6	0	0	0	0	472	512	0	0	
7	0	0	0	0	476	510	0	0	
8	0	0	0	0	473	510	0	0	
9	0	0	0	0	480	508	0	0	
10	0	0	0	0	492	508	0	0	
11	0	0	0	0	496	510	0	0	
12	0	0	0	0	487	508	0	0	
13	0	0	0	0	481	508	0	0	
14	0	0	0	0	480	504	0	0	
15	0	0	0	0	478	504	0	0	
0	0	0	0	0	476	508	0	0	
1	0	0	0	0	472	508	0	0	
2	0	0	0	0	472	511	0	0	
3	0	0	0	0	473	511	0	0	
4	0	0	0	0	476	508	0	0	
5	0	0	0	0	476	510	0	0	
6	0	0	0	0	465	511	0	0	
7	0	0	0	0	455	511	0	0	
8	0	0	0	0	462	513	0	0	
9	0	0	0	0	472	512	0	0	
10	0	0	0	0	483	512	0	0	
11	0	0	0	0	480	511	0	0	
12	0	0	0	0	480	510	0	0	
13	0	0	0	0	483	511	0	0	
14	0	0	0	0	483	511	0	0	
15	0	0	0	0	486	510	0	0	
0	0	0	0	0	480	511	0	0	
1	0	0	0	0	480	510	0	0	
2	0	0	0	0	476	512	0	0	
3	0	0	0	0	472	508	0	0	
4	0	0	0	0	467	508	0	0	
5	0	0	0	0	467	511	0	0	
6	0	0	0	0	472	510	0	0	
7	0	0	0	0	473	511	0	0	
8	0	0	0	0	472	508	0	0	
9	0	0	0	0	472	511	0	0	
10	0	0	0	0	473	508	0	0	
11	0	0	0	0	476	508	0	0	
12	0	0	0	0	472	511	0	0	
13	0	0	0	0	472	511	0	0	
14	0	0	0	0	472	510	0	0	
15	0	0	0	0	472	512	0	0	
0	0	0	0	0	472	511	0	0	
1	0	0	0	0	472	510	0	0	
2	0	0	0	0	467	511	0	0	
3	0	0	0	0	472	508	0	0	
4	0	0	0	0	472	505	0	0	
5	0	0	0	0	472	511	0	0	
6	0	0	0	0	472	510	0	0	
7	0	0	0	0	480	508	0	0	
8	0	0	0	0	494	508	0	0	
9	0	0	0	0	481	504	0	0	
10	0	0	0	0	472	508	0	0	
11	0	0	0	0	476	508	0	0	
12	0	0	0	0	473	508	0	0	
13	0	0	0	0	465	510	0	0	
14	0	0	0	0	472	511	0	0	
15	0	0	0	0	472	510	0	0	
0	0	0	0	0	473	510	0	0	
1	0	0	0	0	480	508	0	0	
2	0	0	0	0	483	510	0	0	
3	0	0	0	0	481	508	0	0	
4	0	0	0	0	473	510	0	0	
5	0	0	0	0	473	511	0	0	
6	0	0	0	0	483	508	0	0	
7	0	0	0	0	481	508	0	0	
8	0	0	0	0	476	508	0	0	
9	0	0	0	0	463	510	0	0	
10	0	0	0	0	460	510	0	0	
11	0	0	0	0	455	508	0	0	
12	0	0	0	0	460	508	0	0	
13	0	0	0	0	455	510	0	0	
14	0	0	0	0	455	510	0	0	
15	0	0	0	0	460	508	0	0	
0	0	0	0	0	463	510	0	0	
1	0	0	0	0	472	510	0	0	
2	0	0	0	0	480	511	0	0	
3	0	0	0	0	483	512	0	0	
4	0	0	0	0	481	508	0	0	
5	0	0	0	0	480	511	0	0	
6	0	0	0	0	483	508	0	0	
7	0	0	0	0	483	510	0	0	
8	0	0	0	0	481	510	0	0	
9	0	0	0	0	480	511	0	0	
10	0	0	0	0	480	511	0	0	
11	0	0	0	0	483	510	0	0	
12	0	0	0	0	480	510	0	0	
13	0	0	0	0	476	508	0	0	
14	0	0	0	0	476	508	0	0	
15	0	0	0	0	472	508	0	0	
0	0	0	0	0	467	504	0	0	
1	0	0	0	0	463	508	0	0	
2	0	0	0	0	467	511	0	0	
3	0	0	0	0	476	511	0	0	
4	0	0	0	0	480	511	0	0	
5	0	0	0	0	478	508	0	0	
6	0	0	0	0	480	508	0	0	
7	0	0	0	0	480	511	0	0	
8	0	0	0	0	480	508	0	0	
9	0	0	0	0	483	510	0	0	
10	0	0	0	0	487	510	0	0	
11	0	0	0	0	483	508	0	0	
12	0	0	0	0	478	508	0	0	
13	0	0	0	0	472	508	0	0	
14	0	0	0	0	476	508	0	0	
15	0	0	0	0	472	510	0	0	
0	0	0	0	0	476	508	0	0	
1	0	0	0	0	478	512	0	0	
2	0	0	0	0	476	510	0	0	
3	0	0	0	0	472	504	0	0	
4	0	0	0	0	472	508	0	0	
5	0	0	0	0	494	510	0	0	
6	0	0	0	0	494	510	0	0	
7	0	0	0	0	487	508	0	0	
8	0	0	0	0	472	510	0	0	
9	0	0	0	0	465	508	0	0	
10	0	0	0	0	463	510	0	0	
11	0	0	0	0	472	510	0	0	
12	0	0	0	0	476	510	0	0	
13	0	0	0	0	480	510	0	0	
14	0	0	0	0	476	511	0	0	
15	0	0	0	0	480	512	0	0	
0	0	0	0	0	476	510	0	0	
1	0	0	0	0	476	510	0	0	
2	0	0	0	0	476	511	0	0	
3	0	0	0	0	476	510	0	0	
4	0	0	0	0	480	511	0	0	
5	0	0	0	0	480	511	0	0	
6	0	0	0	0	472	508	0	0	
7	0	0	0	0	467	511	0	0	
8	0	0	0	0	472	505	0	0	
9	0	0	0	0	472	504	0	0	
10	0	0	0	0	460	504	0	0	
11	0	0	0	0	455	510	0	0	
12	0	0	0	0	463	510	0	0	
13	0	0	0	0	455	511	0	0	
14	0	0	0	0	457	508	0	0	
15	0	0	0	0	462	511	0	0	
0	0	0	0	0	472	511	0	0	
1	0	0	0	0	480	510	0	0	
2	0	0	0	0	487	511	0	0	
3	0	0	0	0	492	510	0	0	
4	0	0	0	0	492	510	0	0	
5	0	0	0	0	487	510	0	0	
6	0	0	0	0	487	510	0	0	
7	0	0	0	0	489	511	0	0	
8	0	0	0	0	492	510	0	0	
9	0	0	0	0	487	508	0	0	
10	0	0	0	0	480	508	0	0	
11	0	0	0	0	476	504	0	0	
12	0	0	0	0	472	508	0	0	
13	0	0	0	0	472	508	0	0	
14	0	0	0	0	472	512	0	0	
15	0	0	0	0	472	512	0	0	
0	0	0	0	0	467	510	0	0	
1	0	0	0	0	463	511	0	0	
2	0	0	0	0	467	511	0	0	
3	0	0	0	0	472	511	0	0	
4	0	0	0	0	473	511	0	0	
5	0	0	0	0	480	511	0	0	
6	0	0	0	0	480	511	0	0	
7	0	0	0	0	481	511	0	0	
8	0	0	0	0	480	511	0	0	
9	0	0	0	0	480	511	0	0	
10	0	0	0	0	480	510	0	0	
11	0	0	0	0	480	508	0	0	
12	0	0	0	0	478	508	0	0	
13	0	0	0	0	473	508	0	0	
14	0	0	0	0	472	511	0	0	
15	0	0	0	0	467	510	0	0	
0	0	0	0	0	463	510	0	0	
1	0	0	0	0	451	511	0	0	
2	0	0	0	0	440	510	0	0	
3	0	0	0	0	448	511	0	0	
4	0	0	0	0	467	511	0	0	
5	0	0	0	0	467	512	0	0	
6	0	0	0	0	463	511	0	0	
7	0	0	0	0	463	510	0	0	
8	0	0	0	0	472	508	0	0	
9	0	0	0	0	481	510	0	0	
10	0	0	0	0	492	511	0	0	
11	0	0	0	0	487	508	0	0	
12	0	0	0	0	478	511	0	0	
13	0	0	0	0	480	510	0	0	
14	0	0	0	0	480	508	0	0	
15	0	0	0	0	483	508	0	0	
0	0	0	0	0	487	508	0	0	
1	0	0	0	0	480	508	0	0	
2	0	0	0	0	473	508	0	0	
3	0	0	0	0	472	510	0	0	
4	0	0	0	0	472	508	0	0	
5	0	0	0	0	476	508	0	0	
6	0	0	0	0	472	505	0	0	
7	0	0	0	0	472	511	0	0	
8	0	0	0	0	472	508	0	0	
9	0	0	0	0	480	508	0	0	
10	0	0	0	0	476	511	0	0	
11	0	0	0	0	476	510	0	0	
12	0	0	0	0	480	508	0	0	
13	0	0	0	0	481	508	0	0	
14	0	0	0	0	483	508	0	0	
15	0	0	0	0	486	508	0	0	
0	0	0	0	0	486	510	0	0	
1	0	0	0	0	487	508	0	0	
2	0	0	0	0	487	508	0	0	
3	0	0	0	0	487	510	0	0	
4	0	0	0	0	480	511	0	0	
5	0	0	0	0	472	508	0	0	
6	0	0	0	0	476	508	0	0	
7	0	0	0	0	476	508	0	0	
8	0	0	0	0	472	508	0	0	
9	0	0	0	0	472	508	0	0	
10	0	0	0	0	480	508	0	0	
11	0	0	0	0	480	505	0	0	
12	0	0	0	0	473	508	0	0	
13	0	0	0	0	467	508	0	0	
14	0	0	0	0	472	511	0	0	
15	0	0	0	0	472	510	0	0	
0	0	0	0	0	472	508	0	0	
1	0	0	0	0	472	508	0	0	
2	0	0	0	0	472	508	0	0	
3	0	0	0	0	472	508	0	0	
4	0	0	0	0	473	511	0	0	
5	0	0	0	0	472	512	0	0	
6	0	0	0	0	476	511	0	0	
7	0	0	0	0	478	511	0	0	
8	0	0	0	0	472	508	0	0	
9	0	0	0	0	467	510	0	0	
10	0	0	0	0	473	508	0	0	
11	0	0	0	0	483	508	0	0	
12	0	0	0	0	487	510	0	0	
13	0	0	0	0	481	508	0	0	
14	0	0	0	0	480	510	0	0	
15	0	0	0	0	476	508	0	0	
0	0	0	0	0	472	510	0	0	
1	0	0	0	0	465	511	0	0	
2	0	0	0	0	462	512	0	0	
3	0	0	0	0	463	511	0	0	
4	0	0	0	0	467	511	0	0	
5	0	0	0	0	472	512	0	0	
6	0	0	0	0	476	512	0	0	
7	0	0	0	0	480	511	0	0	
8	0	0	0	0	480	508	0	0	
9	0	0	0	0	483	511	0	0	
10	0	0	0	0	481	508	0	0	
11	0	0	0	0	480	510	0	0	
12	0	0	0	0	480	508	0	0	
13	0	0	0	0	478	510	0	0	
14	0	0	0	0	472	510	0	0	
15	0	0	0	0	472	508	0	0	
0	0	0	0	0	472	511	0	0	
1	0	0	0	0	463	508	0	0	
2	0	0	0	0	462	511	0	0	
3	0	0	0	0	463	511	0	0	
4	0	0	0	0	460	510	0	0	
5	0	0	0	0	463	511	0	0	
6	0	0	0	0	472	512	0	0	
7	0	0	0	0	476	511	0	0	
8	0	0	0	0	480	508	0	0	
9	0	0	0	0	494	512	0	0	
10	0	0	0	0	497	511	0	0	
11	0	0	0	0	492	510	0	0	
12	0	0	0	0	481	511	0	0	
13	0	0	0	0	473	510	0	0	
14	0	0	0	0	473	510	0	0	
15	0	0	0	0	480	511	0	0	
0	0	0	0	0	487	512	0	0	
1	0	0	0	0	487	508	0	0	
2	0	0	0	0	483	508	0	0	
3	0	0	0	0	480	511	0	0	
4	0	0	0	0	480	508	0	0	
5	0	0	0	0	478	508	0	0	
6	0	0	0	0	476	510	0	0	
7	0	0	0	0	472	508	0	0	
8	0	0	0	0	455	504	0	0	
9	0	0	0	0	462	508	0	0	
10	0	0	0	0	467	508	0	0	
11	0	0	0	0	455	510	0	0	
12	0	0	0	0	460	510	0	0	
13	0	0	0	0	472	510	0	0	
14	0	0	0	0	472	510	0	0	
15	0	0	0	0	472	511	0	0	
0	0	0	0	0	480	508	0	0	
1	0	0	0	0	483	511	0	0	
2	0	0	0	0	480	511	0	0	
3	0	0	0	0	476	511	0	0	
4	0	0	0	0	472	508	0	0	
5	0	0	0	0	478	508	0	0	
6	0	0	0	0	472	504	0	0	
7	0	0	0	0	465	508	0	0	
8	0	0	0	0	472	508	0	0	
9	0	0	0	0	467	512	0	0	
10	0	0	0	0	460	508	0	0	
11	0	0	0	0	455	508	0	0	
12	0	0	0	0	467	510	0	0	
13	0	0	0	0	472	512	0	0	
14	0	0	0	0	476	510	0	0	
15	0	0	0	0	472	511	0	0	
0	0	0	0	0	472	512	0	0	
1	0	0	0	0	463	510	0	0	
2	0	0	0	0	467	511	0	0	
3	0	0	0	0	473	510	0	0	
4	0	0	0	0	487	512	0	0	
5	0	0	0	0	504	510	0	0	
6	0	0	0	0	508	508	0	0	
7	0	0	0	0	497	511	0	0	
8	0	0	0	0	487	510	0	0	
9	0	0	0	0	480	508	0	0	
10	0	0	0	0	480	510	0	0	
11	0	0	0	0	476	511	0	0	
12	0	0	0	0	467	510	0	0	
13	0	0	0	0	472	510	0	0	
14	0	0	0	0	472	511	0	0	
15	0	0	0	0	467	511	0	0	
0	0	0	0	0	465	511	0	0	
1	0	0	0	0	463	511	0	0	
2	0	0	0	0	472	511	0	0	
3	0	0	0	0	473	510	0	0	
4	0	0	0	0	476	510	0	0	
5	0	0	0	0	473	511	0	0	
6	0	0	0	0	480	511	0	0	
7	0	0	0	0	480	510	0	0	
8	0	0	0	0	478	508	0	0	
9	0	0	0	0	473	508	0	0	
10	0	0	0	0	472	508	0	0	
11	0	0	0	0	476	510	0	0	
12	0	0	0	0	480	511	0	0	
13	0	0	0	0	496	510	0	0	
14	0	0	0	0	496	505	0	0	
15	0	0	0	0	478	508	0	0	
0	0	0	0	0	472	508	0	0	
1	0	0	0	0	467	508	0	0	
2	0	0	0	0	472	508	0	0	
3	0	0	0	0	472	510	0	0	
4	0	0	0	0	476	508	0	0	
5	0	0	0	0	472	508	0	0	
6	0	0	0	0	476	511	0	0	
7	0	0	0	0	480	510	0	0	
8	0	0	0	0	481	511	0	0	
9	0	0	0	0	487	508	0	0	
10	0	0	0	0	487	508	0	0	
11	0	0	0	0	487	510	0	0	
12	0	0	0	0	481	511	0	0	
13	0	0	0	0	473	510	0	0	
14	0	0	0	0	472	508	0	0	
15	0	0	0	0	463	508	0	0	
0	0	0	0	0	463	508	0	0	
1	0	0	0	0	472	508	0	0	
2	0	0	0	0	472	511	0	0	
3	0	0	0	0	472	508	0	0	
4	0	0	0	0	463	505	0	0	
5	0	0	0	0	467	508	0	0	
6	0	0	0	0	463	512	0	0	
7	0	0	0	0	463	510	0	0	
8	0	0	0	0	472	510	0	0	
9	0	0	0	0	472	511	0	0	
10	0	0	0	0	472	511	0	0	
11	0	0	0	0	480	511	0	0	
12	0	0	0	0	480	510	0	0	
13	0	0	0	0	480	511	0	0	
14	0	0	0	0	480	512	0	0	
15	0	0	0	0	481	511	0	0	
0	0	0	0	0	483	510	0	0	
1	0	0	0	0	483	510	0	0	
2	0	0	0	0	483	504	0	0	
3	0	0	0	0	480	508	0	0	
4	0	0	0	0	480	508	0	0	
5	0	0	0	0	476	508	0	0	
6	0	0	0	0	472	508	0	0	
7	0	0	0	0	472	508	0	0	
8	0	0	0	0	463	510	0	0	
9	0	0	0	0	467	508	0	0	
10	0	0	0	0	472	511	0	0	
11	0	0	0	0	472	511	0	0	
12	0	0	0	0	476	512	0	0	
13	0	0	0	0	473	511	0	0	
14	0	0	0	0	472	512	0	0	
15	0	0	0	0	472	511	0	0	
0	0	0	0	0	480	511	0	0	
1	0	0	0	0	483	511	0	0	
2	0	0	0	0	480	511	0	0	
3	0	0	0	0	480	511	0	0	
4	0	0	0	0	472	510	0	0	
5	0	0	0	0	476	508	0	0	
6	0	0	0	0	476	508	0	0	
7	0	0	0	0	476	511	0	0	
8	0	0	0	0	480	508	0	0	
9	0	0	0	0	487	508	0	0	
10	0	0	0	0	481	508	0	0	
11	0	0	0	0	472	508	0	0	
12	0	0	0	0	472	508	0	0	
13	0	0	0	0	467	508	0	0	
14	0	0	0	0	455	512	0	0	
15	0	0	0	0	451	508	0	0	
0	0	0	0	0	463	508	0	0	
1	0	0	0	0	463	508	0	0	
2	0	0	0	0	472	510	0	0	
3	0	0	0	0	496	513	0	0	
4	0	0	0	0	519	511	0	0	
5	0	0	0	0	504	512	0	0	
6	0	0	0	0	492	511	0	0	
7	0	0	0	0	492	511	0	0	
8	0	0	0	0	487	511	0	0	
9	0	0	0	0	487	511	0	0	
10	0	0	0	0	481	510	0	0	
11	0	0	0	0	472	511	0	0	
12	0	0	0	0	467	504	0	0	
13	0	0	0	0	467	511	0	0	
14	0	0	0	0	467	508	0	0	
15	0	0	0	0	472	508	0	0	
0	0	0	0	0	472	510	0	0	
1	0	0	0	0	465	508	0	0	
2	0	0	0	0	463	508	0	0	
3	0	0	0	0	472	511	0	0	
4	0	0	0	0	465	511	0	0	
5	0	0	0	0	455	511	0	0	
6	0	0	0	0	455	511	0	0	
7	0	0	0	0	472	512	0	0	
8	0	0	0	0	480	512	0	0	
9	0	0	0	0	480	510	0	0	
10	0	0	0	0	480	510	0	0	
11	0	0	0	0	480	511	0	0	
12	0	0	0	0	480	511	0	0	
13	0	0	0	0	480	513	0	0	
14	0	0	0	0	480	512	0	0	
15	0	0	0	0	480	511	0	0	
0	0	0	0	0	472	505	0	0	
1	0	0	0	0	460	508	0	0	
2	0	0	0	0	467	511	0	0	
3	0	0	0	0	473	510	0	0	
4	0	0	0	0	478	511	0	0	
5	0	0	0	0	476	505	0	0	
6	0	0	0	0	472	508	0	0	
7	0	0	0	0	467	508	0	0	
8	0	0	0	0	463	511	0	0	
9	0	0	0	0	463	508	0	0	
10	0	0	0	0	472	511	0	0	
11	0	0	0	0	473	511	0	0	
12	0	0	0	0	476	511	0	0	
13	0	0	0	0	480	510	0	0	
14	0	0	0	0	481	510	0	0	
15	0	0	0	0	483	510	0	0	
0	0	0	0	0	483	511	0	0	
1	0	0	0	0	486	511	0	0	
2	0	0	0	0	487	510	0	0	
3	0	0	0	0	481	510	0	0	
4	0	0	0	0	480	510	0	0	
5	0	0	0	0	480	508	0	0	
6	0	0	0	0	472	508	0	0	
7	0	0	0	0	467	508	0	0	
8	0	0	0	0	463	508	0	0	
9	0	0	0	0	463	510	0	0	
10	0	0	0	0	463	505	0	0	
11	0	0	0	0	463	508	0	0	
12	0	0	0	0	455	508	0	0	
13	0	0	0	0	455	510	0	0	
14	0	0	0	0	467	510	0	0	
15	0	0	0	0	487	510	0	0	
0	0	0	0	0	496	511	0	0	
1	0	0	0	0	492	508	0	0	
2	0	0	0	0	487	510	0	0	
3	0	0	0	0	487	511	0	0	
4	0	0	0	0	494	510	0	0	
5	0	0	0	0	496	510	0	0	
6	0	0	0	0	492	508	0	0	
7	0	0	0	0	487	510	0	0	
8	0	0	0	0	480	505	0	0	
9	0	0	0	0	451	510	0	0	
10	0	0	0	0	448	511	0	0	
11	0	0	0	0	449	504	0	0	
12	0	0	0	0	448	508	0	0	
13	0	0	0	0	455	508	0	0	
14	0	0	0	0	463	508	0	0	
15	0	0	0	0	467	508	0	0	
0	0	0	0	0	467	511	0	0	
1	0	0	0	0	472	511	0	0	
2	0	0	0	0	476	511	0	0	
3	0	0	0	0	480	511	0	0	
4	0	0	0	0	480	510	0	0	
5	0	0	0	0	467	504	0	0	
6	0	0	0	0	467	508	0	0	
7	0	0	0	0	476	510	0	0	
8	0	0	0	0	480	511	0	0	
9	0	0	0	0	480	510	0	0	
10	0	0	0	0	480	510	0	0	
11	0	0	0	0	480	510	0	0	
12	0	0	0	0	494	505	0	0	
13	0	0	0	0	504	511	0	0	
14	0	0	0	0	487	508	0	0	
15	0	0	0	0	472	510	0	0	
0	0	0	0	0	472	508	0	0	
1	0	0	0	0	476	508	0	0	
2	0	0	0	0	478	508	0	0	
3	0	0	0	0	478	510	0	0	
4	0	0	0	0	472	510	0	0	
5	0	0	0	0	467	510	0	0	
6	0	0	0	0	467	511	0	0	
7	0	0	0	0	472	512	0	0	
8	0	0	0	0	476	511	0	0	
9	0	0	0	0	478	511	0	0	
10	0	0	0	0	480	510	0	0	
11	0	0	0	0	478	510	0	0	
12	0	0	0	0	481	510	0	0	
13	0	0	0	0	487	510	0	0	
14	0	0	0	0	487	508	0	0	
15	0	0	0	0	483	505	0	0	
0	0	0	0	0	483	508	0	0	
1	0	0	0	0	480	512	0	0	
2	0	0	0	0	480	508	0	0	
3	0	0	0	0	467	508	0	0	
4	0	0	0	0	455	508	0	0	
5	0	0	0	0	448	508	0	0	
6	0	0	0	0	448	508	0	0	
7	0	0	0	0	449	510	0	0	
8	0	0	0	0	455	511	0	0	
9	0	0	0	0	467	512	0	0	
10	0	0	0	0	476	512	0	0	
11	0	0	0	0	476	511	0	0	
12	0	0	0	0	472	510	0	0	
13	0	0	0	0	476	511	0	0	
14	0	0	0	0	480	511	0	0	
15	0	0	0	0	480	510	0	0	
0	0	0	0	0	480	510	0	0	
1	0	0	0	0	480	512	0	0	
2	0	0	0	0	480	511	0	0	
3	0	0	0	0	480	510	0	0	
4	0	0	0	0	473	512	0	0	
5	0	0	0	0	467	511	0	0	
6	0	0	0	0	463	510	0	0	
7	0	0	0	0	476	508	0	0	
8	0	0	0	0	480	508	0	0	
9	0	0	0	0	480	510	0	0	
10	0	0	0	0	472	511	0	0	
11	0	0	0	0	467	510	0	0	
12	0	0	0	0	467	505	0	0	
13	0	0	0	0	465	508	0	0	
14	0	0	0	0	467	510	0	0	
15	0	0	0	0	483	511	0	0	
0	0	0	0	0	487	511	0	0	
1	0	0	0	0	492	508	0	0	
2	0	0	0	0	492	508	0	0	
3	0	0	0	0	487	510	0	0	
4	0	0	0	0	481	511	0	0	
5	0	0	0	0	481	510	0	0	
6	0	0	0	0	481	508	0	0	
7	0	0	0	0	480	510	0	0	
8	0	0	0	0	480	508	0	0	
9	0	0	0	0	480	508	0	0	
10	0	0	0	0	480	508	0	0	
11	0	0	0	0	478	508	0	0	
12	0	0	0	0	476	508	0	0	
13	0	0	0	0	476	510	0	0	
14	0	0	0	0	472	508	0	0	
15	0	0	0	0	467	511	0	0	
0	0	0	0	0	467	508	0	0	
1	0	0	0	0	472	510	0	0	
2	0	0	0	0	472	511	0	0	
3	0	0	0	0	472	512	0	0	
4	0	0	0	0	472	511	0	0	
5	0	0	0	0	472	512	0	0	
6	0	0	0	0	476	511	0	0	
7	0	0	0	0	480	512	0	0	
8	0	0	0	0	483	508	0	0	
9	0	0	0	0	487	513	0	0	
10	0	0	0	0	480	511	0	0	
11	0	0	0	0	480	510	0	0	
12	0	0	0	0	481	508	0	0	
13	0	0	0	0	472	508	0	0	
14	0	0	0	0	462	508	0	0	
15	0	0	0	0	455	508	0	0	
0	0	0	0	0	455	511	0	0	
1	0	0	0	0	463	510	0	0	
2	0	0	0	0	465	508	0	0	
3	0	0	0	0	472	510	0	0	
4	0	0	0	0	467	508	0	0	
5	0	0	0	0	467	508	0	0	
6	0	0	0	0	486	510	0	0	
7	0	0	0	0	487	510	0	0	
8	0	0	0	0	480	510	0	0	
9	0	0	0	0	478	510	0	0	
10	0	0	0	0	480	510	0	0	
11	0	0	0	0	481	505	0	0	
12	0	0	0	0	480	510	0	0	
13	0	0	0	0	480	510	0	0	
14	0	0	0	0	487	510	0	0	
15	0	0	0	0	487	511	0	0	
0	0	0	0	0	492	508	0	0	
1	0	0	0	0	483	508	0	0	
2	0	0	0	0	480	505	0	0	
3	0	0	0	0	476	508	0	0	
4	0	0	0	0	465	508	0	0	
5	0	0	0	0	463	510	0	0	
6	0	0	0	0	463	508	0	0	
7	0	0	0	0	455	508	0	0	
8	0	0	0	0	449	508	0	0	
9	0	0	0	0	455	511	0	0	
10	0	0	0	0	472	511	0	0	
11	0	0	0	0	486	511	0	0	
12	0	0	0	0	483	510	0	0	
13	0	0	0	0	476	510	0	0	
14	0	0	0	0	472	510	0	0	
15	0	0	0	0	470	511	0	0	
0	0	0	0	0	472	511	0	0	
1	0	0	0	0	472	510	0	0	
2	0	0	0	0	472	510	0	0	
3	0	0	0	0	476	510	0	0	
4	0	0	0	0	483	505	0	0	
5	0	0	0	0	487	508	0	0	
6	0	0	0	0	472	508	0	0	
7	0	0	0	0	472	510	0	0	
8	0	0	0	0	472	510	0	0	
9	0	0	0	0	470	508	0	0	
10	0	0	0	0	472	508	0	0	
11	0	0	0	0	472	510	0	0	
12	0	0	0	0	480	510	0	0	
13	0	0	0	0	480	511	0	0	
14	0	0	0	0	480	511	0	0	
15	0	0	0	0	480	512	0	0	
0	0	0	0	0	480	511	0	0	
1	0	0	0	0	483	512	0	0	
2	0	0	0	0	483	513	0	0	
3	0	0	0	0	478	511	0	0	
4	0	0	0	0	467	510	0	0	
5	0	0	0	0	476	511	0	0	
6	0	0	0	0	480	508	0	0	
7	0	0	0	0	476	510	0	0	
8	0	0	0	0	472	508	0	0	
9	0	0	0	0	465	504	0	0	
10	0	0	0	0	463	510	0	0	
11	0	0	0	0	472	508	0	0	
12	0	0	0	0	473	510	0	0	
13	0	0	0	0	472	510	0	0	
14	0	0	0	0	476	508	0	0	
15	0	0	0	0	472	508	0	0	
0	0	0	0	0	467	508	0	0	
1	0	0	0	0	470	508	0	0	
2	0	0	0	0	467	511	0	0	
3	0	0	0	0	472	511	0	0	
4	0	0	0	0	476	511	0	0	
5	0	0	0	0	481	510	0	0	
6	0	0	0	0	481	508	0	0	
7	0	0	0	0	487	508	0	0	
8	0	0	0	0	487	511	0	0	
9	0	0	0	0	486	508	0	0	
10	0	0	0	0	481	508	0	0	
11	0	0	0	0	480	508	0	0	
12	0	0	0	0	476	508	0	0	
13	0	0	0	0	463	508	0	0	
14	0	0	0	0	460	508	0	0	
15	0	0	0	0	465	510	0	0	
0	0	0	0	0	462	508	0	0	
1	0	0	0	0	462	508	0	0	
2	0	0	0	0	467	508	0	0	
3	0	0	0	0	480	511	0	0	
4	0	0	0	0	480	511	0	0	
5	0	0	0	0	476	508	0	0	
6	0	0	0	0	480	511	0	0	
7	0	0	0	0	480	511	0	0	
8	0	0	0	0	483	511	0	0	
9	0	0	0	0	487	512	0	0	
10	0	0	0	0	481	511	0	0	
11	0	0	0	0	476	511	0	0	
12	0	0	0	0	476	511	0	0	
13	0	0	0	0	476	508	0	0	
14	0	0	0	0	481	508	0	0	
15	0	0	0	0	478	510	0	0	
0	0	0	0	0	472	508	0	0	
1	0	0	0	0	467	508	0	0	
2	0	0	0	0	483	510	0	0	
3	0	0	0	0	487	508	0	0	
4	0	0	0	0	480	505	0	0	
5	0	0	0	0	478	510	0	0	
6	0	0	0	0	481	504	0	0	
7	0	0	0	0	487	508	0	0	
8	0	0	0	0	483	511	0	0	
9	0	0	0	0	472	512	0	0	
10	0	0	0	0	460	510	0	0	
11	0	0	0	0	462	512	0	0	
12	0	0	0	0	455	511	0	0	
13	0	0	0	0	460	508	0	0	
14	0	0	0	0	460	508	0	0	
15	0	0	0	0	455	510	0	0	
0	0	0	0	0	463	508	0	0	
1	0	0	0	0	463	508	0	0	
2	0	0	0	0	476	505	0	0	
3	0	0	0	0	487	505	0	0	
4	0	0	0	0	487	508	0	0	
5	0	0	0	0	480	504	0	0	
6	0	0	0	0	472	508	0	0	
7	0	0	0	0	467	505	0	0	
8	0	0	0	0	465	508	0	0	
9	0	0	0	0	463	510	0	0	
10	0	0	0	0	465	510	0	0	
11	0	0	0	0	467	510	0	0	
12	0	0	0	0	472	511	0	0	
13	0	0	0	0	472	512	0	0	
14	0	0	0	0	476	511	0	0	
15	0	0	0	0	476	508	0	0	
0	0	0	0	0	476	510	0	0	
1	0	0	0	0	478	508	0	0	
2	0	0	0	0	480	510	0	0	
3	0	0	0	0	483	511	0	0	
4	0	0	0	0	483	513	0	0	
5	0	0	0	0	487	511	0	0	
6	0	0	0	0	486	510	0	0	
7	0	0	0	0	480	511	0	0	
8	0	0	0	0	480	508	0	0	
9	0	0	0	0	473	511	0	0	
10	0	0	0	0	473	510	0	0	
11	0	0	0	0	472	511	0	0	
12	0	0	0	0	472	508	0	0	
13	0	0	0	0	463	508	0	0	
14	0	0	0	0	463	508	0	0	
15	0	0	0	0	462	510	0	0	
0	0	0	0	0	463	510	0	0	
1	0	0	0	0	472	508	0	0	
2	0	0	0	0	480	510	0	0	
3	0	0	0	0	483	508	0	0	
4	0	0	0	0	486	511	0	0	
5	0	0	0	0	487	510	0	0	
6	0	0	0	0	492	510	0	0	
7	0	0	0	0	486	508	0	0	
8	0	0	0	0	483	510	0	0	
9	0	0	0	0	483	510	0	0	
10	0	0	0	0	480	508	0	0	
11	0	0	0	0	480	510	0	0	
12	0	0	0	0	476	510	0	0	
13	0	0	0	0	472	508	0	0	
14	0	0	0	0	480	508	0	0	
15	0	0	0	0	478	508	0	0	
0	0	0	0	0	476	510	0	0	
1	0	0	0	0	472	508	0	0	
2	0	0	0	0	463	510	0	0	
3	0	0	0	0	455	508	0	0	
4	0	0	0	0	455	508	0	0	
5	0	0	0	0	455	511	0	0	
6	0	0	0	0	455	510	0	0	
7	0	0	0	0	470	510	0	0	
8	0	0	0	0	476	508	0	0	
9	0	0	0	0	480	504	0	0	
10	0	0	0	0	487	508	0	0	
11	0	0	0	0	512	508	0	0	
12	0	0	0	0	508	511	0	0	
13	0	0	0	0	496	512	0	0	
14	0	0	0	0	480	513	0	0	
15	0	0	0	0	463	510	0	0	
0	0	0	0	0	440	508	0	0	
1	0	0	0	0	441	508	0	0	
2	0	0	0	0	455	510	0	0	
3	0	0	0	0	455	510	0	0	
4	0	0	0	0	455	508	0	0	
5	0	0	0	0	472	511	0	0	
6	0	0	0	0	480	511	0	0	
7	0	0	0	0	480	511	0	0	
8	0	0	0	0	480	508	0	0	
9	0	0	0	0	481	508	0	0	
10	0	0	0	0	481	511	0	0	
11	0	0	0	0	480	512	0	0	
12	0	0	0	0	480	511	0	0	
13	0	0	0	0	472	511	0	0	
14	0	0	0	0	480	510	0	0	
15	0	0	0	0	483	511	0	0	
0	0	0	0	0	486	510	0	0	
1	0	0	0	0	487	511	0	0	
2	0	0	0	0	483	508	0	0	
3	0	0	0	0	476	508	0	0	
4	0	0	0	0	472	508	0	0	
5	0	0	0	0	465	505	0	0	
6	0	0	0	0	472	508	0	0	
7	0	0	0	0	478	508	0	0	
8	0	0	0	0	480	511	0	0	
9	0	0	0	0	476	511	0	0	
10	0	0	0	0	476	510	0	0	
11	0	0	0	0	472	508	0	0	
12	0	0	0	0	472	510	0	0	
13	0	0	0	0	478	508	0	0	
14	0	0	0	0	476	510	0	0	
15	0	0	0	0	472	508	0	0	
0	0	0	0	0	476	508	0	0	
1	0	0	0	0	476	510	0	0	
2	0	0	0	0	480	511	0	0	
3	0	0	0	0	480	511	0	0	
4	0	0	0	0	486	511	0	0	
5	0	0	0	0	492	511	0	0	
6	0	0	0	0	487	510	0	0	
7	0	0	0	0	483	510	0	0	
8	0	0	0	0	480	508	0	0	
9	0	0	0	0	480	508	0	0	
10	0	0	0	0	480	508	0	0	
11	0	0	0	0	478	508	0	0	
12	0	0	0	0	473	510	0	0	
13	0	0	0	0	472	510	0	0	
14	0	0	0	0	472	510	0	0	
15	0	0	0	0	460	508	0	0	
0	0	0	0	0	455	512	0	0	
1	0	0	0	0	463	511	0	0	
2	0	0	0	0	467	511	0	0	
3	0	0	0	0	480	510	0	0	
4	0	0	0	0	487	510	0	0	
5	0	0	0	0	492	508	0	0	
6	0	0	0	0	492	510	0	0	
7	0	0	0	0	496	510	0	0	
8	0	0	0	0	494	512	0	0	
9	0	0	0	0	492	511	0	0	
10	0	0	0	0	494	510	0	0	
11	0	0	0	0	487	511	0	0	
12	0	0	0	0	476	512	0	0	
13	0	0	0	0	472	512	0	0	
14	0	0	0	0	451	510	0	0	
15	0	0	0	0	438	508	0	0	
0	0	0	0	0	440	510	0	0	
1	0	0	0	0	444	504	0	0	
2	0	0	0	0	455	508	0	0	
3	0	0	0	0	472	508	0	0	
4	0	0	0	0	476	508	0	0	
5	0	0	0	0	472	508	0	0	
6	0	0	0	0	473	508	0	0	
7	0	0	0	0	476	510	0	0	
8	0	0	0	0	476	511	0	0	
9	0	0	0	0	473	510	0	0	
10	0	0	0	0	476	512	0	0	
11	0	0	0	0	478	511	0	0	
12	0	0	0	0	472	511	0	0	
13	0	0	0	0	472	510	0	0	
14	0	0	0	0	472	511	0	0	
15	0	0	0	0	473	508	0	0	
0	0	0	0	0	480	508	0	0	
1	0	0	0	0	496	511	0	0	
2	0	0	0	0	496	508	0	0	
3	0	0	0	0	483	508	0	0	
4	0	0	0	0	481	508	0	0	
5	0	0	0	0	473	508	0	0	
6	0	0	0	0	465	508	0	0	
7	0	0	0	0	463	508	0	0	
8	0	0	0	0	472	508	0	0	
9	0	0	0	0	480	510	0	0	
10	0	0	0	0	480	508	0	0	
11	0	0	0	0	483	511	0	0	
12	0	0	0	0	487	512	0	0	
13	0	0	0	0	483	511	0	0	
14	0	0	0	0	483	510	0	0	
15	0	0	0	0	487	510	0	0	
0	0	0	0	0	483	510	0	0	
1	0	0	0	0	489	510	0	0	
2	0	0	0	0	496	511	0	0	
3	0	0	0	0	492	508	0	0	
4	0	0	0	0	487	508	0	0	
5	0	0	0	0	480	508	0	0	
6	0	0	0	0	472	508	0	0	
7	0	0	0	0	463	510	0	0	
8	0	0	0	0	460	508	0	0	
9	0	0	0	0	455	508	0	0	
10	0	0	0	0	460	508	0	0	
11	0	0	0	0	460	508	0	0	
12	0	0	0	0	460	508	0	0	
13	0	0	0	0	463	511	0	0	
14	0	0	0	0	465	510	0	0	
15	0	0	0	0	463	511	0	0	
0	0	0	0	0	472	511	0	0	
1	0	0	0	0	472	511	0	0	
2	0	0	0	0	472	508	0	0	
3	0	0	0	0	480	510	0	0	
4	0	0	0	0	481	510	0	0	
5	0	0	0	0	481	510	0	0	
6	0	0	0	0	481	505	0	0	
7	0	0	0	0	476	510	0	0	
8	0	0	0	0	472	508	0	0	
9	0	0	0	0	473	510	0	0	
10	0	0	0	0	472	510	0	0	
11	0	0	0	0	472	508	0	0	
12	0	0	0	0	472	508	0	0	
13	0	0	0	0	472	511	0	0	
14	0	0	0	0	472	508	0	0	
15	0	0	0	0	467	508	0	0	
0	0	0	0	0	465	510	0	0	
1	0	0	0	0	472	510	0	0	
2	0	0	0	0	480	510	0	0	
3	0	0	0	0	480	510	0	0	
4	0	0	0	0	480	510	0	0	
5	0	0	0	0	480	511	0	0	
6	0	0	0	0	480	511	0	0	
7	0	0	0	0	480	511	0	0	
8	0	0	0	0	467	512	0	0	
9	0	0	0	0	476	512	0	0	
10	0	0	0	0	480	508	0	0	
11	0	0	0	0	481	510	0	0	
12	0	0	0	0	478	511	0	0	
13	0	0	0	0	480	508	0	0	
14	0	0	0	0	480	508	0	0	
15	0	0	0	0	472	508	0	0	
0	0	0	0	0	472	510	0	0	
1	0	0	0	0	472	511	0	0	
2	0	0	0	0	472	510	0	0	
3	0	0	0	0	473	510	0	0	
4	0	0	0	0	472	508	0	0	
5	0	0	0	0	476	512	0	0	
6	0	0	0	0	478	508	0	0	
7	0	0	0	0	476	512	0	0	
8	0	0	0	0	480	511	0	0	
9	0	0	0	0	476	510	0	0	
10	0	0	0	0	472	510	0	0	
11	0	0	0	0	472	511	0	0	
12	0	0	0	0	472	508	0	0	
13	0	0	0	0	472	510	0	0	
14	0	0	0	0	472	510	0	0	
15	0	0	0	0	472	510	0	0	
0	0	0	0	0	480	508	0	0	
1	0	0	0	0	499	508	0	0	
2	0	0	0	0	497	508	0	0	
3	0	0	0	0	487	504	0	0	
4	0	0	0	0	481	510	0	0	
5	0	0	0	0	476	508	0	0	
6	0	0	0	0	467	508	0	0	
7	0	0	0	0	463	510	0	0	
8	0	0	0	0	463	510	0	0	
9	0	0	0	0	467	511	0	0	
10	0	0	0	0	472	511	0	0	
11	0	0	0	0	472	511	0	0	
12	0	0	0	0	476	508	0	0	
13	0	0	0	0	472	504	0	0	
14	0	0	0	0	472	508	0	0	
15	0	0	0	0	472	511	0	0	
0	0	0	0	0	472	510	0	0	
1	0	0	0	0	472	510	0	0	
2	0	0	0	0	480	508	0	0	
3	0	0	0	0	481	511	0	0	
4	0	0	0	0	480	512	0	0	
5	0	0	0	0	486	510	0	0	
6	0	0	0	0	486	511	0	0	
7	0	0	0	0	480	508	0	0	
8	0	0	0	0	476	510	0	0	
9	0	0	0	0	472	510	0	0	
10	0	0	0	0	467	512	0	0	
11	0	0	0	0	472	510	0	0	
12	0	0	0	0	472	510	0	0	
13	0	0	0	0	472	510	0	0	
14	0	0	0	0	472	511	0	0	
15	0	0	0	0	476	510	0	0	
0	0	0	0	0	476	511	0	0	
1	0	0	0	0	472	511	0	0	
2	0	0	0	0	476	510	0	0	
3	0	0	0	0	480	510	0	0	
4	0	0	0	0	480	511	0	0	
5	0	0	0	0	481	510	0	0	
6	0	0	0	0	483	510	0	0	
7	0	0	0	0	480	508	0	0	
8	0	0	0	0	480	508	0	0	
9	0	0	0	0	480	511	0	0	
10	0	0	0	0	476	508	0	0	
11	0	0	0	0	476	508	0	0	
12	0	0	0	0	476	508	0	0	
13	0	0	0	0	467	512	0	0	
14	0	0	0	0	463	508	0	0	
15	0	0	0	0	460	511	0	0	
0	0	0	0	0	463	512	0	0	
1	0	0	0	0	472	511	0	0	
2	0	0	0	0	467	508	0	0	
3	0	0	0	0	472	510	0	0	
4	0	0	0	0	480	508	0	0	
5	0	0	0	0	480	505	0	0	
6	0	0	0	0	481	508	0	0	
7	0	0	0	0	483	510	0	0	
8	0	0	0	0	486	510	0	0	
9	0	0	0	0	480	510	0	0	
10	0	0	0	0	483	510	0	0	
11	0	0	0	0	495	511	0	0	
12	0	0	0	0	483	510	0	0	
13	0	0	0	0	462	511	0	0	
14	0	0	0	0	454	510	0	0	
15	0	0	0	0	460	511	0	0	
0	0	0	0	0	460	512	0	0	
1	0	0	0	0	463	508	0	0	
2	0	0	0	0	463	508	0	0	
3	0	0	0	0	462	510	0	0	
4	0	0	0	0	460	510	0	0	
5	0	0	0	0	463	511	0	0	
6	0	0	0	0	483	510	0	0	
7	0	0	0	0	496	510	0	0	
8	0	0	0	0	487	508	0	0	
9	0	0	0	0	480	508	0	0	
10	0	0	0	0	478	511	0	0	
11	0	0	0	0	480	511	0	0	
12	0	0	0	0	483	510	0	0	
13	0	0	0	0	492	511	0	0	
14	0	0	0	0	487	512	0	0	
15	0	0	0	0	480	510	0	0	
0	0	0	0	0	467	504	0	0	
1	0	0	0	0	455	508	0	0	
2	0	0	0	0	462	508	0	0	
3	0	0	0	0	467	508	0	0	
4	0	0	0	0	472	511	0	0	
5	0	0	0	0	465	508	0	0	
6	0	0	0	0	463	510	0	0	
7	0	0	0	0	463	512	0	0	
8	0	0	0	0	463	511	0	0	
9	0	0	0	0	470	511	0	0	
10	0	0	0	0	478	510	0	0	
11	0	0	0	0	483	510	0	0	
12	0	0	0	0	487	510	0	0	
13	0	0	0	0	487	511	0	0	
14	0	0	0	0	483	511	0	0	
15	0	0	0	0	483	511	0	0	
0	0	0	0	0	476	511	0	0	
1	0	0	0	0	472	513	0	0	
2	0	0	0	0	472	511	0	0	
3	0	0	0	0	476	511	0	0	
4	0	0	0	0	472	512	0	0	
5	0	0	0	0	472	508	0	0	
6	0	0	0	0	472	508	0	0	
7	0	0	0	0	472	510	0	0	
8	0	0	0	0	470	510	0	0	
9	0	0	0	0	463	508	0	0	
10	0	0	0	0	463	510	0	0	
11	0	0	0	0	472	511	0	0	
12	0	0	0	0	473	511	0	0	
13	0	0	0	0	467	510	0	0	
14	0	0	0	0	467	511	0	0	
15	0	0	0	0	480	508	0	0	
0	0	0	0	0	480	508	0	0	
1	0	0	0	0	480	510	0	0	
2	0	0	0	0	481	508	0	0	
3	0	0	0	0	483	510	0	0	
4	0	0	0	0	481	508	0	0	
5	0	0	0	0	483	510	0	0	
6	0	0	0	0	481	508	0	0	
7	0	0	0	0	481	508	0	0	
8	0	0	0	0	478	508	0	0	
9	0	0	0	0	478	510	0	0	
10	0	0	0	0	476	508	0	0	
11	0	0	0	0	476	508	0	0	
12	0	0	0	0	472	508	0	0	
13	0	0	0	0	463	508	0	0	
14	0	0	0	0	463	504	0	0	
15	0	0	0	0	467	504	0	0	
0	0	0	0	0	472	508	0	0	
1	0	0	0	0	467	505	0	0	
2	0	0	0	0	480	508	0	0	
3	0	0	0	0	492	508	0	0	
4	0	0	0	0	496	511	0	0	
5	0	0	0	0	492	510	0	0	
6	0	0	0	0	487	510	0	0	
7	0	0	0	0	481	508	0	0	
8	0	0	0	0	480	511	0	0	
9	0	0	0	0	480	508	0	0	
10	0	0	0	0	483	508	0	0	
11	0	0	0	0	480	510	0	0	
12	0	0	0	0	480	508	0	0	
13	0	0	0	0	480	508	0	0	
14	0	0	0	0	476	508	0	0	
15	0	0	0	0	476	510	0	0	
0	0	0	0	0	472	508	0	0	
1	0	0	0	0	463	508	0	0	
2	0	0	0	0	463	510	0	0	
3	0	0	0	0	455	511	0	0	
4	0	0	0	0	449	512	0	0	
5	0	0	0	0	448	510	0	0	
6	0	0	0	0	448	511	0	0	
7	0	0	0	0	448	511	0	0	
8	0	0	0	0	449	512	0	0	
9	0	0	0	0	462	508	0	0	
10	0	0	0	0	472	510	0	0	
11	0	0	0	0	494	511	0	0	
12	0	0	0	0	508	512	0	0	
13	0	0	0	0	492	511	0	0	
14	0	0	0	0	487	510	0	0	
15	0	0	0	0	483	511	0	0	
0	0	0	0	0	480	511	0	0	
1	0	0	0	0	472	508	0	0	
2	0	0	0	0	472	508	0	0	
3	0	0	0	0	472	504	0	0	
4	0	0	0	0	467	505	0	0	
5	0	0	0	0	472	510	0	0	
6	0	0	0	0	476	511	0	0	
7	0	0	0	0	472	512	0	0	
8	0	0	0	0	472	508	0	0	
9	0	0	0	0	470	510	0	0	
10	0	0	0	0	467	511	0	0	
11	0	0	0	0	472	511	0	0	
12	0	0	0	0	476	511	0	0	
13	0	0	0	0	476	508	0	0	
14	0	0	0	0	478	512	0	0	
15	0	0	0	0	480	511	0	0	
0	0	0	0	0	481	508	0	0	
1	0	0	0	0	480	510	0	0	
2	0	0	0	0	472	508	0	0	
3	0	0	0	0	472	510	0	0	
4	0	0	0	0	472	510	0	0	
5	0	0	0	0	472	508	0	0	
6	0	0	0	0	476	508	0	0	
7	0	0	0	0	480	510	0	0	
8	0	0	0	0	486	510	0	0	
9	0	0	0	0	481	508	0	0	
10	0	0	0	0	473	508	0	0	
11	0	0	0	0	472	510	0	0	
12	0	0	0	0	472	508	0	0	
13	0	0	0	0	455	510	0	0	
14	0	0	0	0	455	511	0	0	
15	0	0	0	0	460	511	0	0	
0	0	0	0	0	465	510	0	0	
1	0	0	0	0	480	510	0	0	
2	0	0	0	0	487	510	0	0	
3	0	0	0	0	496	511	0	0	
4	0	0	0	0	496	511	0	0	
5	0	0	0	0	496	511	0	0	
6	0	0	0	0	483	508	0	0	
7	0	0	0	0	480	508	0	0	
8	0	0	0	0	473	510	0	0	
9	0	0	0	0	463	508	0	0	
10	0	0	0	0	472	508	0	0	
11	0	0	0	0	480	508	0	0	
12	0	0	0	0	476	508	0	0	
13	0	0	0	0	462	510	0	0	
14	0	0	0	0	460	511	0	0	
15	0	0	0	0	463	510	0	0	
0	0	0	0	0	467	508	0	0	
1	0	0	0	0	463	510	0	0	
2	0	0	0	0	467	511	0	0	
3	0	0	0	0	476	511	0	0	
4	0	0	0	0	480	510	0	0	
5	0	0	0	0	481	510	0	0	
6	0	0	0	0	480	505	0	0	
7	0	0	0	0	480	508	0	0	
8	0	0	0	0	472	510	0	0	
9	0	0	0	0	467	510	0	0	
10	0	0	0	0	472	510	0	0	
11	0	0	0	0	476	511	0	0	
12	0	0	0	0	473	510	0	0	
13	0	0	0	0	472	511	0	0	
14	0	0	0	0	472	510	0	0	
15	0	0	0	0	472	510	0	0	
0	0	0	0	0	467	510	0	0	
1	0	0	0	0	472	508	0	0	
2	0	0	0	0	472	510	0	0	
3	0	0	0	0	481	510	0	0	
4	0	0	0	0	496	508	0	0	
5	0	0	0	0	480	510	0	0	
6	0	0	0	0	472	508	0	0	
7	0	0	0	0	480	511	0	0	
8	0	0	0	0	483	511	0	0	
9	0	0	0	0	487	512	0	0	
10	0	0	0	0	480	510	0	0	
11	0	0	0	0	481	508	0	0	
12	0	0	0	0	480	511	0	0	
13	0	0	0	0	472	508	0	0	
14	0	0	0	0	473	511	0	0	
15	0	0	0	0	473	510	0	0	
0	0	0	0	0	476	511	0	0	
1	0	0	0	0	476	510	0	0	
2	0	0	0	0	480	510	0	0	
3	0	0	0	0	473	510	0	0	
4	0	0	0	0	467	508	0	0	
5	0	0	0	0	463	511	0	0	
6	0	0	0	0	462	508	0	0	
7	0	0	0	0	448	510	0	0	
8	0	0	0	0	449	511	0	0	
9	0	0	0	0	463	510	0	0	
10	0	0	0	0	476	508	0	0	
11	0	0	0	0	480	511	0	0	
12	0	0	0	0	476	511	0	0	
13	0	0	0	0	472	508	0	0	
14	0	0	0	0	476	511	0	0	
15	0	0	0	0	480	511	0	0	
0	0	0	0	0	483	508	0	0	
1	0	0	0	0	483	511	0	0	
2	0	0	0	0	483	508	0	0	
3	0	0	0	0	487	504	0	0	
4	0	0	0	0	483	510	0	0	
5	0	0	0	0	480	508	0	0	
6	0	0	0	0	473	508	0	0	
7	0	0	0	0	472	508	0	0	
8	0	0	0	0	467	508	0	0	
9	0	0	0	0	472	508	0	0	
10	0	0	0	0	476	508	0	0	
11	0	0	0	0	476	510	0	0	
12	0	0	0	0	472	510	0	0	
13	0	0	0	0	472	508	0	0	
14	0	0	0	0	476	511	0	0	
15	0	0	0	0	472	508	0	0	
0	0	0	0	0	476	510	0	0	
1	0	0	0	0	480	508	0	0	
2	0	0	0	0	481	508	0	0	
3	0	0	0	0	483	508	0	0	
4	0	0	0	0	487	510	0	0	
5	0	0	0	0	483	508	0	0	
6	0	0	0	0	483	508	0	0	
7	0	0	0	0	483	511	0	0	
8	0	0	0	0	483	511	0	0	
9	0	0	0	0	481	508	0	0	
10	0	0	0	0	472	508	0	0	
11	0	0	0	0	463	505	0	0	
12	0	0	0	0	460	508	0	0	
13	0	0	0	0	462	510	0	0	
14	0	0	0	0	463	510	0	0	
15	0	0	0	0	463	508	0	0	
0	0	0	0	0	460	508	0	0	
1	0	0	0	0	462	510	0	0	
2	0	0	0	0	465	512	0	0	
3	0	0	0	0	467	512	0	0	
4	0	0	0	0	472	511	0	0	
5	0	0	0	0	476	510	0	0	
6	0	0	0	0	480	511	0	0	
7	0	0	0	0	483	512	0	0	
8	0	0	0	0	497	512	0	0	
9	0	0	0	0	487	510	0	0	
10	0	0	0	0	473	508	0	0	
11	0	0	0	0	472	508	0	0	
12	0	0	0	0	481	508	0	0	
13	0	0	0	0	487	511	0	0	
14	0	0	0	0	486	508	0	0	
15	0	0	0	0	483	508	0	0	
0	0	0	0	0	480	511	0	0	
1	0	0	0	0	476	511	0	0	
2	0	0	0	0	472	510	0	0	
3	0	0	0	0	472	510	0	0	
4	0	0	0	0	467	510	0	0	
5	0	0	0	0	472	508	0	0	
6	0	0	0	0	472	508	0	0	
7	0	0	0	0	473	511	0	0	
8	0	0	0	0	480	511	0	0	
9	0	0	0	0	487	511	0	0	
10	0	0	0	0	483	511	0	0	
11	0	0	0	0	487	512	0	0	
12	0	0	0	0	487	511	0	0	
13	0	0	0	0	492	511	0	0	
14	0	0	0	0	483	510	0	0	
15	0	0	0	0	476	508	0	0	
0	0	0	0	0	476	508	0	0	
1	0	0	0	0	472	508	0	0	
2	0	0	0	0	472	511	0	0	
3	0	0	0	0	472	508	0	0	
4	0	0	0	0	472	508	0	0	
5	0	0	0	0	472	508	0	0	
6	0	0	0	0	467	504	0	0	
7	0	0	0	0	465	508	0	0	
8	0	0	0	0	467	508	0	0	
9	0	0	0	0	467	508	0	0	
10	0	0	0	0	472	510	0	0	
11	0	0	0	0	472	511	0	0	
12	0	0	0	0	472	511	0	0	
13	0	0	0	0	481	508	0	0	
14	0	0	0	0	492	510	0	0	
15	0	0	0	0	494	508	0	0	
0	0	0	0	0	487	508	0	0	
1	0	0	0	0	487	508	0	0	
2	0	0	0	0	480	508	0	0	
3	0	0	0	0	476	510	0	0	
4	0	0	0	0	476	508	0	0	
5	0	0	0	0	467	508	0	0	
6	0	0	0	0	463	508	0	0	
7	0	0	0	0	455	510	0	0	
8	0	0	0	0	455	510	0	0	
9	0	0	0	0	463	508	0	0	
10	0	0	0	0	470	511	0	0	
11	0	0	0	0	467	510	0	0	
12	0	0	0	0	467	510	0	0	
13	0	0	0	0	472	511	0	0	
14	0	0	0	0	476	511	0	0	
15	0	0	0	0	480	511	0	0	
0	0	0	0	0	481	511	0	0	
1	0	0	0	0	483	508	0	0	
2	0	0	0	0	486	511	0	0	
3	0	0	0	0	483	511	0	0	
4	0	0	0	0	480	510	0	0	
5	0	0	0	0	478	508	0	0	
6	0	0	0	0	476	510	0	0	
7	0	0	0	0	472	510	0	0	
8	0	0	0	0	472	510	0	0	
9	0	0	0	0	476	510	0	0	
10	0	0	0	0	473	508	0	0	
11	0	0	0	0	472	508	0	0	
12	0	0	0	0	472	508	0	0	
13	0	0	0	0	467	508	0	0	
14	0	0	0	0	472	510	0	0	
15	0	0	0	0	478	511	0	0	
0	0	0	0	0	473	512	0	0	
1	0	0	0	0	472	510	0	0	
2	0	0	0	0	465	511	0	0	
3	0	0	0	0	472	511	0	0	
4	0	0	0	0	472	511	0	0	
5	0	0	0	0	463	508	0	0	
6	0	0	0	0	462	510	0	0	
7	0	0	0	0	455	511	0	0	
8	0	0	0	0	463	511	0	0	
9	0	0	0	0	476	510	0	0	
10	0	0	0	0	480	513	0	0	
11	0	0	0	0	483	512	0	0	
12	0	0	0	0	487	510	0	0	
13	0	0	0	0	483	510	0	0	
14	0	0	0	0	480	511	0	0	
15	0	0	0	0	480	508	0	0	
0	0	0	0	0	476	508	0	0	
1	0	0	0	0	467	511	0	0	
2	0	0	0	0	463	508	0	0	
3	0	0	0	0	463	511	0	0	
4	0	0	0	0	460	511	0	0	
5	0	0	0	0	460	512	0	0	
6	0	0	0	0	465	511	0	0	
7	0	0	0	0	473	511	0	0	
8	0	0	0	0	480	512	0	0	
9	0	0	0	0	492	512	0	0	
10	0	0	0	0	492	512	0	0	
11	0	0	0	0	487	511	0	0	
12	0	0	0	0	492	511	0	0	
13	0	0	0	0	504	511	0	0	
14	0	0	0	0	499	510	0	0	
15	0	0	0	0	476	508	0	0	
0	0	0	0	0	472	508	0	0	
1	0	0	0	0	462	508	0	0	
2	0	0	0	0	455	508	0	0	
3	0	0	0	0	467	508	0	0	
4	0	0	0	0	480	504	0	0	
5	0	0	0	0	480	508	0	0	
6	0	0	0	0	473	508	0	0	
7	0	0	0	0	472	511	0	0	
8	0	0	0	0	476	510	0	0	
9	0	0	0	0	473	508	0	0	
10	0	0	0	0	473	510	0	0	
11	0	0	0	0	480	508	0	0	
12	0	0	0	0	480	511	0	0	
13	0	0	0	0	480	508	0	0	
14	0	0	0	0	480	510	0	0	
15	0	0	0	0	480	510	0	0	
0	0	0	0	0	483	510	0	0	
1	0	0	0	0	483	508	0	0	
2	0	0	0	0	476	510	0	0	
3	0	0	0	0	467	508	0	0	
4	0	0	0	0	472	508	0	0	
5	0	0	0	0	472	511	0	0	
6	0	0	0	0	465	508	0	0	
7	0	0	0	0	470	510	0	0	
8	0	0	0	0	472	510	0	0	
9	0	0	0	0	473	508	0	0	
10	0	0	0	0	473	508	0	0	
11	0	0	0	0	472	508	0	0	
12	0	0	0	0	472	505	0	0	
13	0	0	0	0	467	508	0	0	
14	0	0	0	0	472	510	0	0	
15	0	0	0	0	476	508	0	0	
0	0	0	0	0	480	508	0	0	
1	0	0	0	0	480	510	0	0	
2	0	0	0	0	480	511	0	0	
3	0	0	0	0	480	508	0	0	
4	0	0	0	0	480	510	0	0	
5	0	0	0	0	481	510	0	0	
6	0	0	0	0	476	510	0	0	
7	0	0	0	0	480	510	0	0	
8	0	0	0	0	476	508	0	0	
9	0	0	0	0	472	508	0	0	
10	0	0	0	0	472	508	0	0	
11	0	0	0	0	476	508	0	0	
12	0	0	0	0	480	511	0	0	
13	0	0	0	0	476	511	0	0	
14	0	0	0	0	472	510	0	0	
15	0	0	0	0	472	510	0	0	
0	0	0	0	0	472	511	0	0	
1	0	0	0	0	476	512	0	0	
2	0	0	0	0	476	511	0	0	
3	0	0	0	0	472	511	0	0	
4	0	0	0	0	472	510	0	0	
5	0	0	0	0	476	512	0	0	
6	0	0	0	0	480	513	0	0	
7	0	0	0	0	481	512	0	0	
8	0	0	0	0	487	511	0	0	
9	0	0	0	0	487	511	0	0	
10	0	0	0	0	483	508	0	0	
11	0	0	0	0	481	510	0	0	
12	0	0	0	0	480	511	0	0	
13	0	0	0	0	476	511	0	0	
14	0	0	0	0	467	505	0	0	
15	0	0	0	0	472	508	0	0	
0	0	0	0	0	467	508	0	0	
1	0	0	0	0	463	504	0	0	
2	0	0	0	0	467	508	0	0	
3	0	0	0	0	476	510	0	0	
4	0	0	0	0	472	508	0	0	
5	0	0	0	0	481	508	0	0	
6	0	0	0	0	483	511	0	0	
7	0	0	0	0	480	508	0	0	
8	0	0	0	0	472	511	0	0	
9	0	0	0	0	467	508	0	0	
10	0	0	0	0	480	511	0	0	
11	0	0	0	0	483	511	0	0	
12	0	0	0	0	480	513	0	0	
13	0	0	0	0	476	511	0	0	
14	0	0	0	0	480	508	0	0	
15	0	0	0	0	494	510	0	0	
0	0	0	0	0	496	510	0	0	
1	0	0	0	0	487	508	0	0	
2	0	0	0	0	480	510	0	0	
3	0	0	0	0	476	508	0	0	
4	0	0	0	0	472	508	0	0	
5	0	0	0	0	463	508	0	0	
6	0	0	0	0	463	510	0	0	
7	0	0	0	0	472	511	0	0	
8	0	0	0	0	467	510	0	0	
9	0	0	0	0	470	508	0	0	
10	0	0	0	0	467	510	0	0	
11	0	0	0	0	476	512	0	0	
12	0	0	0	0	480	512	0	0	
13	0	0	0	0	480	512	0	0	
14	0	0	0	0	476	512	0	0	
15	0	0	0	0	473	510	0	0	
0	0	0	0	0	472	508	0	0	
1	0	0	0	0	472	510	0	0	
2	0	0	0	0	480	508	0	0	
3	0	0	0	0	476	508	0	0	
4	0	0	0	0	473	508	0	0	
5	0	0	0	0	472	504	0	0	
6	0	0	0	0	467	505	0	0	
7	0	0	0	0	472	508	0	0	
8	0	0	0	0	465	504	0	0	
9	0	0	0	0	463	510	0	0	
10	0	0	0	0	463	510	0	0	
11	0	0	0	0	465	508	0	0	
12	0	0	0	0	467	508	0	0	
13	0	0	0	0	467	511	0	0	
14	0	0	0	0	463	511	0	0	
15	0	0	0	0	463	510	0	0	
0	0	0	0	0	467	512	0	0	
1	0	0	0	0	476	511	0	0	
2	0	0	0	0	480	510	0	0	
3	0	0	0	0	480	510	0	0	
4	0	0	0	0	480	510	0	0	
5	0	0	0	0	483	511	0	0	
6	0	0	0	0	483	511	0	0	
7	0	0	0	0	481	504	0	0	
8	0	0	0	0	480	508	0	0	
9	0	0	0	0	480	511	0	0	
10	0	0	0	0	480	508	0	0	
11	0	0	0	0	480	508	0	0	
12	0	0	0	0	480	508	0	0	
13	0	0	0	0	476	510	0	0	
14	0	0	0	0	478	511	0	0	
15	0	0	0	0	480	510	0	0	
0	0	0	0	0	472	511	0	0	
1	0	0	0	0	467	511	0	0	
2	0	0	0	0	472	512	0	0	
3	0	0	0	0	481	512	0	0	
4	0	0	0	0	487	512	0	0	
5	0	0	0	0	487	510	0	0	
6	0	0	0	0	480	508	0	0	
7	0	0	0	0	480	511	0	0	
8	0	0	0	0	473	511	0	0	
9	0	0	0	0	470	511	0	0	
10	0	0	0	0	480	510	0	0	
11	0	0	0	0	476	508	0	0	
12	0	0	0	0	472	508	0	0	
13	0	0	0	0	472	511	0	0	
14	0	0	0	0	467	508	0	0	
15	0	0	0	0	463	504	0	0	
0	0	0	0	0	462	508	0	0	
1	0	0	0	0	457	508	0	0	
2	0	0	0	0	462	510	0	0	
3	0	0	0	0	460	508	0	0	
4	0	0	0	0	460	504	0	0	
5	0	0	0	0	465	508	0	0	
6	0	0	0	0	472	508	0	0	
7	0	0	0	0	483	508	0	0	
8	0	0	0	0	504	511	0	0	
9	0	0	0	0	496	510	0	0	
10	0	0	0	0	481	510	0	0	
11	0	0	0	0	481	511	0	0	
12	0	0	0	0	487	511	0	0	
13	0	0	0	0	481	511	0	0	
14	0	0	0	0	483	510	0	0	
15	0	0	0	0	481	508	0	0	
0	0	0	0	0	476	508	0	0	
1	0	0	0	0	472	511	0	0	
2	0	0	0	0	476	511	0	0	
3	0	0	0	0	480	510	0	0	
4	0	0	0	0	480	511	0	0	
5	0	0	0	0	480	510	0	0	
6	0	0	0	0	480	511	0	0	
7	0	0	0	0	478	508	0	0	
8	0	0	0	0	472	508	0	0	
9	0	0	0	0	463	508	0	0	
10	0	0	0	0	467	508	0	0	
11	0	0	0	0	472	508	0	0	
12	0	0	0	0	472	510	0	0	
13	0	0	0	0	472	508	0	0	
14	0	0	0	0	480	511	0	0	
15	0	0	0	0	476	511	0	0	
0	0	0	0	0	476	508	0	0	
1	0	0	0	0	480	510	0	0	
2	0	0	0	0	481	508	0	0	
3	0	0	0	0	480	508	0	0	
4	0	0	0	0	476	508	0	0	
5	0	0	0	0	476	510	0	0	
6	0	0	0	0	472	510	0	0	
7	0	0	0	0	476	508	0	0	
8	0	0	0	0	480	508	0	0	
9	0	0	0	0	473	508	0	0	
10	0	0	0	0	472	508	0	0	
11	0	0	0	0	467	508	0	0	
12	0	0	0	0	467	508	0	0	
13	0	0	0	0	467	508	0	0	
14	0	0	0	0	472	510	0	0	
15	0	0	0	0	476	510	0	0	
0	0	0	0	0	481	511	0	0	
1	0	0	0	0	487	512	0	0	
2	0	0	0	0	496	511	0	0	
3	0	0	0	0	486	512	0	0	
4	0	0	0	0	480	511	0	0	
5	0	0	0	0	472	510	0	0	
6	0	0	0	0	472	508	0	0	
7	0	0	0	0	472	508	0	0	
8	0	0	0	0	472	510	0	0	
9	0	0	0	0	472	508	0	0	
10	0	0	0	0	463	510	0	0	
11	0	0	0	0	460	508	0	0	
12	0	0	0	0	463	508	0	0	
13	0	0	0	0	465	510	0	0	
14	0	0	0	0	463	508	0	0	
15	0	0	0	0	463	508	0	0	
0	0	0	0	0	467	508	0	0	
1	0	0	0	0	465	510	0	0	
2	0	0	0	0	467	510	0	0	
3	0	0	0	0	467	510	0	0	
4	0	0	0	0	463	510	0	0	
5	0	0	0	0	472	511	0	0	
6	0	0	0	0	487	512	0	0	
7	0	0	0	0	487	511	0	0	
8	0	0	0	0	483	512	0	0	
9	0	0	0	0	480	511	0	0	
10	0	0	0	0	480	511	0	0	
11	0	0	0	0	476	511	0	0	
12	0	0	0	0	480	508	0	0	
13	0	0	0	0	483	511	0	0	
14	0	0	0	0	473	511	0	0	
15	0	0	0	0	463	510	0	0	
0	0	0	0	0	472	508	0	0	
1	0	0	0	0	483	511	0	0	
2	0	0	0	0	481	511	0	0	
3	0	0	0	0	472	510	0	0	
4	0	0	0	0	463	510	0	0	
5	0	0	0	0	472	508	0	0	
6	0	0	0	0	476	511	0	0	
7	0	0	0	0	480	511	0	0	
8	0	0	0	0	480	511	0	0	
9	0	0	0	0	480	511	0	0	
10	0	0	0	0	481	511	0	0	
11	0	0	0	0	483	513	0	0	
12	0	0	0	0	480	510	0	0	
13	0	0	0	0	483	511	0	0	
14	0	0	0	0	483	510	0	0	
15	0	0	0	0	480	508	0	0	
0	0	0	0	0	472	511	0	0	
1	0	0	0	0	472	510	0	0	
2	0	0	0	0	472	512	0	0	
3	0	0	0	0	472	510	0	0	
4	0	0	0	0	476	510	0	0	
5	0	0	0	0	467	510	0	0	
6	0	0	0	0	463	508	0	0	
7	0	0	0	0	462	508	0	0	
8	0	0	0	0	462	508	0	0	
9	0	0	0	0	460	508	0	0	
10	0	0	0	0	465	508	0	0	
11	0	0	0	0	472	508	0	0	
12	0	0	0	0	472	508	0	0	
13	0	0	0	0	472	511	0	0	
14	0	0	0	0	472	511	0	0	
15	0	0	0	0	472	510	0	0	
0	0	0	0	0	476	510	0	0	
1	0	0	0	0	480	508	0	0	
2	0	0	0	0	486	511	0	0	
3	0	0	0	0	496	510	0	0	
4	0	0	0	0	487	511	0	0	
5	0	0	0	0	476	508	0	0	
6	0	0	0	0	472	508	0	0	
7	0	0	0	0	472	510	0	0	
8	0	0	0	0	463	504	0	0	
9	0	0	0	0	465	511	0	0	
10	0	0	0	0	472	510	0	0	
11	0	0	0	0	476	508	0	0	
12	0	0	0	0	472	508	0	0	
13	0	0	0	0	473	510	0	0	
14	0	0	0	0	476	511	0	0	
15	0	0	0	0	476	511	0	0	
0	0	0	0	0	478	510	0	0	
1	0	0	0	0	486	510	0	0	
2	0	0	0	0	487	512	0	0	
3	0	0	0	0	483	513	0	0	
4	0	0	0	0	478	511	0	0	
5	0	0	0	0	472	511	0	0	
6	0	0	0	0	467	511	0	0	
7	0	0	0	0	480	510	0	0	
8	0	0	0	0	487	508	0	0	
9	0	0	0	0	492	504	0	0	
10	0	0	0	0	487	508	0	0	
11	0	0	0	0	480	504	0	0	
12	0	0	0	0	472	505	0	0	
13	0	0	0	0	467	508	0	0	
14	0	0	0	0	472	508	0	0	
15	0	0	0	0	472	508	0	0	
0	0	0	0	0	476	508	0	0	
1	0	0	0	0	481	510	0	0	
2	0	0	0	0	481	508	0	0	
3	0	0	0	0	483	511	0	0	
4	0	0	0	0	481	511	0	0	
5	0	0	0	0	483	512	0	0	
6	0	0	0	0	480	511	0	0	
7	0	0	0	0	480	510	0	0	
8	0	0	0	0	480	513	0	0	
9	0	0	0	0	478	511	0	0	
10	0	0	0	0	483	508	0	0	
11	0	0	0	0	487	511	0	0	
12	0	0	0	0	486	511	0	0	
13	0	0	0	0	476	511	0	0	
14	0	0	0	0	463	508	0	0	
15	0	0	0	0	451	508	0	0	
0	0	0	0	0	451	508	0	0	
1	0	0	0	0	460	508	0	0	
2	0	0	0	0	463	508	0	0	
3	0	0	0	0	463	508	0	0	
4	0	0	0	0	467	508	0	0	
5	0	0	0	0	472	511	0	0	
6	0	0	0	0	472	510	0	0	
7	0	0	0	0	472	508	0	0	
8	0	0	0	0	480	510	0	0	
9	0	0	0	0	492	511	0	0	
10	0	0	0	0	508	511	0	0	
11	0	0	0	0	497	508	0	0	
12	0	0	0	0	487	511	0	0	
13	0	0	0	0	487	511	0	0	
14	0	0	0	0	487	508	0	0	
15	0	0	0	0	481	510	0	0	
0	0	0	0	0	480	511	0	0	
1	0	0	0	0	480	511	0	0	
2	0	0	0	0	478	510	0	0	
3	0	0	0	0	476	511	0	0	
4	0	0	0	0	472	511	0	0	
5	0	0	0	0	467	510	0	0	
6	0	0	0	0	467	508	0	0	
7	0	0	0	0	467	508	0	0	
8	0	0	0	0	462	510	0	0	
9	0	0	0	0	463	508	0	0	
10	0	0	0	0	467	512	0	0	
11	0	0	0	0	472	511	0	0	
12	0	0	0	0	467	510	0	0	
13	0	0	0	0	465	511	0	0	
14	0	0	0	0	472	510	0	0	
15	0	0	0	0	476	511	0	0	
0	0	0	0	0	476	508	0	0	
1	0	0	0	0	480	510	0	0	
2	0	0	0	0	480	510	0	0	
3	0	0	0	0	476	508	0	0	
4	0	0	0	0	476	508	0	0	
5	0	0	0	0	473	508	0	0	
6	0	0	0	0	472	508	0	0	
7	0	0	0	0	472	510	0	0	
8	0	0	0	0	472	510	0	0	
9	0	0	0	0	467	508	0	0	
10	0	0	0	0	472	511	0	0	
11	0	0	0	0	467	508	0	0	
12	0	0	0	0	463	508	0	0	
13	0	0	0	0	463	510	0	0	
14	0	0	0	0	463	511	0	0	
15	0	0	0	0	467	510	0	0	
0	0	0	0	0	472	512	0	0	
1	0	0	0	0	480	511	0	0	
2	0	0	0	0	487	511	0	0	
3	0	0	0	0	487	510	0	0	
4	0	0	0	0	480	508	0	0	
5	0	0	0	0	476	510	0	0	
6	0	0	0	0	476	508	0	0	
7	0	0	0	0	472	511	0	0	
8	0	0	0	0	463	510	0	0	
9	0	0	0	0	467	510	0	0	
10	0	0	0	0	472	508	0	0	
11	0	0	0	0	467	508	0	0	
12	0	0	0	0	463	504	0	0	
13	0	0	0	0	465	508	0	0	
14	0	0	0	0	463	508	0	0	
15	0	0	0	0	463	508	0	0	
0	0	0	0	0	463	504	0	0	
1	0	0	0	0	463	508	0	0	
2	0	0	0	0	462	510	0	0	
3	0	0	0	0	463	511	0	0	
4	0	0	0	0	476	511	0	0	
5	0	0	0	0	480	510	0	0	
6	0	0	0	0	473	511	0	0	
7	0	0	0	0	472	510	0	0	
8	0	0	0	0	480	508	0	0	
9	0	0	0	0	480	510	0	0	
10	0	0	0	0	481	511	0	0	
11	0	0	0	0	487	510	0	0	
12	0	0	0	0	492	508	0	0	
13	0	0	0	0	481	512	0	0	
14	0	0	0	0	480	511	0	0	
15	0	0	0	0	481	508	0	0	
0	0	0	0	0	480	508	0	0	
1	0	0	0	0	472	508	0	0	
2	0	0	0	0	463	504	0	0	
3	0	0	0	0	455	508	0	0	
4	0	0	0	0	462	508	0	0	
5	0	0	0	0	465	511	0	0	
6	0	0	0	0	472	512	0	0	
7	0	0	0	0	480	510	0	0	
8	0	0	0	0	480	511	0	0	
9	0	0	0	0	487	510	0	0	
10	0	0	0	0	492	510	0	0	
11	0	0	0	0	492	510	0	0	
12	0	0	0	0	487	510	0	0	
13	0	0	0	0	480	508	0	0	
14	0	0	0	0	476	508	0	0	
15	0	0	0	0	472	508	0	0	
0	0	0	0	0	463	505	0	0	
1	0	0	0	0	463	508	0	0	
2	0	0	0	0	463	508	0	0	
3	0	0	0	0	472	511	0	0	
4	0	0	0	0	476	511	0	0	
5	0	0	0	0	472	505	0	0	
6	0	0	0	0	473	508	0	0	
7	0	0	0	0	481	505	0	0	
8	0	0	0	0	496	510	0	0	
9	0	0	0	0	481	510	0	0	
10	0	0	0	0	476	511	0	0	
11	0	0	0	0	480	511	0	0	
12	0	0	0	0	481	511	0	0	
13	0	0	0	0	481	510	0	0	
14	0	0	0	0	481	511	0	0	
15	0	0	0	0	480	510	0	0	
0	0	0	0	0	480	512	0	0	
1	0	0	0	0	480	510	0	0	
2	0	0	0	0	481	508	0	0	
3	0	0	0	0	480	508	0	0	
4	0	0	0	0	480	511	0	0	
5	0	0	0	0	480	512	0	0	
6	0	0	0	0	476	510	0	0	
7	0	0	0	0	473	508	0	0	
8	0	0	0	0	467	508	0	0	
9	0	0	0	0	467	508	0	0	
10	0	0	0	0	465	512	0	0	
11	0	0	0	0	463	511	0	0	
12	0	0	0	0	463	511	0	0	
13	0	0	0	0	463	511	0	0	
14	0	0	0	0	465	510	0	0	
15	0	0	0	0	472	510	0	0	
0	0	0	0	0	472	510	0	0	
1	0	0	0	0	467	510	0	0	
2	0	0	0	0	467	510	0	0	
3	0	0	0	0	481	511	0	0	
4	0	0	0	0	496	511	0	0	
5	0	0	0	0	504	510	0	0	
6	0	0	0	0	487	510	0	0	
7	0	0	0	0	487	510	0	0	
8	0	0	0	0	480	504	0	0	
9	0	0	0	0	472	508	0	0	
10	0	0	0	0	472	511	0	0	
11	0	0	0	0	463	508	0	0	
12	0	0	0	0	463	508	0	0	
13	0	0	0	0	463	510	0	0	
14	0	0	0	0	472	510	0	0	
15	0	0	0	0	473	508	0	0	
0	0	0	0	0	472	508	0	0	
1	0	0	0	0	473	508	0	0	
2	0	0	0	0	480	508	0	0	
3	0	0	0	0	483	508	0	0	
4	0	0	0	0	487	510	0	0	
5	0	0	0	0	483	508	0	0	
6	0	0	0	0	480	511	0	0	
7	0	0	0	0	480	510	0	0	
8	0	0	0	0	483	511	0	0	
9	0	0	0	0	483	510	0	0	
10	0	0	0	0	481	510	0	0	
11	0	0	0	0	481	508	0	0	
12	0	0	0	0	478	511	0	0	
13	0	0	0	0	480	511	0	0	
14	0	0	0	0	472	511	0	0	
15	0	0	0	0	463	508	0	0	
0	0	0	0	0	463	511	0	0	
1	0	0	0	0	463	508	0	0	
2	0	0	0	0	472	508	0	0	
3	0	0	0	0	472	508	0	0	
4	0	0	0	0	465	510	0	0	
5	0	0	0	0	463	508	0	0	
6	0	0	0	0	472	511	0	0	
7	0	0	0	0	480	511	0	0	
8	0	0	0	0	480	511	0	0	
9	0	0	0	0	478	510	0	0	
10	0	0	0	0	463	508	0	0	
11	0	0	0	0	460	508	0	0	
12	0	0	0	0	460	510	0	0	
13	0	0	0	0	465	510	0	0	
14	0	0	0	0	472	510	0	0	
15	0	0	0	0	476	511	0	0	
0	0	0	0	0	480	511	0	0	
1	0	0	0	0	481	508	0	0	
2	0	0	0	0	487	512	0	0	
3	0	0	0	0	487	508	0	0	
4	0	0	0	0	478	508	0	0	
5	0	0	0	0	476	510	0	0	
6	0	0	0	0	476	510	0	0	
7	0	0	0	0	472	510	0	0	
8	0	0	0	0	472	508	0	0	
9	0	0	0	0	472	510	0	0	
10	0	0	0	0	472	510	0	0	
11	0	0	0	0	473	511	0	0	
12	0	0	0	0	480	512	0	0	
13	0	0	0	0	481	510	0	0	
14	0	0	0	0	483	508	0	0	
15	0	0	0	0	480	510	0	0	
0	0	0	0	0	480	510	0	0	
1	0	0	0	0	476	511	0	0	
2	0	0	0	0	467	510	0	0	
3	0	0	0	0	478	512	0	0	
4	0	0	0	0	487	511	0	0	
5	0	0	0	0	492	508	0	0	
6	0	0	0	0	480	508	0	0	
7	0	0	0	0	465	510	0	0	
8	0	0	0	0	455	508	0	0	
9	0	0	0	0	455	510	0	0	
10	0	0	0	0	467	512	0	0	
11	0	0	0	0	473	510	0	0	
12	0	0	0	0	478	505	0	0	
13	0	0	0	0	472	508	0	0	
14	0	0	0	0	476	508	0	0	
15	0	0	0	0	480	504	0	0	
0	0	0	0	0	476	508	0	0	
1	0	0	0	0	473	508	0	0	
2	0	0	0	0	480	510	0	0	
3	0	0	0	0	487	508	0	0	
4	0	0	0	0	487	511	0	0	
5	0	0	0	0	483	511	0	0	
6	0	0	0	0	480	510	0	0	
7	0	0	0	0	483	508	0	0	
8	0	0	0	0	481	508	0	0	
9	0	0	0	0	480	508	0	0	
10	0	0	0	0	481	510	0	0	
11	0	0	0	0	480	508	0	0	
12	0	0	0	0	472	511	0	0	
13	0	0	0	0	467	511	0	0	
14	0	0	0	0	467	511	0	0	
15	0	0	0	0	463	512	0	0	
0	0	0	0	0	467	511	0	0	
1	0	0	0	0	467	510	0	0	
2	0	0	0	0	472	510	0	0	
3	0	0	0	0	476	510	0	0	
4	0	0	0	0	480	510	0	0	
5	0	0	0	0	480	510	0	0	
6	0	0	0	0	480	508	0	0	
7	0	0	0	0	483	510	0	0	
8	0	0	0	0	483	508	0	0	
9	0	0	0	0	483	508	0	0	
10	0	0	0	0	483	510	0	0	
11	0	0	0	0	480	510	0	0	
12	0	0	0	0	480	510	0	0	
13	0	0	0	0	480	510	0	0	
14	0	0	0	0	476	508	0	0	
15	0	0	0	0	467	508	0	0	
0	0	0	0	0	462	508	0	0	
1	0	0	0	0	463	508	0	0	
2	0	0	0	0	462	510	0	0	
3	0	0	0	0	455	510	0	0	
4	0	0	0	0	455	508	0	0	
5	0	0	0	0	460	505	0	0	
6	0	0	0	0	463	508	0	0	
7	0	0	0	0	476	511	0	0	
8	0	0	0	0	483	510	0	0	
9	0	0	0	0	486	510	0	0	
10	0	0	0	0	483	510	0	0	
11	0	0	0	0	483	511	0	0	
12	0	0	0	0	480	513	0	0	
13	0	0	0	0	476	511	0	0	
14	0	0	0	0	480	511	0	0	
15	0	0	0	0	478	511	0	0	
0	0	0	0	0	463	510	0	0	
1	0	0	0	0	455	510	0	0	
2	0	0	0	0	467	510	0	0	
3	0	0	0	0	480	508	0	0	
4	0	0	0	0	472	510	0	0	
5	0	0	0	0	463	508	0	0	
6	0	0	0	0	465	504	0	0	
7	0	0	0	0	467	508	0	0	
8	0	0	0	0	483	510	0	0	
9	0	0	0	0	504	511	0	0	
10	0	0	0	0	487	510	0	0	
11	0	0	0	0	480	510	0	0	
12	0	0	0	0	476	510	0	0	
13	0	0	0	0	472	508	0	0	
14	0	0	0	0	472	510	0	0	
15	0	0	0	0	478	511	0	0	
0	0	0	0	0	480	511	0	0	
1	0	0	0	0	483	512	0	0	
2	0	0	0	0	487	510	0	0	
3	0	0	0	0	487	508	0	0	
4	0	0	0	0	483	511	0	0	
5	0	0	0	0	481	510	0	0	
6	0	0	0	0	476	510	0	0	
7	0	0	0	0	476	508	0	0	
8	0	0	0	0	473	510	0	0	
9	0	0	0	0	467	510	0	0	
10	0	0	0	0	463	510	0	0	
11	0	0	0	0	463	508	0	0	
12	0	0	0	0	467	510	0	0	
13	0	0	0	0	467	512	0	0	
14	0	0	0	0	463	508	0	0	
15	0	0	0	0	460	511	0	0	
0	0	0	0	0	467	508	0	0	
1	0	0	0	0	480	508	0	0	
2	0	0	0	0	483	510	0	0	
3	0	0	0	0	487	511	0	0	
4	0	0	0	0	486	510	0	0	
5	0	0	0	0	483	511	0	0	
6	0	0	0	0	480	511	0	0	
7	0	0	0	0	476	511	0	0	
8	0	0	0	0	476	511	0	0	
9	0	0	0	0	480	510	0	0	
10	0	0	0	0	480	508	0	0	
11	0	0	0	0	473	508	0	0	
12	0	0	0	0	472	511	0	0	
13	0	0	0	0	472	508	0	0	
14	0	0	0	0	472	510	0	0	
15	0	0	0	0	467	511	0	0	
0	0	0	0	0	460	508	0	0	
1	0	0	0	0	462	511	0	0	
2	0	0	0	0	467	511	0	0	
3	0	0	0	0	472	511	0	0	
4	0	0	0	0	465	511	0	0	
5	0	0	0	0	460	510	0	0	
6	0	0	0	0	463	511	0	0	
7	0	0	0	0	472	511	0	0	
8	0	0	0	0	478	511	0	0	
9	0	0	0	0	480	510	0	0	
10	0	0	0	0	480	510	0	0	
11	0	0	0	0	476	508	0	0	
12	0	0	0	0	480	508	0	0	
13	0	0	0	0	472	511	0	0	
14	0	0	0	0	467	508	0	0	
15	0	0	0	0	476	511	0	0	
0	0	0	0	0	487	510	0	0	
1	0	0	0	0	483	508	0	0	
2	0	0	0	0	476	510	0	0	
3	0	0	0	0	472	510	0	0	
4	0	0	0	0	472	510	0	0	
5	0	0	0	0	463	510	0	0	
6	0	0	0	0	465	511	0	0	
7	0	0	0	0	472	508	0	0	
8	0	0	0	0	480	508	0	0	
9	0	0	0	0	483	510	0	0	
10	0	0	0	0	481	511	0	0	
11	0	0	0	0	473	510	0	0	
12	0	0	0	0	472	511	0	0	
13	0	0	0	0	476	508	0	0	
14	0	0	0	0	472	510	0	0	
15	0	0	0	0	476	510	0	0	
0	0	0	0	0	480	510	0	0	
1	0	0	0	0	480	512	0	0	
2	0	0	0	0	483	510	0	0	
3	0	0	0	0	492	508	0	0	
4	0	0	0	0	499	508	0	0	
5	0	0	0	0	480	505	0	0	
6	0	0	0	0	472	505	0	0	
7	0	0	0	0	472	508	0	0	
8	0	0	0	0	472	508	0	0	
9	0	0	0	0	472	510	0	0	
10	0	0	0	0	476	508	0	0	
11	0	0	0	0	478	510	0	0	
12	0	0	0	0	472	508	0	0	
13	0	0	0	0	476	510	0	0	
14	0	0	0	0	483	508	0	0	
15	0	0	0	0	483	510	0	0	
0	0	0	0	0	486	510	0	0	
1	0	0	0	0	483	512	0	0	
2	0	0	0	0	487	512	0	0	
3	0	0	0	0	487	508	0	0	
4	0	0	0	0	478	512	0	0	
5	0	0	0	0	473	511	0	0	
6	0	0	0	0	472	510	0	0	
7	0	0	0	0	473	511	0	0	
8	0	0	0	0	472	511	0	0	
9	0	0	0	0	472	508	0	0	
10	0	0	0	0	463	511	0	0	
11	0	0	0	0	463	508	0	0	
12	0	0	0	0	460	508	0	0	
13	0	0	0	0	463	511	0	0	
14	0	0	0	0	462	508	0	0	
15	0	0	0	0	455	508	0	0	
0	0	0	0	0	462	511	0	0	
1	0	0	0	0	463	508	0	0	
2	0	0	0	0	472	511	0	0	
3	0	0	0	0	487	512	0	0	
4	0	0	0	0	487	511	0	0	
5	0	0	0	0	487	512	0	0	
6	0	0	0	0	487	508	0	0	
7	0	0	0	0	483	510	0	0	
8	0	0	0	0	480	511	0	0	
9	0	0	0	0	487	508	0	0	
10	0	0	0	0	486	510	0	0	
11	0	0	0	0	480	508	0	0	
12	0	0	0	0	476	510	0	0	
13	0	0	0	0	470	510	0	0	
14	0	0	0	0	460	511	0	0	
15	0	0	0	0	460	512	0	0	
0	0	0	0	0	463	510	0	0	
1	0	0	0	0	472	511	0	0	
2	0	0	0	0	480	510	0	0	
3	0	0	0	0	481	508	0	0	
4	0	0	0	0	483	510	0	0	
5	0	0	0	0	483	508	0	0	
6	0	0	0	0	483	511	0	0	
7	0	0	0	0	480	510	0	0	
8	0	0	0	0	480	511	0	0	
9	0	0	0	0	480	510	0	0	
10	0	0	0	0	480	508	0	0	
11	0	0	0	0	480	508	0	0	
12	0	0	0	0	476	511	0	0	
13	0	0	0	0	472	510	0	0	
14	0	0	0	0	467	508	0	0	
15	0	0	0	0	463	505	0	0	
0	0	0	0	0	478	508	0	0	
1	0	0	0	0	480	505	0	0	
2	0	0	0	0	463	508	0	0	
3	0	0	0	0	463	510	0	0	
4	0	0	0	0	463	511	0	0	
5	0	0	0	0	467	510	0	0	
6	0	0	0	0	472	511	0	0	
7	0	0	0	0	480	511	0	0	
8	0	0	0	0	481	510	0	0	
9	0	0	0	0	472	508	0	0	
10	0	0	0	0	472	508	0	0	
11	0	0	0	0	481	508	0	0	
12	0	0	0	0	487	512	0	0	
13	0	0	0	0	487	512	0	0	
14	0	0	0	0	483	511	0	0	
15	0	0	0	0	480	510	0	0	
0	0	0	0	0	476	508	0	0	
1	0	0	0	0	463	508	0	0	
2	0	0	0	0	467	508	0	0	
3	0	0	0	0	465	508	0	0	
4	0	0	0	0	463	508	0	0	
5	0	0	0	0	463	504	0	0	
6	0	0	0	0	463	508	0	0	
7	0	0	0	0	465	512	0	0	
8	0	0	0	0	472	510	0	0	
9	0	0	0	0	480	511	0	0	
10	0	0	0	0	478	508	0	0	
11	0	0	0	0	476	510	0	0	
12	0	0	0	0	480	510	0	0	
13	0	0	0	0	483	508	0	0	
14	0	0	0	0	481	508	0	0	
15	0	0	0	0	487	508	0	0	
0	0	0	0	0	487	511	0	0	
1	0	0	0	0	483	510	0	0	
2	0	0	0	0	481	511	0	0	
3	0	0	0	0	487	511	0	0	
4	0	0	0	0	481	508	0	0	
5	0	0	0	0	481	511	0	0	
6	0	0	0	0	481	508	0	0	
7	0	0	0	0	480	508	0	0	
8	0	0	0	0	480	511	0	0	
9	0	0	0	0	472	508	0	0	
10	0	0	0	0	460	510	0	0	
11	0	0	0	0	448	510	0	0	
12	0	0	0	0	463	508	0	0	
13	0	0	0	0	483	512	0	0	
14	0	0	0	0	481	511	0	0	
15	0	0	0	0	476	512	0	0	
0	0	0	0	0	478	511	0	0	
1	0	0	0	0	476	511	0	0	
2	0	0	0	0	480	511	0	0	
3	0	0	0	0	480	512	0	0	
4	0	0	0	0	476	511	0	0	
5	0	0	0	0	486	511	0	0	
6	0	0	0	0	494	511	0	0	
7	0	0	0	0	487	511	0	0	
8	0	0	0	0	487	510	0	0	
9	0	0	0	0	480	508	0	0	
10	0	0	0	0	465	508	0	0	
11	0	0	0	0	463	504	0	0	
12	0	0	0	0	463	508	0	0	
13	0	0	0	0	463	511	0	0	
14	0	0	0	0	462	508	0	0	
15	0	0	0	0	465	510	0	0	
0	0	0	0	0	463	505	0	0	
1	0	0	0	0	463	508	0	0	
2	0	0	0	0	472	510	0	0	
3	0	0	0	0	472	512	0	0	
4	0	0	0	0	487	508	0	0	
5	0	0	0	0	499	510	0	0	
6	0	0	0	0	494	512	0	0	
7	0	0	0	0	480	510	0	0	
8	0	0	0	0	480	510	0	0	
9	0	0	0	0	480	511	0	0	
10	0	0	0	0	481	510	0	0	
11	0	0	0	0	483	510	0	0	
12	0	0	0	0	483	505	0	0	
13	0	0	0	0	480	510	0	0	
14	0	0	0	0	472	510	0	0	
15	0	0	0	0	465	508	0	0	
0	0	0	0	0	463	508	0	0	
1	0	0	0	0	467	508	0	0	
2	0	0	0	0	463	508	0	0	
3	0	0	0	0	463	508	0	0	
4	0	0	0	0	460	508	0	0	
5	0	0	0	0	467	511	0	0	
6	0	0	0	0	480	512	0	0	
7	0	0	0	0	481	512	0	0	
8	0	0	0	0	483	511	0	0	
9	0	0	0	0	483	510	0	0	
10	0	0	0	0	480	508	0	0	
11	0	0	0	0	480	510	0	0	
12	0	0	0	0	480	508	0	0	
13	0	0	0	0	481	511	0	0	
14	0	0	0	0	483	508	0	0	
15	0	0	0	0	480	511	0	0	
0	0	0	0	0	472	508	0	0	
1	0	0	0	0	473	508	0	0	
2	0	0	0	0	480	510	0	0	
3	0	0	0	0	476	508	0	0	
4	0	0	0	0	473	508	0	0	
5	0	0	0	0	472	510	0	0	
6	0	0	0	0	463	504	0	0	
7	0	0	0	0	463	510	0	0	
8	0	0	0	0	476	510	0	0	
9	0	0	0	0	481	512	0	0	
10	0	0	0	0	472	512	0	0	
11	0	0	0	0	463	511	0	0	
12	0	0	0	0	463	511	0	0	
13	0	0	0	0	472	510	0	0	
14	0	0	0	0	476	511	0	0	
15	0	0	0	0	480	508	0	0	
0	0	0	0	0	483	508	0	0	
1	0	0	0	0	492	511	0	0	
2	0	0	0	0	494	511	0	0	
3	0	0	0	0	487	508	0	0	
4	0	0	0	0	486	512	0	0	
5	0	0	0	0	480	511	0	0	
6	0	0	0	0	463	508	0	0	
7	0	0	0	0	455	508	0	0	
8	0	0	0	0	460	510	0	0	
9	0	0	0	0	463	508	0	0	
10	0	0	0	0	457	513	0	0	
11	0	0	0	0	463	510	0	0	
12	0	0	0	0	467	508	0	0	
13	0	0	0	0	463	508	0	0	
14	0	0	0	0	462	510	0	0	
15	0	0	0	0	463	510	0	0	
0	0	0	0	0	470	511	0	0	
1	0	0	0	0	480	511	0	0	
2	0	0	0	0	481	510	0	0	
3	0	0	0	0	480	510	0	0	
4	0	0	0	0	492	511	0	0	
5	0	0	0	0	504	508	0	0	
6	0	0	0	0	487	508	0	0	
7	0	0	0	0	496	508	0	0	
8	0	0	0	0	487	511	0	0	
9	0	0	0	0	480	510	0	0	
10	0	0	0	0	480	508	0	0	
11	0	0	0	0	476	505	0	0	
12	0	0	0	0	472	508	0	0	
13	0	0	0	0	465	504	0	0	
14	0	0	0	0	465	508	0	0	
15	0	0	0	0	463	508	0	0	
0	0	0	0	0	455	505	0	0	
1	0	0	0	0	448	508	0	0	
2	0	0	0	0	462	511	0	0	
3	0	0	0	0	472	511	0	0	
4	0	0	0	0	476	508	0	0	
5	0	0	0	0	476	508	0	0	
6	0	0	0	0	476	510	0	0	
7	0	0	0	0	480	511	0	0	
8	0	0	0	0	480	511	0	0	
9	0	0	0	0	480	508	0	0	
10	0	0	0	0	478	508	0	0	
11	0	0	0	0	472	510	0	0	
12	0	0	0	0	472	510	0	0	
13	0	0	0	0	472	511	0	0	
14	0	0	0	0	472	510	0	0	
15	0	0	0	0	472	510	0	0	
0	0	0	0	0	467	511	0	0	
1	0	0	0	0	467	510	0	0	
2	0	0	0	0	467	513	0	0	
3	0	0	0	0	465	511	0	0	
4	0	0	0	0	463	510	0	0	
5	0	0	0	0	460	511	0	0	
6	0	0	0	0	478	511	0	0	
7	0	0	0	0	494	512	0	0	
8	0	0	0	0	487	511	0	0	
9	0	0	0	0	487	508	0	0	
10	0	0	0	0	492	508	0	0	
11	0	0	0	0	487	510	0	0	
12	0	0	0	0	467	511	0	0	
13	0	0	0	0	472	511	0	0	
14	0	0	0	0	481	510	0	0	
15	0	0	0	0	480	508	0	0	
0	0	0	0	0	480	508	0	0	
1	0	0	0	0	480	508	0	0	
2	0	0	0	0	476	510	0	0	
3	0	0	0	0	472	510	0	0	
4	0	0	0	0	467	511	0	0	
5	0	0	0	0	467	511	0	0	
6	0	0	0	0	463	510	0	0	
7	0	0	0	0	462	508	0	0	
8	0	0	0	0	462	508	0	0	
9	0	0	0	0	462	510	0	0	
10	0	0	0	0	460	510	0	0	
11	0	0	0	0	462	508	0	0	
12	0	0	0	0	472	508	0	0	
13	0	0	0	0	476	510	0	0	
14	0	0	0	0	480	510	0	0	
15	0	0	0	0	487	511	0	0	
0	0	0	0	0	487	511	0	0	
1	0	0	0	0	487	511	0	0	
2	0	0	0	0	486	508	0	0	
3	0	0	0	0	481	510	0	0	
4	0	0	0	0	481	510	0	0	
5	0	0	0	0	478	510	0	0	
6	0	0	0	0	478	510	0	0	
7	0	0	0	0	472	510	0	0	
8	0	0	0	0	467	508	0	0	
9	0	0	0	0	455	510	0	0	
10	0	0	0	0	454	511	0	0	
11	0	0	0	0	455	511	0	0	
12	0	0	0	0	455	508	0	0	
13	0	0	0	0	455	508	0	0	
14	0	0	0	0	462	508	0	0	
15	0	0	0	0	472	511	0	0	
0	0	0	0	0	478	511	0	0	
1	0	0	0	0	492	510	0	0	
2	0	0	0	0	510	511	0	0	
3	0	0	0	0	499	512	0	0	
4	0	0	0	0	487	510	0	0	
5	0	0	0	0	480	511	0	0	
6	0	0	0	0	480	508	0	0	
7	0	0	0	0	480	508	0	0	
8	0	0	0	0	480	508	0	0	
9	0	0	0	0	478	508	0	0	
10	0	0	0	0	476	511	0	0	
11	0	0	0	0	463	508	0	0	
12	0	0	0	0	463	508	0	0	
13	0	0	0	0	467	511	0	0	
14	0	0	0	0	472	511	0	0	
15	0	0	0	0	480	508	0	0	
0	0	0	0	0	472	508	0	0	
1	0	0	0	0	472	505	0	0	
2	0	0	0	0	476	512	0	0	
3	0	0	0	0	480	510	0	0	
4	0	0	0	0	480	512	0	0	
5	0	0	0	0	480	512	0	0	
6	0	0	0	0	483	511	0	0	
7	0	0	0	0	481	513	0	0	
8	0	0	0	0	481	511	0	0	
9	0	0	0	0	487	513	0	0	
10	0	0	0	0	487	510	0	0	
11	0	0	0	0	483	511	0	0	
12	0	0	0	0	480	511	0	0	
13	0	0	0	0	472	508	0	0	
14	0	0	0	0	472	508	0	0	
15	0	0	0	0	476	508	0	0	
0	0	0	0	0	472	508	0	0	
1	0	0	0	0	472	512	0	0	
2	0	0	0	0	463	510	0	0	
3	0	0	0	0	460	510	0	0	
4	0	0	0	0	460	511	0	0	
5	0	0	0	0	465	510	0	0	
6	0	0	0	0	467	511	0	0	
7	0	0	0	0	467	511	0	0	
8	0	0	0	0	467	510	0	0	
9	0	0	0	0	476	508	0	0	
10	0	0	0	0	483	511	0	0	
11	0	0	0	0	483	512	0	0	
12	0	0	0	0	483	510	0	0	
13	0	0	0	0	480	508	0	0	
14	0	0	0	0	476	510	0	0	
15	0	0	0	0	480	511	0	0	
0	0	0	0	0	480	510	0	0	
1	0	0	0	0	472	511	0	0	
2	0	0	0	0	476	508	0	0	
3	0	0	0	0	472	508	0	0	
4	0	0	0	0	472	510	0	0	
5	0	0	0	0	472	510	0	0	
6	0	0	0	0	472	504	0	0	
7	0	0	0	0	473	508	0	0	
8	0	0	0	0	472	508	0	0	
9	0	0	0	0	478	508	0	0	
10	0	0	0	0	480	511	0	0	
11	0	0	0	0	478	508	0	0	
12	0	0	0	0	480	511	0	0	
13	0	0	0	0	480	508	0	0	
14	0	0	0	0	483	511	0	0	
15	0	0	0	0	478	511	0	0	
0	0	0	0	0	467	511	0	0	
1	0	0	0	0	463	508	0	0	
2	0	0	0	0	472	510	0	0	
3	0	0	0	0	476	510	0	0	
4	0	0	0	0	473	508	0	0	
5	0	0	0	0	472	511	0	0	
6	0	0	0	0	480	510	0	0	
7	0	0	0	0	480	505	0	0	
8	0	0	0	0	463	510	0	0	
9	0	0	0	0	462	508	0	0	
10	0	0	0	0	462	505	0	0	
11	0	0	0	0	463	511	0	0	
12	0	0	0	0	465	508	0	0	
13	0	0	0	0	473	510	0	0	
14	0	0	0	0	483	511	0	0	
15	0	0	0	0	483	508	0	0	
0	0	0	0	0	480	508	0	0	
1	0	0	0	0	480	508	0	0	
2	0	0	0	0	480	510	0	0	
3	0	0	0	0	483	508	0	0	
4	0	0	0	0	480	511	0	0	
5	0	0	0	0	476	508	0	0	
6	0	0	0	0	476	511	0	0	
7	0	0	0	0	472	508	0	0	
8	0	0	0	0	480	508	0	0	
9	0	0	0	0	476	508	0	0	
10	0	0	0	0	472	510	0	0	
11	0	0	0	0	465	511	0	0	
12	0	0	0	0	460	511	0	0	
13	0	0	0	0	455	510	0	0	
14	0	0	0	0	460	510	0	0	
15	0	0	0	0	467	508	0	0	
0	0	0	0	0	467	508	0	0	
1	0	0	0	0	480	505	0	0	
2	0	0	0	0	483	510	0	0	
3	0	0	0	0	473	512	0	0	
4	0	0	0	0	487	512	0	0	
5	0	0	0	0	492	510	0	0	
6	0	0	0	0	487	510	0	0	
7	0	0	0	0	487	511	0	0	
8	0	0	0	0	483	511	0	0	
9	0	0	0	0	487	510	0	0	
10	0	0	0	0	486	510	0	0	
11	0	0	0	0	481	508	0	0	
12	0	0	0	0	478	504	0	0	
13	0	0	0	0	472	508	0	0	
14	0	0	0	0	467	510	0	0	
15	0	0	0	0	467	505	0	0	
0	0	0	0	0	478	508	0	0	
1	0	0	0	0	480	508	0	0	
2	0	0	0	0	480	504	0	0	
3	0	0	0	0	473	508	0	0	
4	0	0	0	0	472	510	0	0	
5	0	0	0	0	467	508	0	0	
6	0	0	0	0	467	508	0	0	
7	0	0	0	0	463	510	0	0	
8	0	0	0	0	463	511	0	0	
9	0	0	0	0	472	512	0	0	
10	0	0	0	0	472	510	0	0	
11	0	0	0	0	476	510	0	0	
12	0	0	0	0	480	511	0	0	
13	0	0	0	0	476	510	0	0	
14	0	0	0	0	480	508	0	0	
15	0	0	0	0	478	508	0	0	
0	0	0	0	0	478	510	0	0	
1	0	0	0	0	480	508	0	0	
2	0	0	0	0	476	510	0	0	
3	0	0	0	0	472	508	0	0	
4	0	0	0	0	463	508	0	0	
5	0	0	0	0	472	511	0	0	
6	0	0	0	0	480	511	0	0	
7	0	0	0	0	480	508	0	0	
8	0	0	0	0	472	508	0	0	
9	0	0	0	0	462	508	0	0	
10	0	0	0	0	463	508	0	0	
11	0	0	0	0	472	511	0	0	
12	0	0	0	0	480	511	0	0	
13	0	0	0	0	487	512	0	0	
14	0	0	0	0	487	512	0	0	
15	0	0	0	0	483	511	0	0	
0	0	0	0	0	486	511	0	0	
1	0	0	0	0	483	511	0	0	
2	0	0	0	0	480	511	0	0	
3	0	0	0	0	476	510	0	0	
4	0	0	0	0	472	510	0	0	
5	0	0	0	0	467	510	0	0	
6	0	0	0	0	465	508	0	0	
7	0	0	0	0	463	504	0	0	
8	0	0	0	0	472	508	0	0	
9	0	0	0	0	472	510	0	0	
10	0	0	0	0	467	510	0	0	
11	0	0	0	0	463	510	0	0	
12	0	0	0	0	463	508	0	0	
13	0	0	0	0	467	508	0	0	
14	0	0	0	0	481	508	0	0	
15	0	0	0	0	487	510	0	0	
0	0	0	0	0	480	508	0	0	
1	0	0	0	0	480	511	0	0	
2	0	0	0	0	480	511	0	0	
3	0	0	0	0	487	512	0	0	
4	0	0	0	0	487	511	0	0	
5	0	0	0	0	481	511	0	0	
6	0	0	0	0	481	508	0	0	
7	0	0	0	0	492	508	0	0	
8	0	0	0	0	494	508	0	0	
9	0	0	0	0	472	508	0	0	
10	0	0	0	0	463	508	0	0	
11	0	0	0	0	463	508	0	0	
12	0	0	0	0	455	510	0	0	
13	0	0	0	0	451	512	0	0	
14	0	0	0	0	460	511	0	0	
15	0	0	0	0	472	512	0	0	
0	0	0	0	0	480	511	0	0	
1	0	0	0	0	481	511	0	0	
2	0	0	0	0	480	512	0	0	
3	0	0	0	0	486	512	0	0	
4	0	0	0	0	487	513	0	0	
5	0	0	0	0	487	512	0	0	
6	0	0	0	0	481	512	0	0	
7	0	0	0	0	480	512	0	0	
8	0	0	0	0	476	510	0	0	
9	0	0	0	0	472	508	0	0	
10	0	0	0	0	467	508	0	0	
11	0	0	0	0	472	510	0	0	
12	0	0	0	0	473	508	0	0	
13	0	0	0	0	472	505	0	0	
14	0	0	0	0	472	510	0	0	
15	0	0	0	0	472	508	0	0	
0	0	0	0	0	467	508	0	0	
1	0	0	0	0	467	510	0	0	
2	0	0	0	0	472	512	0	0	
3	0	0	0	0	480	510	0	0	
4	0	0	0	0	480	510	0	0	
5	0	0	0	0	480	511	0	0	
6	0	0	0	0	480	511	0	0	
7	0	0	0	0	476	511	0	0	
8	0	0	0	0	487	511	0	0	
9	0	0	0	0	481	508	0	0	
10	0	0	0	0	476	511	0	0	
11	0	0	0	0	472	508	0	0	
12	0	0	0	0	472	510	0	0	
13	0	0	0	0	467	510	0	0	
14	0	0	0	0	476	508	0	0	
15	0	0	0	0	483	511	0	0	
0	0	0	0	0	478	510	0	0	
1	0	0	0	0	472	508	0	0	
2	0	0	0	0	472	508	0	0	
3	0	0	0	0	472	508	0	0	
4	0	0	0	0	465	508	0	0	
5	0	0	0	0	463	504	0	0	
6	0	0	0	0	460	504	0	0	
7	0	0	0	0	455	504	0	0	
8	0	0	0	0	463	504	0	0	
9	0	0	0	0	480	508	0	0	
10	0	0	0	0	486	508	0	0	
11	0	0	0	0	480	510	0	0	
12	0	0	0	0	480	511	0	0	
13	0	0	0	0	480	504	0	0	
14	0	0	0	0	480	508	0	0	
15	0	0	0	0	472	510	0	0	
0	0	0	0	0	480	510	0	0	
1	0	0	0	0	480	512	0	0	
2	0	0	0	0	483	511	0	0	
3	0	0	0	0	486	508	0	0	
4	0	0	0	0	480	505	0	0	
5	0	0	0	0	472	511	0	0	
6	0	0	0	0	472	511	0	0	
7	0	0	0	0	476	511	0	0	
8	0	0	0	0	467	510	0	0	
9	0	0	0	0	467	508	0	0	
10	0	0	0	0	472	508	0	0	
11	0	0	0	0	465	508	0	0	
12	0	0	0	0	467	508	0	0	
13	0	0	0	0	472	508	0	0	
14	0	0	0	0	473	511	0	0	
15	0	0	0	0	476	512	0	0	
0	0	0	0	0	478	510	0	0	
1	0	0	0	0	483	508	0	0	
2	0	0	0	0	487	511	0	0	
3	0	0	0	0	504	511	0	0	
4	0	0	0	0	496	508	0	0	
5	0	0	0	0	487	511	0	0	
6	0	0	0	0	483	508	0	0	
7	0	0	0	0	480	508	0	0	
8	0	0	0	0	476	511	0	0	
9	0	0	0	0	476	510	0	0	
10	0	0	0	0	478	510	0	0	
11	0	0	0	0	473	508	0	0	
12	0	0	0	0	472	508	0	0	
13	0	0	0	0	472	508	0	0	
14	0	0	0	0	467	508	0	0	
15	0	0	0	0	463	511	0	0	
0	0	0	0	0	463	511	0	0	
1	0	0	0	0	463	511	0	0	
2	0	0	0	0	467	511	0	0	
3	0	0	0	0	467	511	0	0	
4	0	0	0	0	472	511	0	0	
5	0	0	0	0	476	510	0	0	
6	0	0	0	0	480	510	0	0	
7	0	0	0	0	478	510	0	0	
8	0	0	0	0	480	510	0	0	
9	0	0	0	0	483	510	0	0	
10	0	0	0	0	487	511	0	0	
11	0	0	0	0	483	511	0	0	
12	0	0	0	0	480	510	0	0	
13	0	0	0	0	480	508	0	0	
14	0	0	0	0	480	510	0	0	
15	0	0	0	0	472	508	0	0	
0	0	0	0	0	463	508	0	0	
1	0	0	0	0	463	508	0	0	
2	0	0	0	0	463	508	0	0	
3	0	0	0	0	462	510	0	0	
4	0	0	0	0	462	508	0	0	
5	0	0	0	0	463	511	0	0	
6	0	0	0	0	463	511	0	0	
7	0	0	0	0	467	511	0	0	
8	0	0	0	0	467	510	0	0	
9	0	0	0	0	472	510	0	0	
10	0	0	0	0	476	508	0	0	
11	0	0	0	0	480	508	0	0	
12	0	0	0	0	483	513	0	0	
13	0	0	0	0	496	511	0	0	
14	0	0	0	0	496	510	0	0	
15	0	0	0	0	483	511	0	0	
0	0	0	0	0	481	508	0	0	
1	0	0	0	0	476	508	0	0	
2	0	0	0	0	480	510	0	0	
3	0	0	0	0	472	508	0	0	
4	0	0	0	0	467	508	0	0	
5	0	0	0	0	463	508	0	0	
6	0	0	0	0	465	508	0	0	
7	0	0	0	0	463	511	0	0	
8	0	0	0	0	465	510	0	0	
9	0	0	0	0	472	511	0	0	
10	0	0	0	0	476	510	0	0	
11	0	0	0	0	476	511	0	0	
12	0	0	0	0	476	511	0	0	
13	0	0	0	0	480	512	0	0	
14	0	0	0	0	480	508	0	0	
15	0	0	0	0	483	510	0	0	
0	0	0	0	0	486	508	0	0	
1	0	0	0	0	487	508	0	0	
2	0	0	0	0	487	510	0	0	
3	0	0	0	0	483	508	0	0	
4	0	0	0	0	480	508	0	0	
5	0	0	0	0	476	505	0	0	
6	0	0	0	0	472	508	0	0	
7	0	0	0	0	478	510	0	0	
8	0	0	0	0	480	510	0	0	
9	0	0	0	0	478	508	0	0	
10	0	0	0	0	478	505	0	0	
11	0	0	0	0	478	511	0	0	
12	0	0	0	0	472	510	0	0	
13	0	0	0	0	472	511	0	0	
14	0	0	0	0	472	508	0	0	
15	0	0	0	0	460	511	0	0	
0	0	0	0	0	455	508	0	0	
1	0	0	0	0	455	510	0	0	
2	0	0	0	0	463	508	0	0	
3	0	0	0	0	472	511	0	0	
4	0	0	0	0	472	512	0	0	
5	0	0	0	0	472	511	0	0	
6	0	0	0	0	467	508	0	0	
7	0	0	0	0	472	508	0	0	
8	0	0	0	0	472	510	0	0	
9	0	0	0	0	467	508	0	0	
10	0	0	0	0	467	508	0	0	
11	0	0	0	0	473	510	0	0	
12	0	0	0	0	492	512	0	0	
13	0	0	0	0	492	511	0	0	
14	0	0	0	0	472	511	0	0	
15	0	0	0	0	465	508	0	0	
0	0	0	0	0	472	508	0	0	
1	0	0	0	0	472	508	0	0	
2	0	0	0	0	473	511	0	0	
3	0	0	0	0	478	511	0	0	
4	0	0	0	0	480	512	0	0	
5	0	0	0	0	481	510	0	0	
6	0	0	0	0	481	510	0	0	
7	0	0	0	0	480	510	0	0	
8	0	0	0	0	480	510	0	0	
9	0	0	0	0	476	511	0	0	
10	0	0	0	0	478	510	0	0	
11	0	0	0	0	480	511	0	0	
12	0	0	0	0	472	510	0	0	
13	0	0	0	0	463	508	0	0	
14	0	0	0	0	460	508	0	0	
15	0	0	0	0	472	510	0	0	
0	0	0	0	0	481	511	0	0	
1	0	0	0	0	478	511	0	0	
2	0	0	0	0	476	511	0	0	
3	0	0	0	0	480	508	0	0	
4	0	0	0	0	480	508	0	0	
5	0	0	0	0	478	508	0	0	
6	0	0	0	0	478	510	0	0	
7	0	0	0	0	487	510	0	0	
8	0	0	0	0	492	508	0	0	
9	0	0	0	0	487	510	0	0	
10	0	0	0	0	487	511	0	0	
11	0	0	0	0	487	512	0	0	
12	0	0	0	0	483	510	0	0	
13	0	0	0	0	472	511	0	0	
14	0	0	0	0	467	510	0	0	
15	0	0	0	0	463	508	0	0	
0	0	0	0	0	465	508	0	0	
1	0	0	0	0	467	505	0	0	
2	0	0	0	0	472	504	0	0	
3	0	0	0	0	465	508	0	0	
4	0	0	0	0	463	508	0	0	
5	0	0	0	0	460	508	0	0	
6	0	0	0	0	462	508	0	0	
7	0	0	0	0	465	511	0	0	
8	0	0	0	0	462	510	0	0	
9	0	0	0	0	465	511	0	0	
10	0	0	0	0	473	510	0	0	
11	0	0	0	0	478	511	0	0	
12	0	0	0	0	480	511	0	0	
13	0	0	0	0	480	511	0	0	
14	0	0	0	0	480	511	0	0	
15	0	0	0	0	483	510	0	0	
0	0	0	0	0	486	512	0	0	
1	0	0	0	0	481	508	0	0	
2	0	0	0	0	483	508	0	0	
3	0	0	0	0	480	508	0	0	
4	0	0	0	0	478	508	0	0	
5	0	0	0	0	472	511	0	0	
6	0	0	0	0	472	510	0	0	
7	0	0	0	0	472	511	0	0	
8	0	0	0	0	476	510	0	0	
9	0	0	0	0	472	510	0	0	
10	0	0	0	0	465	505	0	0	
11	0	0	0	0	463	508	0	0	
12	0	0	0	0	472	504	0	0	
13	0	0	0	0	473	508	0	0	
14	0	0	0	0	480	511	0	0	
15	0	0	0	0	481	510	0	0	
0	0	0	0	0	483	511	0	0	
1	0	0	0	0	478	510	0	0	
2	0	0	0	0	476	508	0	0	
3	0	0	0	0	478	510	0	0	
4	0	0	0	0	472	508	0	0	
5	0	0	0	0	463	508	0	0	
6	0	0	0	0	472	510	0	0	
7	0	0	0	0	480	512	0	0	
8	0	0	0	0	480	508	0	0	
9	0	0	0	0	472	505	0	0	
10	0	0	0	0	472	512	0	0	
11	0	0	0	0	467	508	0	0	
12	0	0	0	0	463	508	0	0	
13	0	0	0	0	462	511	0	0	
14	0	0	0	0	467	511	0	0	
15	0	0	0	0	472	510	0	0	
0	0	0	0	0	472	511	0	0	
1	0	0	0	0	478	512	0	0	
2	0	0	0	0	480	511	0	0	
3	0	0	0	0	483	508	0	0	
4	0	0	0	0	483	511	0	0	
5	0	0	0	0	481	510	0	0	
6	0	0	0	0	480	508	0	0	
7	0	0	0	0	472	508	0	0	
8	0	0	0	0	463	512	0	0	
9	0	0	0	0	467	511	0	0	
10	0	0	0	0	476	512	0	0	
11	0	0	0	0	480	510	0	0	
12	0	0	0	0	481	508	0	0	
13	0	0	0	0	476	508	0	0	
14	0	0	0	0	473	504	0	0	
15	0	0	0	0	463	505	0	0	
0	0	0	0	0	467	504	0	0	
1	0	0	0	0	472	508	0	0	
2	0	0	0	0	476	508	0	0	
3	0	0	0	0	472	510	0	0	
4	0	0	0	0	472	510	0	0	
5	0	0	0	0	463	511	0	0	
6	0	0	0	0	455	510	0	0	
7	0	0	0	0	472	512	0	0	
8	0	0	0	0	483	511	0	0	
9	0	0	0	0	486	510	0	0	
10	0	0	0	0	483	510	0	0	
11	0	0	0	0	483	508	0	0	
12	0	0	0	0	481	508	0	0	
13	0	0	0	0	486	511	0	0	
14	0	0	0	0	481	510	0	0	
15	0	0	0	0	483	511	0	0	
0	0	0	0	0	483	511	0	0	
1	0	0	0	0	480	508	0	0	
2	0	0	0	0	480	508	0	0	
3	0	0	0	0	476	508	0	0	
4	0	0	0	0	476	508	0	0	
5	0	0	0	0	476	510	0	0	
6	0	0	0	0	472	510	0	0	
7	0	0	0	0	476	510	0	0	
8	0	0	0	0	472	508	0	0	
9	0	0	0	0	470	508	0	0	
10	0	0	0	0	463	510	0	0	
11	0	0	0	0	465	510	0	0	
12	0	0	0	0	472	512	0	0	
13	0	0	0	0	472	511	0	0	
14	0	0	0	0	472	508	0	0	
15	0	0	0	0	476	511	0	0	
0	0	0	0	0	480	510	0	0	
1	0	0	0	0	486	511	0	0	
2	0	0	0	0	504	510	0	0	
3	0	0	0	0	504	508	0	0	
4	0	0	0	0	492	508	0	0	
5	0	0	0	0	480	508	0	0	
6	0	0	0	0	467	508	0	0	
7	0	0	0	0	463	510	0	0	
8	0	0	0	0	460	511	0	0	
9	0	0	0	0	463	508	0	0	
10	0	0	0	0	472	510	0	0	
11	0	0	0	0	467	510	0	0	
12	0	0	0	0	465	508	0	0	
13	0	0	0	0	467	511	0	0	
14	0	0	0	0	472	510	0	0	
15	0	0	0	0	476	508	0	0	
0	0	0	0	0	480	508	0	0	
1	0	0	0	0	480	508	0	0	
2	0	0	0	0	480	510	0	0	
3	0	0	0	0	472	512	0	0	
4	0	0	0	0	465	511	0	0	
5	0	0	0	0	467	511	0	0	
6	0	0	0	0	472	508	0	0	
7	0	0	0	0	472	510	0	0	
8	0	0	0	0	476	508	0	0	
9	0	0	0	0	467	508	0	0	
10	0	0	0	0	463	511	0	0	
11	0	0	0	0	463	508	0	0	
12	0	0	0	0	462	508	0	0	
13	0	0	0	0	463	512	0	0	
14	0	0	0	0	467	511	0	0	
15	0	0	0	0	465	511	0	0	
0	0	0	0	0	467	511	0	0	
1	0	0	0	0	473	511	0	0	
2	0	0	0	0	480	510	0	0	
3	0	0	0	0	483	515	0	0	
4	0	0	0	0	480	511	0	0	
5	0	0	0	0	481	510	0	0	
6	0	0	0	0	481	508	0	0	
7	0	0	0	0	481	508	0	0	
8	0	0	0	0	478	511	0	0	
9	0	0	0	0	472	511	0	0	
10	0	0	0	0	465	508	0	0	
11	0	0	0	0	472	510	0	0	
12	0	0	0	0	472	504	0	0	
13	0	0	0	0	472	510	0	0	
14	0	0	0	0	483	508	0	0	
15	0	0	0	0	487	508	0	0	
0	0	0	0	0	483	508	0	0	
1	0	0	0	0	472	508	0	0	
2	0	0	0	0	472	508	0	0	
3	0	0	0	0	472	508	0	0	
4	0	0	0	0	467	508	0	0	
5	0	0	0	0	465	510	0	0	
6	0	0	0	0	467	510	0	0	
7	0	0	0	0	472	508	0	0	
8	0	0	0	0	476	510	0	0	
9	0	0	0	0	480	510	0	0	
10	0	0	0	0	487	510	0	0	
11	0	0	0	0	487	510	0	0	
12	0	0	0	0	483	510	0	0	
13	0	0	0	0	483	511	0	0	
14	0	0	0	0	481	508	0	0	
15	0	0	0	0	480	508	0	0	
0	0	0	0	0	480	510	0	0	
1	0	0	0	0	483	508	0	0	
2	0	0	0	0	480	508	0	0	
3	0	0	0	0	476	505	0	0	
4	0	0	0	0	472	510	0	0	
5	0	0	0	0	472	508	0	0	
6	0	0	0	0	472	505	0	0	
7	0	0	0	0	463	510	0	0	
8	0	0	0	0	462	511	0	0	
9	0	0	0	0	465	511	0	0	
10	0	0	0	0	465	512	0	0	
11	0	0	0	0	472	511	0	0	
12	0	0	0	0	480	511	0	0	
13	0	0	0	0	483	510	0	0	
14	0	0	0	0	483	511	0	0	
15	0	0	0	0	483	511	0	0	
0	0	0	0	0	483	510	0	0	
1	0	0	0	0	481	508	0	0	
2	0	0	0	0	481	508	0	0	
3	0	0	0	0	472	508	0	0	
4	0	0	0	0	467	508	0	0	
5	0	0	0	0	472	510	0	0	
6	0	0	0	0	467	511	0	0	
7	0	0	0	0	467	510	0	0	
8	0	0	0	0	465	508	0	0	
9	0	0	0	0	463	508	0	0	
10	0	0	0	0	460	510	0	0	
11	0	0	0	0	451	511	0	0	
12	0	0	0	0	455	510	0	0	
13	0	0	0	0	460	510	0	0	
14	0	0	0	0	472	510	0	0	
15	0	0	0	0	487	508	0	0	
0	0	0	0	0	487	512	0	0	
1	0	0	0	0	483	510	0	0	
2	0	0	0	0	483	511	0	0	
3	0	0	0	0	480	511	0	0	
4	0	0	0	0	481	508	0	0	
5	0	0	0	0	480	510	0	0	
6	0	0	0	0	487	508	0	0	
7	0	0	0	0	487	511	0	0	
8	0	0	0	0	487	510	0	0	
9	0	0	0	0	481	511	0	0	
10	0	0	0	0	480	511	0	0	
11	0	0	0	0	472	508	0	0	
12	0	0	0	0	472	510	0	0	
13	0	0	0	0	472	510	0	0	
14	0	0	0	0	472	508	0	0	
15	0	0	0	0	472	510	0	0	
0	0	0	0	0	463	510	0	0	
1	0	0	0	0	472	510	0	0	
2	0	0	0	0	472	510	0	0	
3	0	0	0	0	467	511	0	0	
4	0	0	0	0	467	512	0	0	
5	0	0	0	0	472	510	0	0	
6	0	0	0	0	486	511	0	0	
7	0	0	0	0	487	511	0	0	
8	0	0	0	0	496	511	0	0	
9	0	0	0	0	494	511	0	0	
10	0	0	0	0	476	508	0	0	
11	0	0	0	0	476	508	0	0	
12	0	0	0	0	476	508	0	0	
13	0	0	0	0	472	510	0	0	
14	0	0	0	0	467	508	0	0	
15	0	0	0	0	472	511	0	0	
0	0	0	0	0	472	510	0	0	
1	0	0	0	0	467	510	0	0	
2	0	0	0	0	462	512	0	0	
3	0	0	0	0	463	505	0	0	
4	0	0	0	0	472	508	0	0	
5	0	0	0	0	467	510	0	0	
6	0	0	0	0	463	508	0	0	
7	0	0	0	0	472	510	0	0	
8	0	0	0	0	480	511	0	0	
9	0	0	0	0	480	511	0	0	
10	0	0	0	0	478	511	0	0	
11	0	0	0	0	480	508	0	0	
12	0	0	0	0	481	513	0	0	
13	0	0	0	0	480	511	0	0	
14	0	0	0	0	480	508	0	0	
15	0	0	0	0	487	508	0	0	
0	0	0	0	0	480	508	0	0	
1	0	0	0	0	476	508	0	0	
2	0	0	0	0	472	508	0	0	
3	0	0	0	0	467	510	0	0	
4	0	0	0	0	463	508	0	0	
5	0	0	0	0	463	511	0	0	
6	0	0	0	0	472	510	0	0	
7	0	0	0	0	476	508	0	0	
8	0	0	0	0	465	508	0	0	
9	0	0	0	0	460	505	0	0	
10	0	0	0	0	463	508	0	0	
11	0	0	0	0	467	511	0	0	
12	0	0	0	0	467	511	0	0	
13	0	0	0	0	472	512	0	0	
14	0	0	0	0	467	511	0	0	
15	0	0	0	0	472	511	0	0	
0	0	0	0	0	480	511	0	0	
1	0	0	0	0	480	508	0	0	
2	0	0	0	0	476	510	0	0	
3	0	0	0	0	472	508	0	0	
4	0	0	0	0	467	510	0	0	
5	0	0	0	0	463	508	0	0	
6	0	0	0	0	463	508	0	0	
7	0	0	0	0	476	508	0	0	
8	0	0	0	0	480	508	0	0	
9	0	0	0	0	480	510	0	0	
10	0	0	0	0	480	510	0	0	
11	0	0	0	0	476	511	0	0	
12	0	0	0	0	472	510	0	0	
13	0	0	0	0	472	511	0	0	
14	0	0	0	0	472	511	0	0	
15	0	0	0	0	472	511	0	0	
0	0	0	0	0	480	512	0	0	
1	0	0	0	0	480	508	0	0	
2	0	0	0	0	483	511	0	0	
3	0	0	0	0	483	511	0	0	
4	0	0	0	0	487	511	0	0	
5	0	0	0	0	487	511	0	0	
6	0	0	0	0	487	510	0	0	
7	0	0	0	0	487	510	0	0	
8	0	0	0	0	483	510	0	0	
9	0	0	0	0	480	510	0	0	
10	0	0	0	0	476	510	0	0	
11	0	0	0	0	472	510	0	0	
12	0	0	0	0	472	508	0	0	
13	0	0	0	0	472	505	0	0	
14	0	0	0	0	467	508	0	0	
15	0	0	0	0	472	512	0	0	
0	0	0	0	0	472	510	0	0	
1	0	0	0	0	467	511	0	0	
2	0	0	0	0	467	510	0	0	
3	0	0	0	0	472	510	0	0	
4	0	0	0	0	472	511	0	0	
5	0	0	0	0	467	511	0	0	
6	0	0	0	0	473	508	0	0	
7	0	0	0	0	480	511	0	0	
8	0	0	0	0	478	510	0	0	
9	0	0	0	0	487	510	0	0	
10	0	0	0	0	499	511	0	0	
11	0	0	0	0	496	510	0	0	
12	0	0	0	0	483	508	0	0	
13	0	0	0	0	487	510	0	0	
14	0	0	0	0	483	505	0	0	
15	0	0	0	0	480	508	0	0	
0	0	0	0	0	480	508	0	0	
1	0	0	0	0	476	508	0	0	
2	0	0	0	0	472	508	0	0	
3	0	0	0	0	463	511	0	0	
4	0	0	0	0	455	508	0	0	
5	0	0	0	0	463	511	0	0	
6	0	0	0	0	455	511	0	0	
7	0	0	0	0	455	511	0	0	
8	0	0	0	0	472	510	0	0	
9	0	0	0	0	480	510	0	0	
10	0	0	0	0	480	510	0	0	
11	0	0	0	0	481	510	0	0	
12	0	0	0	0	492	511	0	0	
13	0	0	0	0	487	508	0	0	
14	0	0	0	0	487	511	0	0	
15	0	0	0	0	486	511	0	0	
0	0	0	0	0	487	511	0	0	
1	0	0	0	0	483	508	0	0	
2	0	0	0	0	476	510	0	0	
3	0	0	0	0	467	508	0	0	
4	0	0	0	0	460	510	0	0	
5	0	0	0	0	455	510	0	0	
6	0	0	0	0	462	510	0	0	
7	0	0	0	0	467	505	0	0	
8	0	0	0	0	472	508	0	0	
9	0	0	0	0	472	511	0	0	
10	0	0	0	0	463	510	0	0	
11	0	0	0	0	463	508	0	0	
12	0	0	0	0	476	510	0	0	
13	0	0	0	0	487	508	0	0	
14	0	0	0	0	483	510	0	0	
15	0	0	0	0	481	508	0	0	
0	0	0	0	0	480	508	0	0	
1	0	0	0	0	480	510	0	0	
2	0	0	0	0	487	510	0	0	
3	0	0	0	0	487	508	0	0	
4	0	0	0	0	483	508	0	0	
5	0	0	0	0	480	508	0	0	
6	0	0	0	0	476	508	0	0	
7	0	0	0	0	472	508	0	0	
8	0	0	0	0	467	504	0	0	
9	0	0	0	0	470	508	0	0	
10	0	0	0	0	465	508	0	0	
11	0	0	0	0	465	504	0	0	
12	0	0	0	0	472	510	0	0	
13	0	0	0	0	472	511	0	0	
14	0	0	0	0	467	511	0	0	
15	0	0	0	0	472	511	0	0	
0	0	0	0	0	472	511	0	0	
1	0	0	0	0	473	510	0	0	
2	0	0	0	0	480	510	0	0	
3	0	0	0	0	480	510	0	0	
4	0	0	0	0	472	510	0	0	
5	0	0	0	0	480	508	0	0	
6	0	0	0	0	487	508	0	0	
7	0	0	0	0	487	511	0	0	
8	0	0	0	0	486	510	0	0	
9	0	0	0	0	486	510	0	0	
10	0	0	0	0	480	508	0	0	
11	0	0	0	0	472	508	0	0	
12	0	0	0	0	467	508	0	0	
13	0	0	0	0	467	510	0	0	
14	0	0	0	0	472	510	0	0	
15	0	0	0	0	472	511	0	0	
0	0	0	0	0	476	508	0	0	
1	0	0	0	0	476	510	0	0	
2	0	0	0	0	473	510	0	0	
3	0	0	0	0	476	510	0	0	
4	0	0	0	0	480	511	0	0	
5	0	0	0	0	476	513	0	0	
6	0	0	0	0	473	513	0	0	
7	0	0	0	0	465	512	0	0	
8	0	0	0	0	463	512	0	0	
9	0	0	0	0	478	511	0	0	
10	0	0	0	0	492	512	0	0	
11	0	0	0	0	494	512	0	0	
12	0	0	0	0	487	511	0	0	
13	0	0	0	0	481	510	0	0	
14	0	0	0	0	480	508	0	0	
15	0	0	0	0	476	511	0	0	
0	0	0	0	0	467	510	0	0	
1	0	0	0	0	472	508	0	0	
2	0	0	0	0	472	512	0	0	
3	0	0	0	0	463	508	0	0	
4	0	0	0	0	460	508	0	0	
5	0	0	0	0	460	512	0	0	
6	0	0	0	0	472	508	0	0	
7	0	0	0	0	472	512	0	0	
8	0	0	0	0	480	510	0	0	
9	0	0	0	0	487	510	0	0	
10	0	0	0	0	487	510	0	0	
11	0	0	0	0	487	511	0	0	
12	0	0	0	0	480	510	0	0	
13	0	0	0	0	480	508	0	0	
14	0	0	0	0	481	508	0	0	
15	0	0	0	0	486	504	0	0	
0	0	0	0	0	486	508	0	0	
1	0	0	0	0	487	508	0	0	
2	0	0	0	0	483	508	0	0	
3	0	0	0	0	480	508	0	0	
4	0	0	0	0	480	504	0	0	
5	0	0	0	0	480	508	0	0	
6	0	0	0	0	476	510	0	0	
7	0	0	0	0	465	511	0	0	
8	0	0	0	0	465	508	0	0	
9	0	0	0	0	467	510	0	0	
10	0	0	0	0	467	510	0	0	
11	0	0	0	0	462	510	0	0	
12	0	0	0	0	460	512	0	0	
13	0	0	0	0	463	510	0	0	
14	0	0	0	0	472	511	0	0	
15	0	0	0	0	480	511	0	0	
0	0	0	0	0	481	511	0	0	
1	0	0	0	0	487	511	0	0	
2	0	0	0	0	481	508	0	0	
3	0	0	0	0	476	510	0	0	
4	0	0	0	0	476	508	0	0	
5	0	0	0	0	472	508	0	0	
6	0	0	0	0	462	510	0	0	
7	0	0	0	0	455	504	0	0	
8	0	0	0	0	455	508	0	0	
9	0	0	0	0	455	510	0	0	
10	0	0	0	0	463	511	0	0	
11	0	0	0	0	467	511	0	0	
12	0	0	0	0	455	510	0	0	
13	0	0	0	0	455	511	0	0	
14	0	0	0	0	486	511	0	0	
15	0	0	0	0	504	511	0	0	
0	0	0	0	0	492	510	0	0	
1	0	0	0	0	487	508	0	0	
2	0	0	0	0	481	508	0	0	
3	0	0	0	0	480	510	0	0	
4	0	0	0	0	476	510	0	0	
5	0	0	0	0	480	511	0	0	
6	0	0	0	0	483	511	0	0	
7	0	0	0	0	483	508	0	0	
8	0	0	0	0	480	510	0	0	
9	0	0	0	0	473	504	0	0	
10	0	0	0	0	480	504	0	0	
11	0	0	0	0	476	508	0	0	
12	0	0	0	0	472	508	0	0	
13	0	0	0	0	472	508	0	0	
14	0	0	0	0	467	512	0	0	
15	0	0	0	0	462	510	0	0	
0	0	0	0	0	465	510	0	0	
1	0	0	0	0	472	510	0	0	
2	0	0	0	0	472	510	0	0	
3	0	0	0	0	480	510	0	0	
4	0	0	0	0	481	512	0	0	
5	0	0	0	0	481	511	0	0	
6	0	0	0	0	483	512	0	0	
7	0	0	0	0	483	510	0	0	
8	0	0	0	0	481	511	0	0	
9	0	0	0	0	480	511	0	0	
10	0	0	0	0	472	508	0	0	
11	0	0	0	0	472	508	0	0	
12	0	0	0	0	480	505	0	0	
13	0	0	0	0	480	508	0	0	
14	0	0	0	0	472	510	0	0	
15	0	0	0	0	467	510	0	0	
0	0	0	0	0	467	511	0	0	
1	0	0	0	0	467	510	0	0	
2	0	0	0	0	463	510	0	0	
3	0	0	0	0	460	510	0	0	
4	0	0	0	0	460	510	0	0	
5	0	0	0	0	462	511	0	0	
6	0	0	0	0	467	508	0	0	
7	0	0	0	0	472	512	0	0	
8	0	0	0	0	467	511	0	0	
9	0	0	0	0	467	508	0	0	
10	0	0	0	0	472	508	0	0	
11	0	0	0	0	480	510	0	0	
12	0	0	0	0	480	511	0	0	
13	0	0	0	0	483	508	0	0	
14	0	0	0	0	483	511	0	0	
15	0	0	0	0	480	508	0	0	
0	0	0	0	0	480	508	0	0	
1	0	0	0	0	476	510	0	0	
2	0	0	0	0	472	510	0	0	
3	0	0	0	0	472	504	0	0	
4	0	0	0	0	467	508	0	0	
5	0	0	0	0	465	511	0	0	
6	0	0	0	0	463	510	0	0	
7	0	0	0	0	467	510	0	0	
8	0	0	0	0	473	510	0	0	
9	0	0	0	0	476	511	0	0	
10	0	0	0	0	473	510	0	0	
11	0	0	0	0	476	510	0	0	
12	0	0	0	0	480	511	0	0	
13	0	0	0	0	480	510	0	0	
14	0	0	0	0	481	512	0	0	
15	0	0	0	0	487	510	0	0	
0	0	0	0	0	487	510	0	0	
1	0	0	0	0	483	508	0	0	
2	0	0	0	0	480	508	0	0	
3	0	0	0	0	476	510	0	0	
4	0	0	0	0	472	510	0	0	
5	0	0	0	0	472	510	0	0	
6	0	0	0	0	467	510	0	0	
7	0	0	0	0	476	504	0	0	
8	0	0	0	0	480	508	0	0	
9	0	0	0	0	478	508	0	0	
10	0	0	0	0	473	508	0	0	
11	0	0	0	0	472	508	0	0	
12	0	0	0	0	472	508	0	0	
13	0	0	0	0	472	508	0	0	
14	0	0	0	0	472	510	0	0	
15	0	0	0	0	472	510	0	0	
0	0	0	0	0	472	508	0	0	
1	0	0	0	0	476	508	0	0	
2	0	0	0	0	480	510	0	0	
3	0	0	0	0	481	511	0	0	
4	0	0	0	0	483	511	0	0	
5	0	0	0	0	483	512	0	0	
6	0	0	0	0	483	510	0	0	
7	0	0	0	0	481	511	0	0	
8	0	0	0	0	480	508	0	0	
9	0	0	0	0	480	511	0	0	
10	0	0	0	0	480	510	0	0	
11	0	0	0	0	480	508	0	0	
12	0	0	0	0	480	508	0	0	
13	0	0	0	0	476	508	0	0	
14	0	0	0	0	472	510	0	0	
15	0	0	0	0	472	511	0	0	
0	0	0	0	0	463	508	0	0	
1	0	0	0	0	455	508	0	0	
2	0	0	0	0	448	508	0	0	
3	0	0	0	0	440	510	0	0	
4	0	0	0	0	451	510	0	0	
5	0	0	0	0	463	511	0	0	
6	0	0	0	0	472	511	0	0	
7	0	0	0	0	480	510	0	0	
8	0	0	0	0	492	511	0	0	
9	0	0	0	0	497	511	0	0	
10	0	0	0	0	496	511	0	0	
11	0	0	0	0	492	505	0	0	
12	0	0	0	0	487	508	0	0	
13	0	0	0	0	483	511	0	0	
14	0	0	0	0	483	508	0	0	
15	0	0	0	0	487	508	0	0	
0	0	0	0	0	483	510	0	0	
1	0	0	0	0	480	510	0	0	
2	0	0	0	0	476	508	0	0	
3	0	0	0	0	472	511	0	0	
4	0	0	0	0	460	511	0	0	
5	0	0	0	0	455	511	0	0	
6	0	0	0	0	460	511	0	0	
7	0	0	0	0	465	512	0	0	
8	0	0	0	0	472	511	0	0	
9	0	0	0	0	472	512	0	0	
10	0	0	0	0	478	511	0	0	
11	0	0	0	0	480	508	0	0	
12	0	0	0	0	483	513	0	0	
13	0	0	0	0	487	511	0	0	
14	0	0	0	0	483	508	0	0	
15	0	0	0	0	472	510	0	0	
0	0	0	0	0	467	510	0	0	
1	0	0	0	0	463	508	0	0	
2	0	0	0	0	463	510	0	0	
3	0	0	0	0	465	508	0	0	
4	0	0	0	0	463	508	0	0	
5	0	0	0	0	463	510	0	0	
6	0	0	0	0	462	510	0	0	
7	0	0	0	0	460	508	0	0	
8	0	0	0	0	480	508	0	0	
9	0	0	0	0	487	508	0	0	
10	0	0	0	0	480	511	0	0	
11	0	0	0	0	476	511	0	0	
12	0	0	0	0	480	510	0	0	
13	0	0	0	0	492	511	0	0	
14	0	0	0	0	492	510	0	0	
15	0	0	0	0	483	510	0	0	
0	0	0	0	0	472	512	0	0	
1	0	0	0	0	478	510	0	0	
2	0	0	0	0	481	512	0	0	
3	0	0	0	0	480	512	0	0	
4	0	0	0	0	480	511	0	0	
5	0	0	0	0	472	512	0	0	
6	0	0	0	0	467	508	0	0	
7	0	0	0	0	467	508	0	0	
8	0	0	0	0	480	508	0	0	
9	0	0	0	0	487	510	0	0	
10	0	0	0	0	480	508	0	0	
11	0	0	0	0	472	511	0	0	
12	0	0	0	0	472	508	0	0	
13	0	0	0	0	472	508	0	0	
14	0	0	0	0	472	510	0	0	
15	0	0	0	0	472	511	0	0	
0	0	0	0	0	476	508	0	0	
1	0	0	0	0	480	510	0	0	
2	0	0	0	0	476	510	0	0	
3	0	0	0	0	478	508	0	0	
4	0	0	0	0	478	512	0	0	
5	0	0	0	0	481	510	0	0	
6	0	0	0	0	483	508	0	0	
7	0	0	0	0	480	510	0	0	
8	0	0	0	0	480	505	0	0	
9	0	0	0	0	478	508	0	0	
10	0	0	0	0	476	508	0	0	
11	0	0	0	0	472	508	0	0	
12	0	0	0	0	463	508	0	0	
13	0	0	0	0	463	508	0	0	
14	0	0	0	0	467	508	0	0	
15	0	0	0	0	472	511	0	0	
0	0	0	0	0	472	508	0	0	
1	0	0	0	0	472	508	0	0	
2	0	0	0	0	476	512	0	0	
3	0	0	0	0	476	510	0	0	
4	0	0	0	0	472	511	0	0	
5	0	0	0	0	467	510	0	0	
6	0	0	0	0	463	510	0	0	
7	0	0	0	0	467	512	0	0	
8	0	0	0	0	480	510	0	0	
9	0	0	0	0	487	508	0	0	
10	0	0	0	0	492	508	0	0	
11	0	0	0	0	487	508	0	0	
12	0	0	0	0	483	510	0	0	
13	0	0	0	0	480	508	0	0	
14	0	0	0	0	472	508	0	0	
15	0	0	0	0	473	508	0	0	
0	0	0	0	0	480	508	0	0	
1	0	0	0	0	480	510	0	0	
2	0	0	0	0	480	510	0	0	
3	0	0	0	0	481	508	0	0	
4	0	0	0	0	487	510	0	0	
5	0	0	0	0	492	512	0	0	
6	0	0	0	0	487	511	0	0	
7	0	0	0	0	492	512	0	0	
8	0	0	0	0	496	515	0	0	
9	0	0	0	0	492	511	0	0	
10	0	0	0	0	481	510	0	0	
11	0	0	0	0	472	511	0	0	
12	0	0	0	0	460	512	0	0	
13	0	0	0	0	444	511	0	0	
14	0	0	0	0	448	511	0	0	
15	0	0	0	0	455	508	0	0	
0	0	0	0	0	455	508	0	0	
1	0	0	0	0	460	508	0	0	
2	0	0	0	0	460	508	0	0	
3	0	0	0	0	455	504	0	0	
4	0	0	0	0	455	510	0	0	
5	0	0	0	0	467	508	0	0	
6	0	0	0	0	476	505	0	0	
7	0	0	0	0	462	505	0	0	
8	0	0	0	0	451	511	0	0	
9	0	0	0	0	463	511	0	0	
10	0	0	0	0	476	505	0	0	
11	0	0	0	0	476	512	0	0	
12	0	0	0	0	480	510	0	0	
13	0	0	0	0	480	510	0	0	
14	0	0	0	0	483	511	0	0	
15	0	0	0	0	492	511	0	0	
0	0	0	0	0	483	511	0	0	
1	0	0	0	0	476	511	0	0	
2	0	0	0	0	476	510	0	0	
3	0	0	0	0	480	511	0	0	
4	0	0	0	0	483	508	0	0	
5	0	0	0	0	480	508	0	0	
6	0	0	0	0	476	505	0	0	
7	0	0	0	0	467	508	0	0	
8	0	0	0	0	465	508	0	0	
9	0	0	0	0	472	508	0	0	
10	0	0	0	0	472	515	0	0	
11	0	0	0	0	472	512	0	0	
12	0	0	0	0	472	512	0	0	
13	0	0	0	0	476	513	0	0	
14	0	0	0	0	480	512	0	0	
15	0	0	0	0	480	512	0	0	
0	0	0	0	0	478	512	0	0	
1	0	0	0	0	476	510	0	0	
2	0	0	0	0	473	508	0	0	
3	0	0	0	0	476	511	0	0	
4	0	0	0	0	483	510	0	0	
5	0	0	0	0	487	510	0	0	
6	0	0	0	0	486	508	0	0	
7	0	0	0	0	483	508	0	0	
8	0	0	0	0	481	508	0	0	
9	0	0	0	0	480	508	0	0	
10	0	0	0	0	480	508	0	0	
11	0	0	0	0	472	504	0	0	
12	0	0	0	0	467	508	0	0	
13	0	0	0	0	465	508	0	0	
14	0	0	0	0	465	505	0	0	
15	0	0	0	0	463	508	0	0	
0	0	0	0	0	462	508	0	0	
1	0	0	0	0	463	508	0	0	
2	0	0	0	0	472	510	0	0	
3	0	0	0	0	478	511	0	0	
4	0	0	0	0	480	512	0	0	
5	0	0	0	0	486	511	0	0	
6	0	0	0	0	487	508	0	0	
7	0	0	0	0	487	510	0	0	
8	0	0	0	0	487	511	0	0	
9	0	0	0	0	487	511	0	0	
10	0	0	0	0	483	510	0	0	
11	0	0	0	0	481	511	0	0	
12	0	0	0	0	480	511	0	0	
13	0	0	0	0	478	511	0	0	
14	0	0	0	0	476	508	0	0	
15	0	0	0	0	472	508	0	0	
0	0	0	0	0	472	508	0	0	
1	0	0	0	0	463	508	0	0	
2	0	0	0	0	455	508	0	0	
3	0	0	0	0	455	508	0	0	
4	0	0	0	0	460	508	0	0	
5	0	0	0	0	460	510	0	0	
6	0	0	0	0	463	510	0	0	
7	0	0	0	0	467	511	0	0	
8	0	0	0	0	476	511	0	0	
9	0	0	0	0	481	508	0	0	
10	0	0	0	0	480	508	0	0	
11	0	0	0	0	480	510	0	0	
12	0	0	0	0	476	510	0	0	
13	0	0	0	0	478	510	0	0	
14	0	0	0	0	480	508	0	0	
15	0	0	0	0	476	510	0	0	
0	0	0	0	0	472	511	0	0	
1	0	0	0	0	473	508	0	0	
2	0	0	0	0	472	510	0	0	
3	0	0	0	0	463	510	0	0	
4	0	0	0	0	460	508	0	0	
5	0	0	0	0	463	511	0	0	
6	0	0	0	0	476	508	0	0	
7	0	0	0	0	473	508	0	0	
8	0	0	0	0	472	508	0	0	
9	0	0	0	0	487	512	0	0	
10	0	0	0	0	487	512	0	0	
11	0	0	0	0	480	511	0	0	
12	0	0	0	0	480	512	0	0	
13	0	0	0	0	481	511	0	0	
14	0	0	0	0	483	512	0	0	
15	0	0	0	0	481	512	0	0	
0	0	0	0	0	480	511	0	0	
1	0	0	0	0	483	510	0	0	
2	0	0	0	0	472	512	0	0	
3	0	0	0	0	472	512	0	0	
4	0	0	0	0	473	511	0	0	
5	0	0	0	0	478	508	0	0	
6	0	0	0	0	480	508	0	0	
7	0	0	0	0	478	510	0	0	
8	0	0	0	0	472	508	0	0	
9	0	0	0	0	472	508	0	0	
10	0	0	0	0	465	512	0	0	
11	0	0	0	0	463	508	0	0	
12	0	0	0	0	462	510	0	0	
13	0	0	0	0	460	510	0	0	
14	0	0	0	0	463	508	0	0	
15	0	0	0	0	463	513	0	0	
0	0	0	0	0	465	512	0	0	
1	0	0	0	0	480	512	0	0	
2	0	0	0	0	487	512	0	0	
3	0	0	0	0	504	511	0	0	
4	0	0	0	0	494	513	0	0	
5	0	0	0	0	487	511	0	0	
6	0	0	0	0	483	508	0	0	
7	0	0	0	0	480	508	0	0	
8	0	0	0	0	480	510	0	0	
9	0	0	0	0	480	508	0	0	
10	0	0	0	0	480	508	0	0	
11	0	0	0	0	476	508	0	0	
12	0	0	0	0	476	508	0	0	
13	0	0	0	0	472	508	0	0	
14	0	0	0	0	467	504	0	0	
15	0	0	0	0	463	504	0	0	
0	0	0	0	0	463	510	0	0	
1	0	0	0	0	465	508	0	0	
2	0	0	0	0	472	508	0	0	
3	0	0	0	0	467	510	0	0	
4	0	0	0	0	470	511	0	0	
5	0	0	0	0	473	510	0	0	
6	0	0	0	0	476	511	0	0	
7	0	0	0	0	483	511	0	0	
8	0	0	0	0	492	510	0	0	
9	0	0	0	0	492	511	0	0	
10	0	0	0	0	487	510	0	0	
11	0	0	0	0	483	510	0	0	
12	0	0	0	0	480	508	0	0	
13	0	0	0	0	467	510	0	0	
14	0	0	0	0	463	508	0	0	
15	0	0	0	0	465	508	0	0	
0	0	0	0	0	463	508	0	0	
1	0	0	0	0	455	508	0	0	
2	0	0	0	0	460	511	0	0	
3	0	0	0	0	465	512	0	0	
4	0	0	0	0	467	510	0	0	
5	0	0	0	0	472	508	0	0	
6	0	0	0	0	476	512	0	0	
7	0	0	0	0	480	511	0	0	
8	0	0	0	0	480	510	0	0	
9	0	0	0	0	480	510	0	0	
10	0	0	0	0	478	511	0	0	
11	0	0	0	0	481	511	0	0	
12	0	0	0	0	481	510	0	0	
13	0	0	0	0	483	508	0	0	
14	0	0	0	0	487	510	0	0	
15	0	0	0	0	494	511	0	0	
0	0	0	0	0	492	510	0	0	
1	0	0	0	0	492	510	0	0	
2	0	0	0	0	487	511	0	0	
3	0	0	0	0	480	510	0	0	
4	0	0	0	0	472	508	0	0	
5	0	0	0	0	467	510	0	0	
6	0	0	0	0	467	505	0	0	
7	0	0	0	0	467	508	0	0	
8	0	0	0	0	467	510	0	0	
9	0	0	0	0	472	511	0	0	
10	0	0	0	0	463	508	0	0	
11	0	0	0	0	463	510	0	0	
12	0	0	0	0	472	510	0	0	
13	0	0	0	0	478	511	0	0	
14	0	0	0	0	478	511	0	0	
15	0	0	0	0	472	510	0	0	
0	0	0	0	0	472	510	0	0	
1	0	0	0	0	467	508	0	0	
2	0	0	0	0	465	504	0	0	
3	0	0	0	0	472	508	0	0	
4	0	0	0	0	481	508	0	0	
5	0	0	0	0	487	508	0	0	
6	0	0	0	0	480	510	0	0	
7	0	0	0	0	472	508	0	0	
8	0	0	0	0	472	508	0	0	
9	0	0	0	0	472	508	0	0	
10	0	0	0	0	467	511	0	0	
11	0	0	0	0	463	510	0	0	
12	0	0	0	0	465	508	0	0	
13	0	0	0	0	467	510	0	0	
14	0	0	0	0	472	510	0	0	
15	0	0	0	0	476	510	0	0	
0	0	0	0	0	480	510	0	0	
1	0	0	0	0	478	510	0	0	
2	0	0	0	0	476	511	0	0	
3	0	0	0	0	480	511	0	0	
4	0	0	0	0	483	510	0	0	
5	0	0	0	0	483	510	0	0	
6	0	0	0	0	487	511	0	0	
7	0	0	0	0	487	508	0	0	
8	0	0	0	0	489	510	0	0	
9	0	0	0	0	494	511	0	0	
10	0	0	0	0	483	508	0	0	
11	0	0	0	0	480	508	0	0	
12	0	0	0	0	476	511	0	0	
13	0	0	0	0	472	508	0	0	
14	0	0	0	0	462	510	0	0	
15	0	0	0	0	460	510	0	0	
0	0	0	0	0	455	508	0	0	
1	0	0	0	0	460	511	0	0	
2	0	0	0	0	455	510	0	0	
3	0	0	0	0	472	511	0	0	
4	0	0	0	0	480	511	0	0	
5	0	0	0	0	487	508	0	0	
6	0	0	0	0	487	510	0	0	
7	0	0	0	0	486	511	0	0	
8	0	0	0	0	483	508	0	0	
9	0	0	0	0	487	511	0	0	
10	0	0	0	0	487	511	0	0	
11	0	0	0	0	480	510	0	0	
12	0	0	0	0	483	508	0	0	
13	0	0	0	0	480	510	0	0	
14	0	0	0	0	480	508	0	0	
15	0	0	0	0	478	508	0	0	
0	0	0	0	0	465	508	0	0	
1	0	0	0	0	463	508	0	0	
2	0	0	0	0	467	510	0	0	
3	0	0	0	0	472	510	0	0	
4	0	0	0	0	463	511	0	0	
5	0	0	0	0	457	513	0	0	
6	0	0	0	0	460	511	0	0	
7	0	0	0	0	463	513	0	0	
8	0	0	0	0	465	512	0	0	
9	0	0	0	0	467	510	0	0	
10	0	0	0	0	467	511	0	0	
11	0	0	0	0	463	508	0	0	
12	0	0	0	0	463	508	0	0	
13	0	0	0	0	463	510	0	0	
14	0	0	0	0	467	508	0	0	
15	0	0	0	0	492	510	0	0	
0	0	0	0	0	504	508	0	0	
1	0	0	0	0	494	508	0	0	
2	0	0	0	0	483	504	0	0	
3	0	0	0	0	480	508	0	0	
4	0	0	0	0	476	510	0	0	
5	0	0	0	0	472	510	0	0	
6	0	0	0	0	463	510	0	0	
7	0	0	0	0	463	505	0	0	
8	0	0	0	0	463	508	0	0	
9	0	0	0	0	472	510	0	0	
10	0	0	0	0	472	508	0	0	
11	0	0	0	0	472	511	0	0	
12	0	0	0	0	480	508	0	0	
13	0	0	0	0	483	510	0	0	
14	0	0	0	0	483	511	0	0	
15	0	0	0	0	487	508	0	0	
0	0	0	0	0	487	508	0	0	
1	0	0	0	0	483	510	0	0	
2	0	0	0	0	483	508	0	0	
3	0	0	0	0	487	508	0	0	
4	0	0	0	0	483	508	0	0	
5	0	0	0	0	480	510	0	0	
6	0	0	0	0	476	511	0	0	
7	0	0	0	0	472	508	0	0	
8	0	0	0	0	463	510	0	0	
9	0	0	0	0	463	511	0	0	
10	0	0	0	0	463	511	0	0	
11	0	0	0	0	463	508	0	0	
12	0	0	0	0	460	508	0	0	
13	0	0	0	0	460	510	0	0	
14	0	0	0	0	467	510	0	0	
15	0	0	0	0	478	511	0	0	
0	0	0	0	0	480	512	0	0	
1	0	0	0	0	476	511	0	0	
2	0	0	0	0	473	510	0	0	
3	0	0	0	0	476	511	0	0	
4	0	0	0	0	480	511	0	0	
5	0	0	0	0	480	511	0	0	
6	0	0	0	0	487	510	0	0	
7	0	0	0	0	487	508	0	0	
8	0	0	0	0	481	511	0	0	
9	0	0	0	0	476	511	0	0	
10	0	0	0	0	472	510	0	0	
11	0	0	0	0	476	508	0	0	
12	0	0	0	0	480	508	0	0	
13	0	0	0	0	476	510	0	0	
14	0	0	0	0	476	511	0	0	
15	0	0	0	0	472	511	0	0	
0	0	0	0	0	463	510	0	0	
1	0	0	0	0	463	510	0	0	
2	0	0	0	0	465	508	0	0	
3	0	0	0	0	472	511	0	0	
4	0	0	0	0	478	511	0	0	
5	0	0	0	0	480	510	0	0	
6	0	0	0	0	480	510	0	0	
7	0	0	0	0	476	510	0	0	
8	0	0	0	0	473	511	0	0	
9	0	0	0	0	472	511	0	0	
10	0	0	0	0	472	510	0	0	
11	0	0	0	0	476	510	0	0	
12	0	0	0	0	472	511	0	0	
13	0	0	0	0	472	510	0	0	
14	0	0	0	0	481	510	0	0	
15	0	0	0	0	496	510	0	0	
0	0	0	0	0	483	510	0	0	
1	0	0	0	0	480	508	0	0	
2	0	0	0	0	478	510	0	0	
3	0	0	0	0	472	511	0	0	
4	0	0	0	0	472	513	0	0	
5	0	0	0	0	467	512	0	0	
6	0	0	0	0	465	511	0	0	
7	0	0	0	0	467	510	0	0	
8	0	0	0	0	472	508	0	0	
9	0	0	0	0	472	508	0	0	
10	0	0	0	0	472	510	0	0	
11	0	0	0	0	480	508	0	0	
12	0	0	0	0	481	512	0	0	
13	0	0	0	0	494	508	0	0	
14	0	0	0	0	508	511	0	0	
15	0	0	0	0	494	508	0	0	
0	0	0	0	0	481	508	0	0	
1	0	0	0	0	481	505	0	0	
2	0	0	0	0	480	508	0	0	
3	0	0	0	0	476	508	0	0	
4	0	0	0	0	472	505	0	0	
5	0	0	0	0	472	504	0	0	
6	0	0	0	0	472	511	0	0	
7	0	0	0	0	478	510	0	0	
8	0	0	0	0	478	508	0	0	
9	0	0	0	0	476	510	0	0	
10	0	0	0	0	467	510	0	0	
11	0	0	0	0	472	512	0	0	
12	0	0	0	0	476	512	0	0	
13	0	0	0	0	472	513	0	0	
14	0	0	0	0	472	512	0	0	
15	0	0	0	0	480	510	0	0	
0	0	0	0	0	483	510	0	0	
1	0	0	0	0	481	508	0	0	
2	0	0	0	0	480	508	0	0	
3	0	0	0	0	480	508	0	0	
4	0	0	0	0	478	510	0	0	
5	0	0	0	0	480	510	0	0	
6	0	0	0	0	476	508	0	0	
7	0	0	0	0	473	508	0	0	
8	0	0	0	0	476	505	0	0	
9	0	0	0	0	480	508	0	0	
10	0	0	0	0	473	508	0	0	
11	0	0	0	0	472	508	0	0	
12	0	0	0	0	465	504	0	0	
13	0	0	0	0	472	510	0	0	
14	0	0	0	0	472	510	0	0	
15	0	0	0	0	476	511	0	0	
0	0	0	0	0	476	511	0	0	
1	0	0	0	0	476	510	0	0	
2	0	0	0	0	476	510	0	0	
3	0	0	0	0	472	508	0	0	
4	0	0	0	0	463	508	0	0	
5	0	0	0	0	467	511	0	0	
6	0	0	0	0	480	511	0	0	
7	0	0	0	0	483	510	0	0	
8	0	0	0	0	480	511	0	0	
9	0	0	0	0	472	510	0	0	
10	0	0	0	0	472	510	0	0	
11	0	0	0	0	463	512	0	0	
12	0	0	0	0	455	508	0	0	
13	0	0	0	0	448	510	0	0	
14	0	0	0	0	463	510	0	0	
15	0	0	0	0	480	505	0	0	
0	0	0	0	0	480	508	0	0	
1	0	0	0	0	472	508	0	0	
2	0	0	0	0	472	510	0	0	
3	0	0	0	0	473	512	0	0	
4	0	0	0	0	476	511	0	0	
5	0	0	0	0	480	511	0	0	
6	0	0	0	0	480	510	0	0	
7	0	0	0	0	483	510	0	0	
8	0	0	0	0	480	510	0	0	
9	0	0	0	0	478	511	0	0	
10	0	0	0	0	480	510	0	0	
11	0	0	0	0	476	508	0	0	
12	0	0	0	0	472	508	0	0	
13	0	0	0	0	476	512	0	0	
14	0	0	0	0	480	510	0	0	
15	0	0	0	0	476	508	0	0	
0	0	0	0	0	480	510	0	0	
1	0	0	0	0	476	508	0	0	
2	0	0	0	0	472	508	0	0	
3	0	0	0	0	472	508	0	0	
4	0	0	0	0	467	510	0	0	
5	0	0	0	0	460	511	0	0	
6	0	0	0	0	460	511	0	0	
7	0	0	0	0	465	510	0	0	
8	0	0	0	0	476	508	0	0	
9	0	0	0	0	480	510	0	0	
10	0	0	0	0	480	512	0	0	
11	0	0	0	0	476	510	0	0	
12	0	0	0	0	480	508	0	0	
13	0	0	0	0	480	510	0	0	
14	0	0	0	0	472	511	0	0	
15	0	0	0	0	472	508	0	0	
0	0	0	0	0	467	510	0	0	
1	0	0	0	0	463	508	0	0	
2	0	0	0	0	463	510	0	0	
3	0	0	0	0	467	508	0	0	
4	0	0	0	0	467	508	0	0	
5	0	0	0	0	463	508	0	0	
6	0	0	0	0	463	510	0	0	
7	0	0	0	0	472	510	0	0	
8	0	0	0	0	492	512	0	0	
9	0	0	0	0	487	512	0	0	
10	0	0	0	0	480	512	0	0	
11	0	0	0	0	472	510	0	0	
12	0	0	0	0	472	512	0	0	
13	0	0	0	0	467	510	0	0	
14	0	0	0	0	478	512	0	0	
15	0	0	0	0	480	512	0	0	
0	0	0	0	0	480	508	0	0	
1	0	0	0	0	480	510	0	0	
2	0	0	0	0	476	508	0	0	
3	0	0	0	0	480	508	0	0	
4	0	0	0	0	480	505	0	0	
5	0	0	0	0	480	508	0	0	
6	0	0	0	0	476	508	0	0	
7	0	0	0	0	467	505	0	0	
8	0	0	0	0	465	504	0	0	
9	0	0	0	0	465	508	0	0	
10	0	0	0	0	463	508	0	0	
11	0	0	0	0	460	508	0	0	
12	0	0	0	0	476	508	0	0	
13	0	0	0	0	487	508	0	0	
14	0	0	0	0	486	510	0	0	
15	0	0	0	0	480	511	0	0	
0	0	0	0	0	476	511	0	0	
1	0	0	0	0	472	508	0	0	
2	0	0	0	0	472	511	0	0	
3	0	0	0	0	476	508	0	0	
4	0	0	0	0	480	511	0	0	
5	0	0	0	0	483	511	0	0	
6	0	0	0	0	487	510	0	0	
7	0	0	0	0	487	508	0	0	
8	0	0	0	0	487	510	0	0	
9	0	0	0	0	487	510	0	0	
10	0	0	0	0	483	511	0	0	
11	0	0	0	0	480	510	0	0	
12	0	0	0	0	472	508	0	0	
13	0	0	0	0	472	508	0	0	
14	0	0	0	0	476	511	0	0	
15	0	0	0	0	476	508	0	0	
0	0	0	0	0	476	508	0	0	
1	0	0	0	0	465	510	0	0	
2	0	0	0	0	463	508	0	0	
3	0	0	0	0	467	508	0	0	
4	0	0	0	0	476	511	0	0	
5	0	0	0	0	481	512	0	0	
6	0	0	0	0	487	511	0	0	
7	0	0	0	0	492	511	0	0	
8	0	0	0	0	480	511	0	0	
9	0	0	0	0	465	510	0	0	
10	0	0	0	0	472	508	0	0	
11	0	0	0	0	476	510	0	0	
12	0	0	0	0	476	510	0	0	
13	0	0	0	0	472	508	0	0	
14	0	0	0	0	472	510	0	0	
15	0	0	0	0	480	511	0	0	
0	0	0	0	0	480	512	0	0	
1	0	0	0	0	473	508	0	0	
2	0	0	0	0	472	508	0	0	
3	0	0	0	0	472	505	0	0	
4	0	0	0	0	467	508	0	0	
5	0	0	0	0	472	510	0	0	
6	0	0	0	0	473	510	0	0	
7	0	0	0	0	480	508	0	0	
8	0	0	0	0	472	508	0	0	
9	0	0	0	0	472	508	0	0	
10	0	0	0	0	480	510	0	0	
11	0	0	0	0	476	511	0	0	
12	0	0	0	0	473	508	0	0	
13	0	0	0	0	467	511	0	0	
14	0	0	0	0	472	512	0	0	
15	0	0	0	0	481	511	0	0	
0	0	0	0	0	480	511	0	0	
1	0	0	0	0	483	510	0	0	
2	0	0	0	0	487	511	0	0	
3	0	0	0	0	483	510	0	0	
4	0	0	0	0	483	508	0	0	
5	0	0	0	0	480	511	0	0	
6	0	0	0	0	480	508	0	0	
7	0	0	0	0	480	512	0	0	
8	0	0	0	0	476	511	0	0	
9	0	0	0	0	473	512	0	0	
10	0	0	0	0	476	510	0	0	
11	0	0	0	0	472	510	0	0	
12	0	0	0	0	472	508	0	0	
13	0	0	0	0	472	510	0	0	
14	0	0	0	0	472	510	0	0	
15	0	0	0	0	476	510	0	0	
0	0	0	0	0	478	511	0	0	
1	0	0	0	0	480	510	0	0	
2	0	0	0	0	480	511	0	0	
3	0	0	0	0	476	508	0	0	
4	0	0	0	0	472	511	0	0	
5	0	0	0	0	470	510	0	0	
6	0	0	0	0	483	511	0	0	
7	0	0	0	0	494	508	0	0	
8	0	0	0	0	486	510	0	0	
9	0	0	0	0	480	510	0	0	
10	0	0	0	0	480	510	0	0	
11	0	0	0	0	463	504	0	0	
12	0	0	0	0	455	510	0	0	
13	0	0	0	0	454	511	0	0	
14	0	0	0	0	462	510	0	0	
15	0	0	0	0	467	508	0	0	
0	0	0	0	0	473	510	0	0	
1	0	0	0	0	476	510	0	0	
2	0	0	0	0	472	510	0	0	
3	0	0	0	0	472	510	0	0	
4	0	0	0	0	472	508	0	0	
5	0	0	0	0	476	510	0	0	
6	0	0	0	0	478	510	0	0	
7	0	0	0	0	480	508	0	0	
8	0	0	0	0	476	510	0	0	
9	0	0	0	0	476	508	0	0	
10	0	0	0	0	483	508	0	0	
11	0	0	0	0	487	508	0	0	
12	0	0	0	0	476	508	0	0	
13	0	0	0	0	467	508	0	0	
14	0	0	0	0	472	510	0	0	
15	0	0	0	0	472	508	0	0	
0	0	0	0	0	472	508	0	0	
1	0	0	0	0	470	510	0	0	
2	0	0	0	0	472	510	0	0	
3	0	0	0	0	480	510	0	0	
4	0	0	0	0	480	511	0	0	
5	0	0	0	0	480	512	0	0	
6	0	0	0	0	480	512	0	0	
7	0	0	0	0	483	510	0	0	
8	0	0	0	0	483	510	0	0	
9	0	0	0	0	481	508	0	0	
10	0	0	0	0	480	508	0	0	
11	0	0	0	0	476	510	0	0	
12	0	0	0	0	472	508	0	0	
13	0	0	0	0	476	510	0	0	
14	0	0	0	0	472	508	0	0	
15	0	0	0	0	473	508	0	0	
0	0	0	0	0	472	511	0	0	
1	0	0	0	0	472	508	0	0	
2	0	0	0	0	472	508	0	0	
3	0	0	0	0	472	511	0	0	
4	0	0	0	0	476	508	0	0	
5	0	0	0	0	480	511	0	0	
6	0	0	0	0	476	511	0	0	
7	0	0	0	0	476	510	0	0	
8	0	0	0	0	476	511	0	0	
9	0	0	0	0	467	511	0	0	
10	0	0	0	0	472	511	0	0	
11	0	0	0	0	480	513	0	0	
12	0	0	0	0	483	510	0	0	
13	0	0	0	0	483	510	0	0	
14	0	0	0	0	480	505	0	0	
15	0	0	0	0	483	508	0	0	
0	0	0	0	0	483	511	0	0	
1	0	0	0	0	476	510	0	0	
2	0	0	0	0	472	508	0	0	
3	0	0	0	0	472	505	0	0	
4	0	0	0	0	472	510	0	0	
5	0	0	0	0	467	511	0	0	
6	0	0	0	0	463	508	0	0	
7	0	0	0	0	463	508	0	0	
8	0	0	0	0	462	505	0	0	
9	0	0	0	0	460	510	0	0	
10	0	0	0	0	467	512	0	0	
11	0	0	0	0	480	508	0	0	
12	0	0	0	0	483	510	0	0	
13	0	0	0	0	480	508	0	0	
14	0	0	0	0	483	511	0	0	
15	0	0	0	0	487	511	0	0	
0	0	0	0	0	487	511	0	0	
1	0	0	0	0	487	510	0	0	
2	0	0	0	0	487	510	0	0	
3	0	0	0	0	483	508	0	0	
4	0	0	0	0	480	511	0	0	
5	0	0	0	0	476	508	0	0	
6	0	0	0	0	472	510	0	0	
7	0	0	0	0	467	511	0	0	
8	0	0	0	0	470	511	0	0	
9	0	0	0	0	465	508	0	0	
10	0	0	0	0	462	508	0	0	
11	0	0	0	0	462	508	0	0	
12	0	0	0	0	478	508	0	0	
13	0	0	0	0	492	510	0	0	
14	0	0	0	0	496	510	0	0	
15	0	0	0	0	496	511	0	0	
0	0	0	0	0	496	510	0	0	
1	0	0	0	0	496	504	0	0	
