# OpenSignals Text File Format. Version 1
# {"20:18:06:13:21:78": {"position": 0, "device": "bitalino_rev", "device name": "20:18:06:13:21:78", "device connection": "BTH20:18:06:13:21:78", "sampling rate": 1000, "resolution": [4, 1, 1, 1, 1, 10, 10, 10, 10], "firmware version": 1281, "comments": "", "keywords": "", "mode": 0, "sync interval": 2, "date": "2023-6-2", "time": "13:15:5.960", "channels": [1, 2, 3, 4], "sensor": ["EMGBITREV", "EMGBITREV", "RAW", "RAW"], "label": ["A1", "A2", "A3", "A4"], "column": ["nSeq", "I1", "I2", "O1", "O2", "A1", "A2", "A3", "A4"], "special": [{}, {}, {}, {}], "digital IO": [0, 0, 1, 1]}}
# EndOfHeader
0	0	0	0	0	507	506	0	0	
1	0	0	0	0	507	506	0	0	
2	0	0	0	0	511	507	0	0	
3	0	0	0	0	509	509	0	0	
4	0	0	0	0	512	507	0	0	
5	0	0	0	0	512	508	0	0	
6	0	0	0	0	513	511	0	0	
7	0	0	0	0	516	510	0	0	
8	0	0	0	0	513	510	0	0	
9	0	0	0	0	514	511	0	0	
10	0	0	0	0	516	511	0	0	
11	0	0	0	0	515	510	0	0	
12	0	0	0	0	514	508	0	0	
13	0	0	0	0	515	507	0	0	
14	0	0	0	0	511	509	0	0	
15	0	0	0	0	511	509	0	0	
0	0	0	0	0	511	507	0	0	
1	0	0	0	0	511	505	0	0	
2	0	0	0	0	507	507	0	0	
3	0	0	0	0	507	509	0	0	
4	0	0	0	0	507	507	0	0	
5	0	0	0	0	508	507	0	0	
6	0	0	0	0	511	508	0	0	
7	0	0	0	0	508	505	0	0	
8	0	0	0	0	509	507	0	0	
9	0	0	0	0	509	507	0	0	
10	0	0	0	0	510	509	0	0	
11	0	0	0	0	511	509	0	0	
12	0	0	0	0	514	510	0	0	
13	0	0	0	0	514	510	0	0	
14	0	0	0	0	519	510	0	0	
15	0	0	0	0	517	509	0	0	
0	0	0	0	0	515	507	0	0	
1	0	0	0	0	513	505	0	0	
2	0	0	0	0	514	507	0	0	
3	0	0	0	0	512	508	0	0	
4	0	0	0	0	509	508	0	0	
5	0	0	0	0	509	507	0	0	
6	0	0	0	0	507	504	0	0	
7	0	0	0	0	507	507	0	0	
8	0	0	0	0	509	506	0	0	
9	0	0	0	0	506	506	0	0	
10	0	0	0	0	509	504	0	0	
11	0	0	0	0	508	505	0	0	
12	0	0	0	0	507	507	0	0	
13	0	0	0	0	511	509	0	0	
14	0	0	0	0	514	510	0	0	
15	0	0	0	0	512	509	0	0	
0	0	0	0	0	514	510	0	0	
1	0	0	0	0	515	512	0	0	
2	0	0	0	0	515	509	0	0	
3	0	0	0	0	514	508	0	0	
4	0	0	0	0	513	508	0	0	
5	0	0	0	0	513	507	0	0	
6	0	0	0	0	509	510	0	0	
7	0	0	0	0	510	508	0	0	
8	0	0	0	0	510	508	0	0	
9	0	0	0	0	508	506	0	0	
10	0	0	0	0	508	506	0	0	
11	0	0	0	0	510	506	0	0	
12	0	0	0	0	509	506	0	0	
13	0	0	0	0	508	508	0	0	
14	0	0	0	0	509	507	0	0	
15	0	0	0	0	508	507	0	0	
0	0	0	0	0	508	508	0	0	
1	0	0	0	0	509	508	0	0	
2	0	0	0	0	511	507	0	0	
3	0	0	0	0	512	507	0	0	
4	0	0	0	0	512	510	0	0	
5	0	0	0	0	512	508	0	0	
6	0	0	0	0	511	511	0	0	
7	0	0	0	0	512	511	0	0	
8	0	0	0	0	513	507	0	0	
9	0	0	0	0	513	507	0	0	
10	0	0	0	0	517	511	0	0	
11	0	0	0	0	517	510	0	0	
12	0	0	0	0	515	508	0	0	
13	0	0	0	0	513	508	0	0	
14	0	0	0	0	508	508	0	0	
15	0	0	0	0	505	508	0	0	
0	0	0	0	0	507	506	0	0	
1	0	0	0	0	507	506	0	0	
2	0	0	0	0	507	505	0	0	
3	0	0	0	0	508	506	0	0	
4	0	0	0	0	510	507	0	0	
5	0	0	0	0	512	507	0	0	
6	0	0	0	0	513	508	0	0	
7	0	0	0	0	516	511	0	0	
8	0	0	0	0	514	508	0	0	
9	0	0	0	0	516	511	0	0	
10	0	0	0	0	515	509	0	0	
11	0	0	0	0	513	510	0	0	
12	0	0	0	0	513	508	0	0	
13	0	0	0	0	514	508	0	0	
14	0	0	0	0	509	506	0	0	
15	0	0	0	0	510	506	0	0	
0	0	0	0	0	508	506	0	0	
1	0	0	0	0	508	506	0	0	
2	0	0	0	0	510	504	0	0	
3	0	0	0	0	512	507	0	0	
4	0	0	0	0	507	506	0	0	
5	0	0	0	0	506	508	0	0	
6	0	0	0	0	505	507	0	0	
7	0	0	0	0	507	510	0	0	
8	0	0	0	0	507	508	0	0	
9	0	0	0	0	510	511	0	0	
10	0	0	0	0	511	510	0	0	
11	0	0	0	0	513	512	0	0	
12	0	0	0	0	513	509	0	0	
13	0	0	0	0	516	511	0	0	
14	0	0	0	0	514	511	0	0	
15	0	0	0	0	514	509	0	0	
0	0	0	0	0	516	511	0	0	
1	0	0	0	0	514	508	0	0	
2	0	0	0	0	513	509	0	0	
3	0	0	0	0	510	508	0	0	
4	0	0	0	0	510	506	0	0	
5	0	0	0	0	508	505	0	0	
6	0	0	0	0	507	506	0	0	
7	0	0	0	0	504	504	0	0	
8	0	0	0	0	508	508	0	0	
9	0	0	0	0	508	508	0	0	
10	0	0	0	0	511	507	0	0	
11	0	0	0	0	509	508	0	0	
12	0	0	0	0	510	510	0	0	
13	0	0	0	0	509	506	0	0	
14	0	0	0	0	514	506	0	0	
15	0	0	0	0	512	508	0	0	
0	0	0	0	0	514	508	0	0	
1	0	0	0	0	514	510	0	0	
2	0	0	0	0	514	509	0	0	
3	0	0	0	0	513	511	0	0	
4	0	0	0	0	514	508	0	0	
5	0	0	0	0	514	507	0	0	
6	0	0	0	0	509	506	0	0	
7	0	0	0	0	510	507	0	0	
8	0	0	0	0	508	506	0	0	
9	0	0	0	0	511	507	0	0	
10	0	0	0	0	509	506	0	0	
11	0	0	0	0	509	505	0	0	
12	0	0	0	0	508	507	0	0	
13	0	0	0	0	509	508	0	0	
14	0	0	0	0	511	508	0	0	
15	0	0	0	0	510	509	0	0	
0	0	0	0	0	508	509	0	0	
1	0	0	0	0	510	509	0	0	
2	0	0	0	0	513	511	0	0	
3	0	0	0	0	514	508	0	0	
4	0	0	0	0	513	509	0	0	
5	0	0	0	0	512	509	0	0	
6	0	0	0	0	513	511	0	0	
7	0	0	0	0	516	509	0	0	
8	0	0	0	0	515	510	0	0	
9	0	0	0	0	515	509	0	0	
10	0	0	0	0	514	507	0	0	
11	0	0	0	0	513	506	0	0	
12	0	0	0	0	513	507	0	0	
13	0	0	0	0	513	506	0	0	
14	0	0	0	0	510	506	0	0	
15	0	0	0	0	509	508	0	0	
0	0	0	0	0	507	506	0	0	
1	0	0	0	0	509	505	0	0	
2	0	0	0	0	508	507	0	0	
3	0	0	0	0	511	509	0	0	
4	0	0	0	0	511	510	0	0	
5	0	0	0	0	511	510	0	0	
6	0	0	0	0	514	510	0	0	
7	0	0	0	0	513	510	0	0	
8	0	0	0	0	518	510	0	0	
9	0	0	0	0	515	509	0	0	
10	0	0	0	0	516	510	0	0	
11	0	0	0	0	516	509	0	0	
12	0	0	0	0	511	509	0	0	
13	0	0	0	0	511	510	0	0	
14	0	0	0	0	509	508	0	0	
15	0	0	0	0	508	505	0	0	
0	0	0	0	0	509	505	0	0	
1	0	0	0	0	505	507	0	0	
2	0	0	0	0	506	505	0	0	
3	0	0	0	0	507	504	0	0	
4	0	0	0	0	506	505	0	0	
5	0	0	0	0	510	507	0	0	
6	0	0	0	0	510	508	0	0	
7	0	0	0	0	511	507	0	0	
8	0	0	0	0	510	508	0	0	
9	0	0	0	0	510	507	0	0	
10	0	0	0	0	511	508	0	0	
11	0	0	0	0	512	510	0	0	
12	0	0	0	0	514	512	0	0	
13	0	0	0	0	517	511	0	0	
14	0	0	0	0	514	510	0	0	
15	0	0	0	0	513	510	0	0	
0	0	0	0	0	513	508	0	0	
1	0	0	0	0	515	508	0	0	
2	0	0	0	0	512	508	0	0	
3	0	0	0	0	507	505	0	0	
4	0	0	0	0	508	506	0	0	
5	0	0	0	0	505	507	0	0	
6	0	0	0	0	504	506	0	0	
7	0	0	0	0	504	507	0	0	
8	0	0	0	0	508	505	0	0	
9	0	0	0	0	508	506	0	0	
10	0	0	0	0	508	506	0	0	
11	0	0	0	0	514	506	0	0	
12	0	0	0	0	514	508	0	0	
13	0	0	0	0	513	509	0	0	
14	0	0	0	0	513	509	0	0	
15	0	0	0	0	513	511	0	0	
0	0	0	0	0	510	510	0	0	
1	0	0	0	0	510	513	0	0	
2	0	0	0	0	512	510	0	0	
3	0	0	0	0	512	507	0	0	
4	0	0	0	0	513	508	0	0	
5	0	0	0	0	514	507	0	0	
6	0	0	0	0	512	508	0	0	
7	0	0	0	0	511	506	0	0	
8	0	0	0	0	512	507	0	0	
9	0	0	0	0	512	507	0	0	
10	0	0	0	0	511	507	0	0	
11	0	0	0	0	507	507	0	0	
12	0	0	0	0	505	506	0	0	
13	0	0	0	0	507	507	0	0	
14	0	0	0	0	507	506	0	0	
15	0	0	0	0	507	506	0	0	
0	0	0	0	0	510	507	0	0	
1	0	0	0	0	510	510	0	0	
2	0	0	0	0	511	509	0	0	
3	0	0	0	0	511	508	0	0	
4	0	0	0	0	513	510	0	0	
5	0	0	0	0	512	512	0	0	
6	0	0	0	0	515	512	0	0	
7	0	0	0	0	516	511	0	0	
8	0	0	0	0	514	509	0	0	
9	0	0	0	0	513	509	0	0	
10	0	0	0	0	513	510	0	0	
11	0	0	0	0	511	508	0	0	
12	0	0	0	0	511	505	0	0	
13	0	0	0	0	509	505	0	0	
14	0	0	0	0	505	508	0	0	
15	0	0	0	0	507	505	0	0	
0	0	0	0	0	508	507	0	0	
1	0	0	0	0	508	509	0	0	
2	0	0	0	0	507	508	0	0	
3	0	0	0	0	508	506	0	0	
4	0	0	0	0	508	507	0	0	
5	0	0	0	0	511	509	0	0	
6	0	0	0	0	514	509	0	0	
7	0	0	0	0	515	511	0	0	
8	0	0	0	0	514	510	0	0	
9	0	0	0	0	515	508	0	0	
10	0	0	0	0	517	510	0	0	
11	0	0	0	0	515	509	0	0	
12	0	0	0	0	514	509	0	0	
13	0	0	0	0	513	511	0	0	
14	0	0	0	0	513	509	0	0	
15	0	0	0	0	510	509	0	0	
0	0	0	0	0	510	507	0	0	
1	0	0	0	0	507	507	0	0	
2	0	0	0	0	506	506	0	0	
3	0	0	0	0	508	505	0	0	
4	0	0	0	0	508	505	0	0	
5	0	0	0	0	509	507	0	0	
6	0	0	0	0	505	507	0	0	
7	0	0	0	0	508	508	0	0	
8	0	0	0	0	510	507	0	0	
9	0	0	0	0	512	508	0	0	
10	0	0	0	0	511	508	0	0	
11	0	0	0	0	513	509	0	0	
12	0	0	0	0	512	508	0	0	
13	0	0	0	0	516	509	0	0	
14	0	0	0	0	515	508	0	0	
15	0	0	0	0	515	509	0	0	
0	0	0	0	0	514	508	0	0	
1	0	0	0	0	513	511	0	0	
2	0	0	0	0	513	508	0	0	
3	0	0	0	0	512	509	0	0	
4	0	0	0	0	510	507	0	0	
5	0	0	0	0	510	505	0	0	
6	0	0	0	0	510	506	0	0	
7	0	0	0	0	511	506	0	0	
8	0	0	0	0	510	505	0	0	
9	0	0	0	0	509	505	0	0	
10	0	0	0	0	510	507	0	0	
11	0	0	0	0	511	507	0	0	
12	0	0	0	0	509	509	0	0	
13	0	0	0	0	511	510	0	0	
14	0	0	0	0	513	510	0	0	
15	0	0	0	0	513	511	0	0	
0	0	0	0	0	513	511	0	0	
1	0	0	0	0	513	510	0	0	
2	0	0	0	0	512	511	0	0	
3	0	0	0	0	512	511	0	0	
4	0	0	0	0	512	509	0	0	
5	0	0	0	0	514	510	0	0	
6	0	0	0	0	513	508	0	0	
7	0	0	0	0	512	508	0	0	
8	0	0	0	0	511	508	0	0	
9	0	0	0	0	511	509	0	0	
10	0	0	0	0	508	507	0	0	
11	0	0	0	0	508	507	0	0	
12	0	0	0	0	508	506	0	0	
13	0	0	0	0	507	508	0	0	
14	0	0	0	0	508	508	0	0	
15	0	0	0	0	508	510	0	0	
0	0	0	0	0	504	507	0	0	
1	0	0	0	0	507	509	0	0	
2	0	0	0	0	510	508	0	0	
3	0	0	0	0	513	511	0	0	
4	0	0	0	0	516	508	0	0	
5	0	0	0	0	515	507	0	0	
6	0	0	0	0	516	508	0	0	
7	0	0	0	0	515	507	0	0	
8	0	0	0	0	516	506	0	0	
9	0	0	0	0	517	507	0	0	
10	0	0	0	0	514	508	0	0	
11	0	0	0	0	509	506	0	0	
12	0	0	0	0	509	508	0	0	
13	0	0	0	0	507	504	0	0	
14	0	0	0	0	507	505	0	0	
15	0	0	0	0	507	506	0	0	
0	0	0	0	0	506	505	0	0	
1	0	0	0	0	504	506	0	0	
2	0	0	0	0	507	506	0	0	
3	0	0	0	0	507	508	0	0	
4	0	0	0	0	507	508	0	0	
5	0	0	0	0	509	509	0	0	
6	0	0	0	0	512	509	0	0	
7	0	0	0	0	512	510	0	0	
8	0	0	0	0	513	509	0	0	
9	0	0	0	0	517	513	0	0	
10	0	0	0	0	515	511	0	0	
11	0	0	0	0	517	510	0	0	
12	0	0	0	0	516	509	0	0	
13	0	0	0	0	517	510	0	0	
14	0	0	0	0	515	507	0	0	
15	0	0	0	0	511	507	0	0	
0	0	0	0	0	511	508	0	0	
1	0	0	0	0	508	504	0	0	
2	0	0	0	0	511	508	0	0	
3	0	0	0	0	511	507	0	0	
4	0	0	0	0	507	508	0	0	
5	0	0	0	0	507	506	0	0	
6	0	0	0	0	510	508	0	0	
7	0	0	0	0	508	505	0	0	
8	0	0	0	0	510	505	0	0	
9	0	0	0	0	511	509	0	0	
10	0	0	0	0	511	508	0	0	
11	0	0	0	0	511	509	0	0	
12	0	0	0	0	512	509	0	0	
13	0	0	0	0	514	508	0	0	
14	0	0	0	0	516	509	0	0	
15	0	0	0	0	512	509	0	0	
0	0	0	0	0	511	508	0	0	
1	0	0	0	0	509	508	0	0	
2	0	0	0	0	508	508	0	0	
3	0	0	0	0	510	509	0	0	
4	0	0	0	0	510	508	0	0	
5	0	0	0	0	510	507	0	0	
6	0	0	0	0	509	505	0	0	
7	0	0	0	0	508	505	0	0	
8	0	0	0	0	508	506	0	0	
9	0	0	0	0	505	507	0	0	
10	0	0	0	0	505	508	0	0	
11	0	0	0	0	506	508	0	0	
12	0	0	0	0	507	508	0	0	
13	0	0	0	0	509	510	0	0	
14	0	0	0	0	511	508	0	0	
15	0	0	0	0	512	511	0	0	
0	0	0	0	0	514	512	0	0	
1	0	0	0	0	514	511	0	0	
2	0	0	0	0	516	509	0	0	
3	0	0	0	0	516	508	0	0	
4	0	0	0	0	515	508	0	0	
5	0	0	0	0	511	506	0	0	
6	0	0	0	0	513	508	0	0	
7	0	0	0	0	511	508	0	0	
8	0	0	0	0	511	507	0	0	
9	0	0	0	0	510	505	0	0	
10	0	0	0	0	510	507	0	0	
11	0	0	0	0	509	505	0	0	
12	0	0	0	0	508	507	0	0	
13	0	0	0	0	508	508	0	0	
14	0	0	0	0	510	508	0	0	
15	0	0	0	0	510	507	0	0	
0	0	0	0	0	509	510	0	0	
1	0	0	0	0	510	510	0	0	
2	0	0	0	0	515	510	0	0	
3	0	0	0	0	514	510	0	0	
4	0	0	0	0	513	511	0	0	
5	0	0	0	0	514	511	0	0	
6	0	0	0	0	515	510	0	0	
7	0	0	0	0	512	505	0	0	
8	0	0	0	0	515	508	0	0	
9	0	0	0	0	515	508	0	0	
10	0	0	0	0	511	511	0	0	
11	0	0	0	0	511	507	0	0	
12	0	0	0	0	509	507	0	0	
13	0	0	0	0	510	508	0	0	
14	0	0	0	0	509	506	0	0	
15	0	0	0	0	508	505	0	0	
0	0	0	0	0	509	507	0	0	
1	0	0	0	0	506	505	0	0	
2	0	0	0	0	507	506	0	0	
3	0	0	0	0	508	504	0	0	
4	0	0	0	0	508	505	0	0	
5	0	0	0	0	512	506	0	0	
6	0	0	0	0	512	507	0	0	
7	0	0	0	0	514	507	0	0	
8	0	0	0	0	515	510	0	0	
9	0	0	0	0	514	509	0	0	
10	0	0	0	0	512	510	0	0	
11	0	0	0	0	513	510	0	0	
12	0	0	0	0	511	508	0	0	
13	0	0	0	0	510	510	0	0	
14	0	0	0	0	509	509	0	0	
15	0	0	0	0	510	508	0	0	
0	0	0	0	0	509	506	0	0	
1	0	0	0	0	508	506	0	0	
2	0	0	0	0	508	507	0	0	
3	0	0	0	0	510	508	0	0	
4	0	0	0	0	510	509	0	0	
5	0	0	0	0	509	508	0	0	
6	0	0	0	0	508	507	0	0	
7	0	0	0	0	509	510	0	0	
8	0	0	0	0	511	509	0	0	
9	0	0	0	0	514	508	0	0	
10	0	0	0	0	515	509	0	0	
11	0	0	0	0	515	509	0	0	
12	0	0	0	0	518	510	0	0	
13	0	0	0	0	516	510	0	0	
14	0	0	0	0	514	508	0	0	
15	0	0	0	0	513	508	0	0	
0	0	0	0	0	515	508	0	0	
1	0	0	0	0	514	507	0	0	
2	0	0	0	0	514	508	0	0	
3	0	0	0	0	510	505	0	0	
4	0	0	0	0	510	506	0	0	
5	0	0	0	0	508	505	0	0	
6	0	0	0	0	510	508	0	0	
7	0	0	0	0	508	505	0	0	
8	0	0	0	0	508	508	0	0	
9	0	0	0	0	508	507	0	0	
10	0	0	0	0	507	508	0	0	
11	0	0	0	0	507	507	0	0	
12	0	0	0	0	508	508	0	0	
13	0	0	0	0	512	507	0	0	
14	0	0	0	0	511	509	0	0	
15	0	0	0	0	515	508	0	0	
0	0	0	0	0	516	510	0	0	
1	0	0	0	0	516	511	0	0	
2	0	0	0	0	518	510	0	0	
3	0	0	0	0	517	509	0	0	
4	0	0	0	0	516	508	0	0	
5	0	0	0	0	511	508	0	0	
6	0	0	0	0	510	509	0	0	
7	0	0	0	0	508	508	0	0	
8	0	0	0	0	506	507	0	0	
9	0	0	0	0	507	506	0	0	
10	0	0	0	0	507	506	0	0	
11	0	0	0	0	505	508	0	0	
12	0	0	0	0	508	507	0	0	
13	0	0	0	0	507	505	0	0	
14	0	0	0	0	506	506	0	0	
15	0	0	0	0	509	505	0	0	
0	0	0	0	0	513	508	0	0	
1	0	0	0	0	511	508	0	0	
2	0	0	0	0	515	508	0	0	
3	0	0	0	0	513	508	0	0	
4	0	0	0	0	515	510	0	0	
5	0	0	0	0	514	510	0	0	
6	0	0	0	0	514	510	0	0	
7	0	0	0	0	515	509	0	0	
8	0	0	0	0	514	511	0	0	
9	0	0	0	0	513	510	0	0	
10	0	0	0	0	512	507	0	0	
11	0	0	0	0	508	505	0	0	
12	0	0	0	0	510	508	0	0	
13	0	0	0	0	507	507	0	0	
14	0	0	0	0	507	507	0	0	
15	0	0	0	0	506	507	0	0	
0	0	0	0	0	507	509	0	0	
1	0	0	0	0	508	507	0	0	
2	0	0	0	0	509	507	0	0	
3	0	0	0	0	511	507	0	0	
4	0	0	0	0	508	508	0	0	
5	0	0	0	0	513	505	0	0	
6	0	0	0	0	513	510	0	0	
7	0	0	0	0	516	509	0	0	
8	0	0	0	0	514	507	0	0	
9	0	0	0	0	514	508	0	0	
10	0	0	0	0	514	507	0	0	
11	0	0	0	0	513	508	0	0	
12	0	0	0	0	515	510	0	0	
13	0	0	0	0	513	510	0	0	
14	0	0	0	0	513	509	0	0	
15	0	0	0	0	511	508	0	0	
0	0	0	0	0	510	508	0	0	
1	0	0	0	0	507	507	0	0	
2	0	0	0	0	507	504	0	0	
3	0	0	0	0	507	508	0	0	
4	0	0	0	0	507	507	0	0	
5	0	0	0	0	505	505	0	0	
6	0	0	0	0	507	506	0	0	
7	0	0	0	0	506	507	0	0	
8	0	0	0	0	507	508	0	0	
9	0	0	0	0	510	508	0	0	
10	0	0	0	0	512	509	0	0	
11	0	0	0	0	515	511	0	0	
12	0	0	0	0	513	511	0	0	
13	0	0	0	0	514	512	0	0	
14	0	0	0	0	513	511	0	0	
15	0	0	0	0	512	510	0	0	
0	0	0	0	0	511	510	0	0	
1	0	0	0	0	514	509	0	0	
2	0	0	0	0	508	510	0	0	
3	0	0	0	0	508	510	0	0	
4	0	0	0	0	509	509	0	0	
5	0	0	0	0	510	507	0	0	
6	0	0	0	0	511	508	0	0	
7	0	0	0	0	511	508	0	0	
8	0	0	0	0	510	508	0	0	
9	0	0	0	0	507	506	0	0	
10	0	0	0	0	508	505	0	0	
11	0	0	0	0	507	507	0	0	
12	0	0	0	0	508	505	0	0	
13	0	0	0	0	511	506	0	0	
14	0	0	0	0	514	508	0	0	
15	0	0	0	0	514	509	0	0	
0	0	0	0	0	512	510	0	0	
1	0	0	0	0	513	509	0	0	
2	0	0	0	0	514	508	0	0	
3	0	0	0	0	514	508	0	0	
4	0	0	0	0	514	506	0	0	
5	0	0	0	0	515	509	0	0	
6	0	0	0	0	511	510	0	0	
7	0	0	0	0	513	507	0	0	
8	0	0	0	0	512	507	0	0	
9	0	0	0	0	511	505	0	0	
10	0	0	0	0	509	504	0	0	
11	0	0	0	0	510	508	0	0	
12	0	0	0	0	508	508	0	0	
13	0	0	0	0	506	508	0	0	
14	0	0	0	0	505	508	0	0	
15	0	0	0	0	506	508	0	0	
0	0	0	0	0	509	507	0	0	
1	0	0	0	0	512	511	0	0	
2	0	0	0	0	513	507	0	0	
3	0	0	0	0	512	509	0	0	
4	0	0	0	0	512	510	0	0	
5	0	0	0	0	518	510	0	0	
6	0	0	0	0	520	511	0	0	
7	0	0	0	0	516	511	0	0	
8	0	0	0	0	513	510	0	0	
9	0	0	0	0	513	510	0	0	
10	0	0	0	0	514	509	0	0	
11	0	0	0	0	510	508	0	0	
12	0	0	0	0	510	508	0	0	
13	0	0	0	0	508	505	0	0	
14	0	0	0	0	507	506	0	0	
15	0	0	0	0	504	507	0	0	
0	0	0	0	0	506	507	0	0	
1	0	0	0	0	506	508	0	0	
2	0	0	0	0	509	507	0	0	
3	0	0	0	0	508	508	0	0	
4	0	0	0	0	510	508	0	0	
5	0	0	0	0	510	507	0	0	
6	0	0	0	0	513	507	0	0	
7	0	0	0	0	513	508	0	0	
8	0	0	0	0	512	508	0	0	
9	0	0	0	0	514	509	0	0	
10	0	0	0	0	515	507	0	0	
11	0	0	0	0	513	509	0	0	
12	0	0	0	0	516	509	0	0	
13	0	0	0	0	515	509	0	0	
14	0	0	0	0	513	508	0	0	
15	0	0	0	0	515	507	0	0	
0	0	0	0	0	510	507	0	0	
1	0	0	0	0	510	508	0	0	
2	0	0	0	0	510	505	0	0	
3	0	0	0	0	508	508	0	0	
4	0	0	0	0	506	507	0	0	
5	0	0	0	0	507	508	0	0	
6	0	0	0	0	508	506	0	0	
7	0	0	0	0	508	508	0	0	
8	0	0	0	0	508	506	0	0	
9	0	0	0	0	512	509	0	0	
10	0	0	0	0	512	510	0	0	
11	0	0	0	0	511	509	0	0	
12	0	0	0	0	513	509	0	0	
13	0	0	0	0	513	510	0	0	
14	0	0	0	0	513	509	0	0	
15	0	0	0	0	512	512	0	0	
0	0	0	0	0	514	508	0	0	
1	0	0	0	0	511	508	0	0	
2	0	0	0	0	512	507	0	0	
3	0	0	0	0	511	507	0	0	
4	0	0	0	0	509	508	0	0	
5	0	0	0	0	510	506	0	0	
6	0	0	0	0	511	506	0	0	
7	0	0	0	0	510	508	0	0	
8	0	0	0	0	511	508	0	0	
9	0	0	0	0	511	507	0	0	
10	0	0	0	0	511	507	0	0	
11	0	0	0	0	512	508	0	0	
12	0	0	0	0	511	510	0	0	
13	0	0	0	0	510	509	0	0	
14	0	0	0	0	509	509	0	0	
15	0	0	0	0	510	510	0	0	
0	0	0	0	0	513	508	0	0	
1	0	0	0	0	511	509	0	0	
2	0	0	0	0	512	510	0	0	
3	0	0	0	0	512	508	0	0	
4	0	0	0	0	512	509	0	0	
5	0	0	0	0	512	509	0	0	
6	0	0	0	0	510	507	0	0	
7	0	0	0	0	507	507	0	0	
8	0	0	0	0	508	507	0	0	
9	0	0	0	0	508	508	0	0	
10	0	0	0	0	508	507	0	0	
11	0	0	0	0	511	508	0	0	
12	0	0	0	0	511	508	0	0	
13	0	0	0	0	511	507	0	0	
14	0	0	0	0	510	509	0	0	
15	0	0	0	0	513	508	0	0	
0	0	0	0	0	515	508	0	0	
1	0	0	0	0	516	508	0	0	
2	0	0	0	0	512	508	0	0	
3	0	0	0	0	512	509	0	0	
4	0	0	0	0	515	509	0	0	
5	0	0	0	0	518	508	0	0	
6	0	0	0	0	515	511	0	0	
7	0	0	0	0	517	508	0	0	
8	0	0	0	0	515	507	0	0	
9	0	0	0	0	515	508	0	0	
10	0	0	0	0	512	509	0	0	
11	0	0	0	0	510	507	0	0	
12	0	0	0	0	508	504	0	0	
13	0	0	0	0	507	505	0	0	
14	0	0	0	0	509	506	0	0	
15	0	0	0	0	510	506	0	0	
0	0	0	0	0	509	505	0	0	
1	0	0	0	0	508	505	0	0	
2	0	0	0	0	510	505	0	0	
3	0	0	0	0	511	505	0	0	
4	0	0	0	0	510	507	0	0	
5	0	0	0	0	512	508	0	0	
6	0	0	0	0	511	509	0	0	
7	0	0	0	0	512	512	0	0	
8	0	0	0	0	513	511	0	0	
9	0	0	0	0	513	512	0	0	
10	0	0	0	0	513	510	0	0	
11	0	0	0	0	513	507	0	0	
12	0	0	0	0	514	508	0	0	
13	0	0	0	0	512	507	0	0	
14	0	0	0	0	511	506	0	0	
15	0	0	0	0	508	508	0	0	
0	0	0	0	0	510	507	0	0	
1	0	0	0	0	508	508	0	0	
2	0	0	0	0	511	508	0	0	
3	0	0	0	0	514	508	0	0	
4	0	0	0	0	511	507	0	0	
5	0	0	0	0	510	507	0	0	
6	0	0	0	0	509	507	0	0	
7	0	0	0	0	509	506	0	0	
8	0	0	0	0	509	507	0	0	
9	0	0	0	0	510	506	0	0	
10	0	0	0	0	509	509	0	0	
11	0	0	0	0	511	510	0	0	
12	0	0	0	0	512	510	0	0	
13	0	0	0	0	513	510	0	0	
14	0	0	0	0	512	511	0	0	
15	0	0	0	0	511	508	0	0	
0	0	0	0	0	511	512	0	0	
1	0	0	0	0	513	511	0	0	
2	0	0	0	0	510	512	0	0	
3	0	0	0	0	512	508	0	0	
4	0	0	0	0	512	507	0	0	
5	0	0	0	0	508	507	0	0	
6	0	0	0	0	508	504	0	0	
7	0	0	0	0	506	505	0	0	
8	0	0	0	0	508	504	0	0	
9	0	0	0	0	509	507	0	0	
10	0	0	0	0	510	505	0	0	
11	0	0	0	0	511	506	0	0	
12	0	0	0	0	509	508	0	0	
13	0	0	0	0	511	509	0	0	
14	0	0	0	0	512	509	0	0	
15	0	0	0	0	511	509	0	0	
0	0	0	0	0	514	511	0	0	
1	0	0	0	0	516	511	0	0	
2	0	0	0	0	516	509	0	0	
3	0	0	0	0	515	510	0	0	
4	0	0	0	0	517	509	0	0	
5	0	0	0	0	513	510	0	0	
6	0	0	0	0	513	510	0	0	
7	0	0	0	0	512	506	0	0	
8	0	0	0	0	511	507	0	0	
9	0	0	0	0	510	506	0	0	
10	0	0	0	0	510	507	0	0	
11	0	0	0	0	507	507	0	0	
12	0	0	0	0	507	507	0	0	
13	0	0	0	0	511	507	0	0	
14	0	0	0	0	512	507	0	0	
15	0	0	0	0	511	505	0	0	
0	0	0	0	0	508	508	0	0	
1	0	0	0	0	510	508	0	0	
2	0	0	0	0	512	510	0	0	
3	0	0	0	0	513	510	0	0	
4	0	0	0	0	515	509	0	0	
5	0	0	0	0	514	509	0	0	
6	0	0	0	0	516	509	0	0	
7	0	0	0	0	513	510	0	0	
8	0	0	0	0	512	512	0	0	
9	0	0	0	0	513	508	0	0	
10	0	0	0	0	512	509	0	0	
11	0	0	0	0	510	506	0	0	
12	0	0	0	0	508	507	0	0	
13	0	0	0	0	508	506	0	0	
14	0	0	0	0	509	505	0	0	
15	0	0	0	0	511	508	0	0	
0	0	0	0	0	509	505	0	0	
1	0	0	0	0	507	507	0	0	
2	0	0	0	0	509	508	0	0	
3	0	0	0	0	510	508	0	0	
4	0	0	0	0	508	507	0	0	
5	0	0	0	0	511	507	0	0	
6	0	0	0	0	510	511	0	0	
7	0	0	0	0	513	510	0	0	
8	0	0	0	0	514	509	0	0	
9	0	0	0	0	515	510	0	0	
10	0	0	0	0	515	512	0	0	
11	0	0	0	0	515	511	0	0	
12	0	0	0	0	514	510	0	0	
13	0	0	0	0	515	508	0	0	
14	0	0	0	0	512	511	0	0	
15	0	0	0	0	512	505	0	0	
0	0	0	0	0	507	506	0	0	
1	0	0	0	0	508	508	0	0	
2	0	0	0	0	510	504	0	0	
3	0	0	0	0	507	508	0	0	
4	0	0	0	0	506	508	0	0	
5	0	0	0	0	508	506	0	0	
6	0	0	0	0	507	510	0	0	
7	0	0	0	0	507	508	0	0	
8	0	0	0	0	509	508	0	0	
9	0	0	0	0	509	507	0	0	
10	0	0	0	0	511	508	0	0	
11	0	0	0	0	514	508	0	0	
12	0	0	0	0	514	509	0	0	
13	0	0	0	0	514	510	0	0	
14	0	0	0	0	514	507	0	0	
15	0	0	0	0	513	508	0	0	
0	0	0	0	0	514	507	0	0	
1	0	0	0	0	514	509	0	0	
2	0	0	0	0	511	508	0	0	
3	0	0	0	0	510	507	0	0	
4	0	0	0	0	507	508	0	0	
5	0	0	0	0	508	507	0	0	
6	0	0	0	0	508	507	0	0	
7	0	0	0	0	507	505	0	0	
8	0	0	0	0	505	505	0	0	
9	0	0	0	0	508	508	0	0	
10	0	0	0	0	510	508	0	0	
11	0	0	0	0	509	508	0	0	
12	0	0	0	0	510	508	0	0	
13	0	0	0	0	510	508	0	0	
14	0	0	0	0	512	509	0	0	
15	0	0	0	0	513	509	0	0	
0	0	0	0	0	515	508	0	0	
1	0	0	0	0	514	510	0	0	
2	0	0	0	0	515	509	0	0	
3	0	0	0	0	512	510	0	0	
4	0	0	0	0	511	510	0	0	
5	0	0	0	0	513	508	0	0	
6	0	0	0	0	511	510	0	0	
7	0	0	0	0	511	507	0	0	
8	0	0	0	0	508	508	0	0	
9	0	0	0	0	507	508	0	0	
10	0	0	0	0	509	507	0	0	
11	0	0	0	0	509	507	0	0	
12	0	0	0	0	510	507	0	0	
13	0	0	0	0	510	506	0	0	
14	0	0	0	0	510	506	0	0	
15	0	0	0	0	509	506	0	0	
0	0	0	0	0	511	507	0	0	
1	0	0	0	0	511	507	0	0	
2	0	0	0	0	512	508	0	0	
3	0	0	0	0	513	509	0	0	
4	0	0	0	0	516	508	0	0	
5	0	0	0	0	517	510	0	0	
6	0	0	0	0	514	507	0	0	
7	0	0	0	0	513	507	0	0	
8	0	0	0	0	512	508	0	0	
9	0	0	0	0	514	509	0	0	
10	0	0	0	0	513	510	0	0	
11	0	0	0	0	511	508	0	0	
12	0	0	0	0	510	508	0	0	
13	0	0	0	0	510	507	0	0	
14	0	0	0	0	510	504	0	0	
15	0	0	0	0	505	507	0	0	
0	0	0	0	0	507	506	0	0	
1	0	0	0	0	505	506	0	0	
2	0	0	0	0	507	508	0	0	
3	0	0	0	0	505	507	0	0	
4	0	0	0	0	510	509	0	0	
5	0	0	0	0	509	512	0	0	
6	0	0	0	0	513	509	0	0	
7	0	0	0	0	515	511	0	0	
8	0	0	0	0	516	511	0	0	
9	0	0	0	0	519	510	0	0	
10	0	0	0	0	517	508	0	0	
11	0	0	0	0	516	508	0	0	
12	0	0	0	0	515	509	0	0	
13	0	0	0	0	515	511	0	0	
14	0	0	0	0	514	509	0	0	
15	0	0	0	0	513	508	0	0	
0	0	0	0	0	511	509	0	0	
1	0	0	0	0	509	508	0	0	
2	0	0	0	0	505	507	0	0	
3	0	0	0	0	505	510	0	0	
4	0	0	0	0	507	506	0	0	
5	0	0	0	0	508	505	0	0	
6	0	0	0	0	506	506	0	0	
7	0	0	0	0	507	506	0	0	
8	0	0	0	0	508	508	0	0	
9	0	0	0	0	512	508	0	0	
10	0	0	0	0	511	508	0	0	
11	0	0	0	0	513	509	0	0	
12	0	0	0	0	514	509	0	0	
13	0	0	0	0	514	508	0	0	
14	0	0	0	0	513	509	0	0	
15	0	0	0	0	513	507	0	0	
0	0	0	0	0	513	510	0	0	
1	0	0	0	0	512	509	0	0	
2	0	0	0	0	510	508	0	0	
3	0	0	0	0	512	508	0	0	
4	0	0	0	0	509	507	0	0	
5	0	0	0	0	508	505	0	0	
6	0	0	0	0	510	506	0	0	
7	0	0	0	0	512	506	0	0	
8	0	0	0	0	510	507	0	0	
9	0	0	0	0	510	504	0	0	
10	0	0	0	0	511	506	0	0	
11	0	0	0	0	508	505	0	0	
12	0	0	0	0	509	507	0	0	
13	0	0	0	0	511	505	0	0	
14	0	0	0	0	511	508	0	0	
15	0	0	0	0	511	508	0	0	
0	0	0	0	0	512	510	0	0	
1	0	0	0	0	515	510	0	0	
2	0	0	0	0	514	511	0	0	
3	0	0	0	0	513	510	0	0	
4	0	0	0	0	512	508	0	0	
5	0	0	0	0	513	509	0	0	
6	0	0	0	0	514	507	0	0	
7	0	0	0	0	515	506	0	0	
8	0	0	0	0	512	508	0	0	
9	0	0	0	0	514	506	0	0	
10	0	0	0	0	510	505	0	0	
11	0	0	0	0	509	507	0	0	
12	0	0	0	0	507	507	0	0	
13	0	0	0	0	507	507	0	0	
14	0	0	0	0	505	507	0	0	
15	0	0	0	0	505	508	0	0	
0	0	0	0	0	507	508	0	0	
1	0	0	0	0	510	508	0	0	
2	0	0	0	0	510	509	0	0	
3	0	0	0	0	514	508	0	0	
4	0	0	0	0	516	513	0	0	
5	0	0	0	0	515	511	0	0	
6	0	0	0	0	515	509	0	0	
7	0	0	0	0	516	511	0	0	
8	0	0	0	0	514	511	0	0	
9	0	0	0	0	514	512	0	0	
10	0	0	0	0	514	511	0	0	
11	0	0	0	0	511	507	0	0	
12	0	0	0	0	508	507	0	0	
13	0	0	0	0	509	505	0	0	
14	0	0	0	0	507	505	0	0	
15	0	0	0	0	505	505	0	0	
0	0	0	0	0	508	506	0	0	
1	0	0	0	0	507	507	0	0	
2	0	0	0	0	506	506	0	0	
3	0	0	0	0	507	507	0	0	
4	0	0	0	0	508	509	0	0	
5	0	0	0	0	513	508	0	0	
6	0	0	0	0	510	507	0	0	
7	0	0	0	0	512	508	0	0	
8	0	0	0	0	515	510	0	0	
9	0	0	0	0	513	512	0	0	
10	0	0	0	0	515	510	0	0	
11	0	0	0	0	513	510	0	0	
12	0	0	0	0	513	512	0	0	
13	0	0	0	0	512	511	0	0	
14	0	0	0	0	512	509	0	0	
15	0	0	0	0	510	507	0	0	
0	0	0	0	0	512	505	0	0	
1	0	0	0	0	511	507	0	0	
2	0	0	0	0	510	505	0	0	
3	0	0	0	0	511	505	0	0	
4	0	0	0	0	512	507	0	0	
5	0	0	0	0	509	508	0	0	
6	0	0	0	0	511	508	0	0	
7	0	0	0	0	510	508	0	0	
8	0	0	0	0	512	507	0	0	
9	0	0	0	0	509	506	0	0	
10	0	0	0	0	513	510	0	0	
11	0	0	0	0	511	509	0	0	
12	0	0	0	0	512	510	0	0	
13	0	0	0	0	516	510	0	0	
14	0	0	0	0	516	507	0	0	
15	0	0	0	0	513	508	0	0	
0	0	0	0	0	510	508	0	0	
1	0	0	0	0	512	508	0	0	
2	0	0	0	0	509	509	0	0	
3	0	0	0	0	509	506	0	0	
4	0	0	0	0	509	507	0	0	
5	0	0	0	0	510	505	0	0	
6	0	0	0	0	507	504	0	0	
7	0	0	0	0	507	504	0	0	
8	0	0	0	0	509	505	0	0	
9	0	0	0	0	506	507	0	0	
10	0	0	0	0	509	509	0	0	
11	0	0	0	0	508	507	0	0	
12	0	0	0	0	512	505	0	0	
13	0	0	0	0	513	509	0	0	
14	0	0	0	0	512	511	0	0	
15	0	0	0	0	511	511	0	0	
0	0	0	0	0	512	513	0	0	
1	0	0	0	0	513	509	0	0	
2	0	0	0	0	514	511	0	0	
3	0	0	0	0	515	510	0	0	
4	0	0	0	0	515	507	0	0	
5	0	0	0	0	516	508	0	0	
6	0	0	0	0	512	508	0	0	
7	0	0	0	0	510	509	0	0	
8	0	0	0	0	512	507	0	0	
9	0	0	0	0	507	506	0	0	
10	0	0	0	0	506	508	0	0	
11	0	0	0	0	508	508	0	0	
12	0	0	0	0	508	507	0	0	
13	0	0	0	0	508	508	0	0	
14	0	0	0	0	509	507	0	0	
15	0	0	0	0	509	510	0	0	
0	0	0	0	0	512	508	0	0	
1	0	0	0	0	511	510	0	0	
2	0	0	0	0	510	507	0	0	
3	0	0	0	0	513	510	0	0	
4	0	0	0	0	512	512	0	0	
5	0	0	0	0	515	510	0	0	
6	0	0	0	0	514	510	0	0	
7	0	0	0	0	515	508	0	0	
8	0	0	0	0	512	510	0	0	
9	0	0	0	0	512	508	0	0	
10	0	0	0	0	513	508	0	0	
11	0	0	0	0	509	506	0	0	
12	0	0	0	0	509	507	0	0	
13	0	0	0	0	509	505	0	0	
14	0	0	0	0	508	505	0	0	
15	0	0	0	0	506	505	0	0	
0	0	0	0	0	508	506	0	0	
1	0	0	0	0	506	507	0	0	
2	0	0	0	0	508	508	0	0	
3	0	0	0	0	512	511	0	0	
4	0	0	0	0	513	507	0	0	
5	0	0	0	0	513	508	0	0	
6	0	0	0	0	515	507	0	0	
7	0	0	0	0	517	506	0	0	
8	0	0	0	0	518	512	0	0	
9	0	0	0	0	516	509	0	0	
10	0	0	0	0	515	510	0	0	
11	0	0	0	0	514	509	0	0	
12	0	0	0	0	515	511	0	0	
13	0	0	0	0	512	509	0	0	
14	0	0	0	0	511	510	0	0	
15	0	0	0	0	511	508	0	0	
0	0	0	0	0	510	508	0	0	
1	0	0	0	0	510	505	0	0	
2	0	0	0	0	507	505	0	0	
3	0	0	0	0	507	504	0	0	
4	0	0	0	0	507	505	0	0	
5	0	0	0	0	511	505	0	0	
6	0	0	0	0	511	508	0	0	
7	0	0	0	0	510	507	0	0	
8	0	0	0	0	511	507	0	0	
9	0	0	0	0	512	509	0	0	
10	0	0	0	0	513	508	0	0	
11	0	0	0	0	515	508	0	0	
12	0	0	0	0	516	509	0	0	
13	0	0	0	0	514	508	0	0	
14	0	0	0	0	512	510	0	0	
15	0	0	0	0	511	510	0	0	
0	0	0	0	0	510	511	0	0	
1	0	0	0	0	511	508	0	0	
2	0	0	0	0	511	508	0	0	
3	0	0	0	0	510	508	0	0	
4	0	0	0	0	512	510	0	0	
5	0	0	0	0	509	507	0	0	
6	0	0	0	0	509	507	0	0	
7	0	0	0	0	507	505	0	0	
8	0	0	0	0	508	506	0	0	
9	0	0	0	0	508	506	0	0	
10	0	0	0	0	506	504	0	0	
11	0	0	0	0	505	504	0	0	
12	0	0	0	0	505	508	0	0	
13	0	0	0	0	509	508	0	0	
14	0	0	0	0	508	509	0	0	
15	0	0	0	0	511	510	0	0	
0	0	0	0	0	512	510	0	0	
1	0	0	0	0	512	510	0	0	
2	0	0	0	0	514	507	0	0	
3	0	0	0	0	516	511	0	0	
4	0	0	0	0	516	509	0	0	
5	0	0	0	0	517	510	0	0	
6	0	0	0	0	513	509	0	0	
7	0	0	0	0	512	507	0	0	
8	0	0	0	0	511	508	0	0	
9	0	0	0	0	509	507	0	0	
10	0	0	0	0	508	507	0	0	
11	0	0	0	0	508	507	0	0	
12	0	0	0	0	510	506	0	0	
13	0	0	0	0	511	507	0	0	
14	0	0	0	0	508	508	0	0	
15	0	0	0	0	509	508	0	0	
0	0	0	0	0	511	510	0	0	
1	0	0	0	0	513	509	0	0	
2	0	0	0	0	512	508	0	0	
3	0	0	0	0	513	509	0	0	
4	0	0	0	0	515	510	0	0	
5	0	0	0	0	514	510	0	0	
6	0	0	0	0	511	508	0	0	
7	0	0	0	0	510	511	0	0	
8	0	0	0	0	510	510	0	0	
9	0	0	0	0	509	510	0	0	
10	0	0	0	0	508	509	0	0	
11	0	0	0	0	508	507	0	0	
12	0	0	0	0	509	507	0	0	
13	0	0	0	0	508	508	0	0	
14	0	0	0	0	507	504	0	0	
15	0	0	0	0	507	508	0	0	
0	0	0	0	0	506	506	0	0	
1	0	0	0	0	505	506	0	0	
2	0	0	0	0	509	506	0	0	
3	0	0	0	0	511	507	0	0	
4	0	0	0	0	511	510	0	0	
5	0	0	0	0	509	509	0	0	
6	0	0	0	0	511	507	0	0	
7	0	0	0	0	509	509	0	0	
8	0	0	0	0	509	510	0	0	
9	0	0	0	0	510	509	0	0	
10	0	0	0	0	512	510	0	0	
11	0	0	0	0	514	508	0	0	
12	0	0	0	0	515	509	0	0	
13	0	0	0	0	514	509	0	0	
14	0	0	0	0	514	508	0	0	
15	0	0	0	0	513	506	0	0	
0	0	0	0	0	511	504	0	0	
1	0	0	0	0	510	508	0	0	
2	0	0	0	0	508	507	0	0	
3	0	0	0	0	509	506	0	0	
4	0	0	0	0	509	505	0	0	
5	0	0	0	0	510	505	0	0	
6	0	0	0	0	508	505	0	0	
7	0	0	0	0	510	505	0	0	
8	0	0	0	0	508	508	0	0	
9	0	0	0	0	509	509	0	0	
10	0	0	0	0	512	508	0	0	
11	0	0	0	0	515	509	0	0	
12	0	0	0	0	515	510	0	0	
13	0	0	0	0	514	509	0	0	
14	0	0	0	0	516	508	0	0	
15	0	0	0	0	517	510	0	0	
0	0	0	0	0	518	509	0	0	
1	0	0	0	0	515	508	0	0	
2	0	0	0	0	515	508	0	0	
3	0	0	0	0	515	509	0	0	
4	0	0	0	0	515	508	0	0	
5	0	0	0	0	514	508	0	0	
6	0	0	0	0	509	507	0	0	
7	0	0	0	0	510	509	0	0	
8	0	0	0	0	506	509	0	0	
9	0	0	0	0	505	508	0	0	
10	0	0	0	0	505	507	0	0	
11	0	0	0	0	508	504	0	0	
12	0	0	0	0	508	506	0	0	
13	0	0	0	0	511	508	0	0	
14	0	0	0	0	514	509	0	0	
15	0	0	0	0	511	509	0	0	
0	0	0	0	0	513	510	0	0	
1	0	0	0	0	512	510	0	0	
2	0	0	0	0	513	508	0	0	
3	0	0	0	0	511	507	0	0	
4	0	0	0	0	513	510	0	0	
5	0	0	0	0	518	509	0	0	
6	0	0	0	0	516	508	0	0	
7	0	0	0	0	515	508	0	0	
8	0	0	0	0	513	509	0	0	
9	0	0	0	0	511	506	0	0	
10	0	0	0	0	507	505	0	0	
11	0	0	0	0	507	504	0	0	
12	0	0	0	0	509	506	0	0	
13	0	0	0	0	509	506	0	0	
14	0	0	0	0	506	505	0	0	
15	0	0	0	0	511	505	0	0	
0	0	0	0	0	509	507	0	0	
1	0	0	0	0	510	507	0	0	
2	0	0	0	0	510	508	0	0	
3	0	0	0	0	510	510	0	0	
4	0	0	0	0	512	510	0	0	
5	0	0	0	0	514	510	0	0	
6	0	0	0	0	514	509	0	0	
7	0	0	0	0	514	509	0	0	
8	0	0	0	0	512	510	0	0	
9	0	0	0	0	515	508	0	0	
10	0	0	0	0	513	510	0	0	
11	0	0	0	0	510	508	0	0	
12	0	0	0	0	511	507	0	0	
13	0	0	0	0	511	507	0	0	
14	0	0	0	0	511	506	0	0	
15	0	0	0	0	510	505	0	0	
0	0	0	0	0	512	507	0	0	
1	0	0	0	0	511	508	0	0	
2	0	0	0	0	508	508	0	0	
3	0	0	0	0	507	505	0	0	
4	0	0	0	0	508	506	0	0	
5	0	0	0	0	508	507	0	0	
6	0	0	0	0	510	508	0	0	
7	0	0	0	0	510	508	0	0	
8	0	0	0	0	511	511	0	0	
9	0	0	0	0	512	511	0	0	
10	0	0	0	0	512	508	0	0	
11	0	0	0	0	511	508	0	0	
12	0	0	0	0	511	507	0	0	
13	0	0	0	0	512	508	0	0	
14	0	0	0	0	512	510	0	0	
15	0	0	0	0	511	507	0	0	
0	0	0	0	0	511	511	0	0	
1	0	0	0	0	511	507	0	0	
2	0	0	0	0	512	507	0	0	
3	0	0	0	0	511	506	0	0	
4	0	0	0	0	511	505	0	0	
5	0	0	0	0	514	507	0	0	
6	0	0	0	0	513	506	0	0	
7	0	0	0	0	511	507	0	0	
8	0	0	0	0	510	511	0	0	
9	0	0	0	0	511	510	0	0	
10	0	0	0	0	512	511	0	0	
11	0	0	0	0	512	510	0	0	
12	0	0	0	0	512	511	0	0	
13	0	0	0	0	515	511	0	0	
14	0	0	0	0	515	510	0	0	
15	0	0	0	0	511	511	0	0	
0	0	0	0	0	511	510	0	0	
1	0	0	0	0	514	507	0	0	
2	0	0	0	0	512	510	0	0	
3	0	0	0	0	511	507	0	0	
4	0	0	0	0	510	507	0	0	
5	0	0	0	0	506	508	0	0	
6	0	0	0	0	507	506	0	0	
7	0	0	0	0	507	507	0	0	
8	0	0	0	0	505	505	0	0	
9	0	0	0	0	512	506	0	0	
10	0	0	0	0	511	505	0	0	
11	0	0	0	0	513	505	0	0	
12	0	0	0	0	512	507	0	0	
13	0	0	0	0	513	508	0	0	
14	0	0	0	0	513	508	0	0	
15	0	0	0	0	515	511	0	0	
0	0	0	0	0	516	511	0	0	
1	0	0	0	0	515	512	0	0	
2	0	0	0	0	514	511	0	0	
3	0	0	0	0	516	510	0	0	
4	0	0	0	0	513	509	0	0	
5	0	0	0	0	512	509	0	0	
6	0	0	0	0	512	509	0	0	
7	0	0	0	0	509	506	0	0	
8	0	0	0	0	506	507	0	0	
9	0	0	0	0	505	506	0	0	
10	0	0	0	0	508	507	0	0	
11	0	0	0	0	507	505	0	0	
12	0	0	0	0	505	506	0	0	
13	0	0	0	0	510	508	0	0	
14	0	0	0	0	508	505	0	0	
15	0	0	0	0	508	504	0	0	
0	0	0	0	0	509	506	0	0	
1	0	0	0	0	511	508	0	0	
2	0	0	0	0	513	509	0	0	
3	0	0	0	0	512	507	0	0	
4	0	0	0	0	513	510	0	0	
5	0	0	0	0	515	510	0	0	
6	0	0	0	0	513	509	0	0	
7	0	0	0	0	513	509	0	0	
8	0	0	0	0	512	508	0	0	
9	0	0	0	0	510	509	0	0	
10	0	0	0	0	513	507	0	0	
11	0	0	0	0	511	505	0	0	
12	0	0	0	0	509	507	0	0	
13	0	0	0	0	510	510	0	0	
14	0	0	0	0	508	506	0	0	
15	0	0	0	0	505	505	0	0	
0	0	0	0	0	506	507	0	0	
1	0	0	0	0	505	506	0	0	
2	0	0	0	0	509	507	0	0	
3	0	0	0	0	508	508	0	0	
4	0	0	0	0	507	508	0	0	
5	0	0	0	0	510	509	0	0	
6	0	0	0	0	512	510	0	0	
7	0	0	0	0	513	510	0	0	
8	0	0	0	0	515	510	0	0	
9	0	0	0	0	515	511	0	0	
10	0	0	0	0	516	510	0	0	
11	0	0	0	0	515	508	0	0	
12	0	0	0	0	517	508	0	0	
13	0	0	0	0	516	510	0	0	
14	0	0	0	0	514	508	0	0	
15	0	0	0	0	512	508	0	0	
0	0	0	0	0	510	507	0	0	
1	0	0	0	0	508	506	0	0	
2	0	0	0	0	508	505	0	0	
3	0	0	0	0	506	505	0	0	
4	0	0	0	0	509	506	0	0	
5	0	0	0	0	508	506	0	0	
6	0	0	0	0	506	507	0	0	
7	0	0	0	0	508	507	0	0	
8	0	0	0	0	507	508	0	0	
9	0	0	0	0	511	508	0	0	
10	0	0	0	0	511	508	0	0	
11	0	0	0	0	510	508	0	0	
12	0	0	0	0	514	510	0	0	
13	0	0	0	0	513	510	0	0	
14	0	0	0	0	515	511	0	0	
15	0	0	0	0	512	512	0	0	
0	0	0	0	0	512	508	0	0	
1	0	0	0	0	513	508	0	0	
2	0	0	0	0	512	509	0	0	
3	0	0	0	0	510	508	0	0	
4	0	0	0	0	510	507	0	0	
5	0	0	0	0	508	506	0	0	
6	0	0	0	0	509	505	0	0	
7	0	0	0	0	508	507	0	0	
8	0	0	0	0	508	507	0	0	
9	0	0	0	0	509	504	0	0	
10	0	0	0	0	506	507	0	0	
11	0	0	0	0	508	507	0	0	
12	0	0	0	0	508	508	0	0	
13	0	0	0	0	511	508	0	0	
14	0	0	0	0	514	510	0	0	
15	0	0	0	0	514	510	0	0	
0	0	0	0	0	516	510	0	0	
1	0	0	0	0	517	512	0	0	
2	0	0	0	0	515	511	0	0	
3	0	0	0	0	514	512	0	0	
4	0	0	0	0	511	509	0	0	
5	0	0	0	0	510	508	0	0	
6	0	0	0	0	511	509	0	0	
7	0	0	0	0	512	506	0	0	
8	0	0	0	0	508	504	0	0	
9	0	0	0	0	506	508	0	0	
10	0	0	0	0	506	507	0	0	
11	0	0	0	0	508	508	0	0	
12	0	0	0	0	509	509	0	0	
13	0	0	0	0	510	507	0	0	
14	0	0	0	0	507	507	0	0	
15	0	0	0	0	507	505	0	0	
0	0	0	0	0	507	508	0	0	
1	0	0	0	0	513	507	0	0	
2	0	0	0	0	513	507	0	0	
3	0	0	0	0	516	510	0	0	
4	0	0	0	0	516	510	0	0	
5	0	0	0	0	517	511	0	0	
6	0	0	0	0	518	509	0	0	
7	0	0	0	0	516	509	0	0	
8	0	0	0	0	516	509	0	0	
9	0	0	0	0	513	508	0	0	
10	0	0	0	0	511	508	0	0	
11	0	0	0	0	508	508	0	0	
12	0	0	0	0	506	506	0	0	
13	0	0	0	0	508	504	0	0	
14	0	0	0	0	508	505	0	0	
15	0	0	0	0	509	507	0	0	
0	0	0	0	0	508	506	0	0	
1	0	0	0	0	508	509	0	0	
2	0	0	0	0	507	507	0	0	
3	0	0	0	0	507	505	0	0	
4	0	0	0	0	510	509	0	0	
5	0	0	0	0	510	509	0	0	
6	0	0	0	0	510	506	0	0	
7	0	0	0	0	514	508	0	0	
8	0	0	0	0	515	510	0	0	
9	0	0	0	0	514	512	0	0	
10	0	0	0	0	513	511	0	0	
11	0	0	0	0	513	510	0	0	
12	0	0	0	0	512	511	0	0	
13	0	0	0	0	510	508	0	0	
14	0	0	0	0	508	508	0	0	
15	0	0	0	0	508	508	0	0	
0	0	0	0	0	508	505	0	0	
1	0	0	0	0	508	505	0	0	
2	0	0	0	0	510	505	0	0	
3	0	0	0	0	511	509	0	0	
4	0	0	0	0	513	506	0	0	
5	0	0	0	0	512	505	0	0	
6	0	0	0	0	511	505	0	0	
7	0	0	0	0	508	508	0	0	
8	0	0	0	0	509	509	0	0	
9	0	0	0	0	511	508	0	0	
10	0	0	0	0	514	511	0	0	
11	0	0	0	0	514	510	0	0	
12	0	0	0	0	516	509	0	0	
13	0	0	0	0	517	510	0	0	
14	0	0	0	0	511	509	0	0	
15	0	0	0	0	513	509	0	0	
0	0	0	0	0	516	511	0	0	
1	0	0	0	0	513	510	0	0	
2	0	0	0	0	513	508	0	0	
3	0	0	0	0	513	505	0	0	
4	0	0	0	0	513	506	0	0	
5	0	0	0	0	512	505	0	0	
6	0	0	0	0	510	506	0	0	
7	0	0	0	0	505	504	0	0	
8	0	0	0	0	504	506	0	0	
9	0	0	0	0	504	507	0	0	
10	0	0	0	0	508	507	0	0	
11	0	0	0	0	510	509	0	0	
12	0	0	0	0	508	508	0	0	
13	0	0	0	0	511	507	0	0	
14	0	0	0	0	513	509	0	0	
15	0	0	0	0	512	508	0	0	
0	0	0	0	0	515	507	0	0	
1	0	0	0	0	515	509	0	0	
2	0	0	0	0	515	507	0	0	
3	0	0	0	0	514	511	0	0	
4	0	0	0	0	514	510	0	0	
5	0	0	0	0	518	508	0	0	
6	0	0	0	0	514	508	0	0	
7	0	0	0	0	511	508	0	0	
8	0	0	0	0	512	507	0	0	
9	0	0	0	0	511	508	0	0	
10	0	0	0	0	509	506	0	0	
11	0	0	0	0	508	508	0	0	
12	0	0	0	0	509	509	0	0	
13	0	0	0	0	511	507	0	0	
14	0	0	0	0	510	508	0	0	
15	0	0	0	0	510	506	0	0	
0	0	0	0	0	507	507	0	0	
1	0	0	0	0	508	508	0	0	
2	0	0	0	0	510	507	0	0	
3	0	0	0	0	514	509	0	0	
4	0	0	0	0	513	510	0	0	
5	0	0	0	0	512	513	0	0	
6	0	0	0	0	511	509	0	0	
7	0	0	0	0	511	510	0	0	
8	0	0	0	0	512	510	0	0	
9	0	0	0	0	515	509	0	0	
10	0	0	0	0	512	508	0	0	
11	0	0	0	0	510	505	0	0	
12	0	0	0	0	511	505	0	0	
13	0	0	0	0	510	507	0	0	
14	0	0	0	0	507	505	0	0	
15	0	0	0	0	507	506	0	0	
0	0	0	0	0	508	505	0	0	
1	0	0	0	0	510	506	0	0	
2	0	0	0	0	508	509	0	0	
3	0	0	0	0	509	508	0	0	
4	0	0	0	0	509	507	0	0	
5	0	0	0	0	510	509	0	0	
6	0	0	0	0	512	510	0	0	
7	0	0	0	0	509	509	0	0	
8	0	0	0	0	513	510	0	0	
9	0	0	0	0	515	509	0	0	
10	0	0	0	0	515	511	0	0	
11	0	0	0	0	514	511	0	0	
12	0	0	0	0	513	511	0	0	
13	0	0	0	0	513	510	0	0	
14	0	0	0	0	513	507	0	0	
15	0	0	0	0	511	507	0	0	
0	0	0	0	0	506	505	0	0	
1	0	0	0	0	510	506	0	0	
2	0	0	0	0	508	506	0	0	
3	0	0	0	0	508	508	0	0	
4	0	0	0	0	508	507	0	0	
5	0	0	0	0	511	506	0	0	
6	0	0	0	0	508	508	0	0	
7	0	0	0	0	508	508	0	0	
8	0	0	0	0	511	508	0	0	
9	0	0	0	0	512	508	0	0	
10	0	0	0	0	513	507	0	0	
11	0	0	0	0	512	509	0	0	
12	0	0	0	0	511	510	0	0	
13	0	0	0	0	513	509	0	0	
14	0	0	0	0	513	507	0	0	
15	0	0	0	0	513	509	0	0	
0	0	0	0	0	515	509	0	0	
1	0	0	0	0	512	507	0	0	
2	0	0	0	0	511	505	0	0	
3	0	0	0	0	508	508	0	0	
4	0	0	0	0	509	509	0	0	
5	0	0	0	0	506	506	0	0	
6	0	0	0	0	507	508	0	0	
7	0	0	0	0	509	507	0	0	
8	0	0	0	0	510	507	0	0	
9	0	0	0	0	509	506	0	0	
10	0	0	0	0	507	507	0	0	
11	0	0	0	0	510	505	0	0	
12	0	0	0	0	510	508	0	0	
13	0	0	0	0	514	509	0	0	
14	0	0	0	0	519	510	0	0	
15	0	0	0	0	521	510	0	0	
0	0	0	0	0	513	509	0	0	
1	0	0	0	0	516	509	0	0	
2	0	0	0	0	513	509	0	0	
3	0	0	0	0	510	510	0	0	
4	0	0	0	0	512	508	0	0	
5	0	0	0	0	511	509	0	0	
6	0	0	0	0	509	508	0	0	
7	0	0	0	0	510	509	0	0	
8	0	0	0	0	509	509	0	0	
9	0	0	0	0	509	507	0	0	
10	0	0	0	0	506	506	0	0	
11	0	0	0	0	509	505	0	0	
12	0	0	0	0	506	506	0	0	
13	0	0	0	0	509	507	0	0	
14	0	0	0	0	509	506	0	0	
15	0	0	0	0	508	507	0	0	
0	0	0	0	0	509	508	0	0	
1	0	0	0	0	512	508	0	0	
2	0	0	0	0	514	508	0	0	
3	0	0	0	0	511	509	0	0	
4	0	0	0	0	513	510	0	0	
5	0	0	0	0	514	510	0	0	
6	0	0	0	0	514	512	0	0	
7	0	0	0	0	514	509	0	0	
8	0	0	0	0	514	511	0	0	
9	0	0	0	0	514	508	0	0	
10	0	0	0	0	513	510	0	0	
11	0	0	0	0	516	508	0	0	
12	0	0	0	0	513	505	0	0	
13	0	0	0	0	512	505	0	0	
14	0	0	0	0	509	507	0	0	
15	0	0	0	0	506	504	0	0	
0	0	0	0	0	504	505	0	0	
1	0	0	0	0	505	507	0	0	
2	0	0	0	0	507	505	0	0	
3	0	0	0	0	506	507	0	0	
4	0	0	0	0	509	507	0	0	
5	0	0	0	0	510	508	0	0	
6	0	0	0	0	512	508	0	0	
7	0	0	0	0	511	508	0	0	
8	0	0	0	0	510	508	0	0	
9	0	0	0	0	514	509	0	0	
10	0	0	0	0	516	511	0	0	
11	0	0	0	0	518	508	0	0	
12	0	0	0	0	515	507	0	0	
13	0	0	0	0	514	507	0	0	
14	0	0	0	0	513	507	0	0	
15	0	0	0	0	512	507	0	0	
0	0	0	0	0	508	508	0	0	
1	0	0	0	0	506	508	0	0	
2	0	0	0	0	508	507	0	0	
3	0	0	0	0	508	507	0	0	
4	0	0	0	0	508	505	0	0	
5	0	0	0	0	509	504	0	0	
6	0	0	0	0	508	507	0	0	
7	0	0	0	0	507	507	0	0	
8	0	0	0	0	508	508	0	0	
9	0	0	0	0	512	510	0	0	
10	0	0	0	0	518	511	0	0	
11	0	0	0	0	515	510	0	0	
12	0	0	0	0	514	511	0	0	
13	0	0	0	0	512	510	0	0	
14	0	0	0	0	513	511	0	0	
15	0	0	0	0	513	509	0	0	
0	0	0	0	0	514	510	0	0	
1	0	0	0	0	515	508	0	0	
2	0	0	0	0	513	510	0	0	
3	0	0	0	0	511	508	0	0	
4	0	0	0	0	512	508	0	0	
5	0	0	0	0	511	509	0	0	
6	0	0	0	0	510	507	0	0	
7	0	0	0	0	510	509	0	0	
8	0	0	0	0	508	508	0	0	
9	0	0	0	0	510	504	0	0	
10	0	0	0	0	509	507	0	0	
11	0	0	0	0	510	505	0	0	
12	0	0	0	0	511	507	0	0	
13	0	0	0	0	510	508	0	0	
14	0	0	0	0	509	509	0	0	
15	0	0	0	0	509	509	0	0	
0	0	0	0	0	509	510	0	0	
1	0	0	0	0	512	510	0	0	
2	0	0	0	0	513	509	0	0	
3	0	0	0	0	517	507	0	0	
4	0	0	0	0	520	509	0	0	
5	0	0	0	0	519	510	0	0	
6	0	0	0	0	514	508	0	0	
7	0	0	0	0	511	509	0	0	
8	0	0	0	0	508	507	0	0	
9	0	0	0	0	507	506	0	0	
10	0	0	0	0	506	506	0	0	
11	0	0	0	0	504	506	0	0	
12	0	0	0	0	504	508	0	0	
13	0	0	0	0	506	508	0	0	
14	0	0	0	0	504	506	0	0	
15	0	0	0	0	505	509	0	0	
0	0	0	0	0	507	507	0	0	
1	0	0	0	0	508	509	0	0	
2	0	0	0	0	513	510	0	0	
3	0	0	0	0	517	509	0	0	
4	0	0	0	0	517	510	0	0	
5	0	0	0	0	518	511	0	0	
6	0	0	0	0	517	509	0	0	
7	0	0	0	0	516	509	0	0	
8	0	0	0	0	516	508	0	0	
9	0	0	0	0	514	507	0	0	
10	0	0	0	0	511	506	0	0	
11	0	0	0	0	510	507	0	0	
12	0	0	0	0	512	508	0	0	
13	0	0	0	0	512	507	0	0	
14	0	0	0	0	509	505	0	0	
15	0	0	0	0	508	506	0	0	
0	0	0	0	0	509	505	0	0	
1	0	0	0	0	510	506	0	0	
2	0	0	0	0	509	507	0	0	
3	0	0	0	0	510	507	0	0	
4	0	0	0	0	508	507	0	0	
5	0	0	0	0	510	505	0	0	
6	0	0	0	0	511	508	0	0	
7	0	0	0	0	510	510	0	0	
8	0	0	0	0	512	510	0	0	
9	0	0	0	0	513	509	0	0	
10	0	0	0	0	514	511	0	0	
11	0	0	0	0	512	511	0	0	
12	0	0	0	0	517	512	0	0	
13	0	0	0	0	520	511	0	0	
14	0	0	0	0	518	508	0	0	
15	0	0	0	0	514	505	0	0	
0	0	0	0	0	511	507	0	0	
1	0	0	0	0	510	507	0	0	
2	0	0	0	0	508	507	0	0	
3	0	0	0	0	504	504	0	0	
4	0	0	0	0	504	505	0	0	
5	0	0	0	0	508	505	0	0	
6	0	0	0	0	508	505	0	0	
7	0	0	0	0	507	509	0	0	
8	0	0	0	0	510	507	0	0	
9	0	0	0	0	510	508	0	0	
10	0	0	0	0	511	510	0	0	
11	0	0	0	0	509	511	0	0	
12	0	0	0	0	510	509	0	0	
13	0	0	0	0	511	511	0	0	
14	0	0	0	0	508	508	0	0	
15	0	0	0	0	509	509	0	0	
0	0	0	0	0	511	510	0	0	
1	0	0	0	0	514	510	0	0	
2	0	0	0	0	514	508	0	0	
3	0	0	0	0	509	506	0	0	
4	0	0	0	0	507	506	0	0	
5	0	0	0	0	507	505	0	0	
6	0	0	0	0	509	506	0	0	
7	0	0	0	0	509	504	0	0	
8	0	0	0	0	510	505	0	0	
9	0	0	0	0	510	504	0	0	
10	0	0	0	0	509	506	0	0	
11	0	0	0	0	510	506	0	0	
12	0	0	0	0	511	508	0	0	
13	0	0	0	0	516	509	0	0	
14	0	0	0	0	515	509	0	0	
15	0	0	0	0	519	510	0	0	
0	0	0	0	0	518	508	0	0	
1	0	0	0	0	517	509	0	0	
2	0	0	0	0	518	508	0	0	
3	0	0	0	0	515	509	0	0	
4	0	0	0	0	511	511	0	0	
5	0	0	0	0	513	510	0	0	
6	0	0	0	0	513	511	0	0	
7	0	0	0	0	510	511	0	0	
8	0	0	0	0	507	510	0	0	
9	0	0	0	0	508	507	0	0	
10	0	0	0	0	509	508	0	0	
11	0	0	0	0	510	507	0	0	
12	0	0	0	0	504	506	0	0	
13	0	0	0	0	507	507	0	0	
14	0	0	0	0	507	508	0	0	
15	0	0	0	0	506	505	0	0	
0	0	0	0	0	506	507	0	0	
1	0	0	0	0	511	509	0	0	
2	0	0	0	0	513	508	0	0	
3	0	0	0	0	516	509	0	0	
4	0	0	0	0	518	509	0	0	
5	0	0	0	0	522	508	0	0	
6	0	0	0	0	521	508	0	0	
7	0	0	0	0	514	509	0	0	
8	0	0	0	0	514	509	0	0	
9	0	0	0	0	513	510	0	0	
10	0	0	0	0	514	508	0	0	
11	0	0	0	0	509	508	0	0	
12	0	0	0	0	506	508	0	0	
13	0	0	0	0	506	507	0	0	
14	0	0	0	0	508	506	0	0	
15	0	0	0	0	505	508	0	0	
0	0	0	0	0	507	508	0	0	
1	0	0	0	0	507	507	0	0	
2	0	0	0	0	509	508	0	0	
3	0	0	0	0	511	506	0	0	
4	0	0	0	0	511	510	0	0	
5	0	0	0	0	509	507	0	0	
6	0	0	0	0	511	508	0	0	
7	0	0	0	0	511	508	0	0	
8	0	0	0	0	510	509	0	0	
9	0	0	0	0	513	510	0	0	
10	0	0	0	0	512	509	0	0	
11	0	0	0	0	509	506	0	0	
12	0	0	0	0	513	508	0	0	
13	0	0	0	0	514	511	0	0	
14	0	0	0	0	515	508	0	0	
15	0	0	0	0	514	507	0	0	
0	0	0	0	0	510	508	0	0	
1	0	0	0	0	511	506	0	0	
2	0	0	0	0	511	506	0	0	
3	0	0	0	0	511	508	0	0	
4	0	0	0	0	510	507	0	0	
5	0	0	0	0	510	507	0	0	
6	0	0	0	0	510	506	0	0	
7	0	0	0	0	510	508	0	0	
8	0	0	0	0	511	509	0	0	
9	0	0	0	0	510	507	0	0	
10	0	0	0	0	510	508	0	0	
11	0	0	0	0	513	509	0	0	
12	0	0	0	0	511	509	0	0	
13	0	0	0	0	511	509	0	0	
14	0	0	0	0	511	510	0	0	
15	0	0	0	0	510	507	0	0	
0	0	0	0	0	512	510	0	0	
1	0	0	0	0	512	508	0	0	
2	0	0	0	0	514	508	0	0	
3	0	0	0	0	514	507	0	0	
4	0	0	0	0	514	508	0	0	
5	0	0	0	0	513	506	0	0	
6	0	0	0	0	510	506	0	0	
7	0	0	0	0	508	505	0	0	
8	0	0	0	0	502	504	0	0	
9	0	0	0	0	501	506	0	0	
10	0	0	0	0	502	508	0	0	
11	0	0	0	0	505	508	0	0	
12	0	0	0	0	511	510	0	0	
13	0	0	0	0	513	510	0	0	
14	0	0	0	0	514	509	0	0	
15	0	0	0	0	519	509	0	0	
0	0	0	0	0	524	508	0	0	
1	0	0	0	0	525	509	0	0	
2	0	0	0	0	522	509	0	0	
3	0	0	0	0	521	508	0	0	
4	0	0	0	0	513	509	0	0	
5	0	0	0	0	509	509	0	0	
6	0	0	0	0	510	510	0	0	
7	0	0	0	0	507	509	0	0	
8	0	0	0	0	508	507	0	0	
9	0	0	0	0	505	507	0	0	
10	0	0	0	0	507	506	0	0	
11	0	0	0	0	505	507	0	0	
12	0	0	0	0	505	508	0	0	
13	0	0	0	0	505	507	0	0	
14	0	0	0	0	505	506	0	0	
15	0	0	0	0	506	504	0	0	
0	0	0	0	0	507	508	0	0	
1	0	0	0	0	511	507	0	0	
2	0	0	0	0	512	509	0	0	
3	0	0	0	0	514	510	0	0	
4	0	0	0	0	516	511	0	0	
5	0	0	0	0	517	511	0	0	
6	0	0	0	0	514	510	0	0	
7	0	0	0	0	514	511	0	0	
8	0	0	0	0	510	509	0	0	
9	0	0	0	0	511	509	0	0	
10	0	0	0	0	511	508	0	0	
11	0	0	0	0	510	507	0	0	
12	0	0	0	0	511	508	0	0	
13	0	0	0	0	510	505	0	0	
14	0	0	0	0	511	506	0	0	
15	0	0	0	0	515	507	0	0	
0	0	0	0	0	513	507	0	0	
1	0	0	0	0	508	508	0	0	
2	0	0	0	0	506	504	0	0	
3	0	0	0	0	503	507	0	0	
4	0	0	0	0	504	507	0	0	
5	0	0	0	0	508	507	0	0	
6	0	0	0	0	509	509	0	0	
7	0	0	0	0	511	511	0	0	
8	0	0	0	0	515	510	0	0	
9	0	0	0	0	518	509	0	0	
10	0	0	0	0	519	512	0	0	
11	0	0	0	0	517	510	0	0	
12	0	0	0	0	515	509	0	0	
13	0	0	0	0	519	510	0	0	
14	0	0	0	0	516	510	0	0	
15	0	0	0	0	512	509	0	0	
0	0	0	0	0	508	506	0	0	
1	0	0	0	0	510	507	0	0	
2	0	0	0	0	509	507	0	0	
3	0	0	0	0	510	504	0	0	
4	0	0	0	0	507	504	0	0	
5	0	0	0	0	507	507	0	0	
6	0	0	0	0	507	506	0	0	
7	0	0	0	0	507	506	0	0	
8	0	0	0	0	508	509	0	0	
9	0	0	0	0	512	510	0	0	
10	0	0	0	0	511	509	0	0	
11	0	0	0	0	515	510	0	0	
12	0	0	0	0	513	508	0	0	
13	0	0	0	0	514	508	0	0	
14	0	0	0	0	515	509	0	0	
15	0	0	0	0	514	509	0	0	
0	0	0	0	0	514	510	0	0	
1	0	0	0	0	515	508	0	0	
2	0	0	0	0	512	510	0	0	
3	0	0	0	0	510	510	0	0	
4	0	0	0	0	511	508	0	0	
5	0	0	0	0	509	508	0	0	
6	0	0	0	0	508	507	0	0	
7	0	0	0	0	509	508	0	0	
8	0	0	0	0	506	505	0	0	
9	0	0	0	0	506	507	0	0	
10	0	0	0	0	506	508	0	0	
11	0	0	0	0	508	508	0	0	
12	0	0	0	0	509	510	0	0	
13	0	0	0	0	512	510	0	0	
14	0	0	0	0	511	510	0	0	
15	0	0	0	0	513	510	0	0	
0	0	0	0	0	516	509	0	0	
1	0	0	0	0	514	507	0	0	
2	0	0	0	0	516	507	0	0	
3	0	0	0	0	515	508	0	0	
4	0	0	0	0	510	508	0	0	
5	0	0	0	0	511	509	0	0	
6	0	0	0	0	509	508	0	0	
7	0	0	0	0	507	505	0	0	
8	0	0	0	0	508	507	0	0	
9	0	0	0	0	508	506	0	0	
10	0	0	0	0	509	508	0	0	
11	0	0	0	0	512	506	0	0	
12	0	0	0	0	510	507	0	0	
13	0	0	0	0	512	508	0	0	
14	0	0	0	0	513	508	0	0	
15	0	0	0	0	513	507	0	0	
0	0	0	0	0	510	507	0	0	
1	0	0	0	0	511	508	0	0	
2	0	0	0	0	512	508	0	0	
3	0	0	0	0	514	508	0	0	
4	0	0	0	0	514	507	0	0	
5	0	0	0	0	513	511	0	0	
6	0	0	0	0	514	511	0	0	
7	0	0	0	0	511	511	0	0	
8	0	0	0	0	514	510	0	0	
9	0	0	0	0	512	508	0	0	
10	0	0	0	0	512	507	0	0	
11	0	0	0	0	508	508	0	0	
12	0	0	0	0	508	507	0	0	
13	0	0	0	0	508	504	0	0	
14	0	0	0	0	508	507	0	0	
15	0	0	0	0	510	508	0	0	
0	0	0	0	0	505	506	0	0	
1	0	0	0	0	506	506	0	0	
2	0	0	0	0	509	505	0	0	
3	0	0	0	0	508	508	0	0	
4	0	0	0	0	513	508	0	0	
5	0	0	0	0	513	508	0	0	
6	0	0	0	0	510	508	0	0	
7	0	0	0	0	507	508	0	0	
8	0	0	0	0	511	508	0	0	
9	0	0	0	0	511	508	0	0	
10	0	0	0	0	514	509	0	0	
11	0	0	0	0	515	511	0	0	
12	0	0	0	0	518	511	0	0	
13	0	0	0	0	517	512	0	0	
14	0	0	0	0	514	511	0	0	
15	0	0	0	0	510	507	0	0	
0	0	0	0	0	509	507	0	0	
1	0	0	0	0	505	509	0	0	
2	0	0	0	0	503	508	0	0	
3	0	0	0	0	504	508	0	0	
4	0	0	0	0	503	505	0	0	
5	0	0	0	0	504	508	0	0	
6	0	0	0	0	505	508	0	0	
7	0	0	0	0	505	509	0	0	
8	0	0	0	0	509	509	0	0	
9	0	0	0	0	515	510	0	0	
10	0	0	0	0	514	506	0	0	
11	0	0	0	0	513	511	0	0	
12	0	0	0	0	514	508	0	0	
13	0	0	0	0	514	510	0	0	
14	0	0	0	0	515	510	0	0	
15	0	0	0	0	519	508	0	0	
0	0	0	0	0	519	508	0	0	
1	0	0	0	0	511	507	0	0	
2	0	0	0	0	509	509	0	0	
3	0	0	0	0	510	505	0	0	
4	0	0	0	0	507	505	0	0	
5	0	0	0	0	507	507	0	0	
6	0	0	0	0	508	508	0	0	
7	0	0	0	0	506	505	0	0	
8	0	0	0	0	505	505	0	0	
9	0	0	0	0	507	506	0	0	
10	0	0	0	0	508	506	0	0	
11	0	0	0	0	509	507	0	0	
12	0	0	0	0	509	509	0	0	
13	0	0	0	0	508	509	0	0	
14	0	0	0	0	507	508	0	0	
15	0	0	0	0	513	508	0	0	
0	0	0	0	0	511	510	0	0	
1	0	0	0	0	512	510	0	0	
2	0	0	0	0	517	507	0	0	
3	0	0	0	0	516	509	0	0	
4	0	0	0	0	517	511	0	0	
5	0	0	0	0	519	510	0	0	
6	0	0	0	0	519	507	0	0	
7	0	0	0	0	516	508	0	0	
8	0	0	0	0	515	506	0	0	
9	0	0	0	0	512	505	0	0	
10	0	0	0	0	505	508	0	0	
11	0	0	0	0	503	508	0	0	
12	0	0	0	0	504	507	0	0	
13	0	0	0	0	507	505	0	0	
14	0	0	0	0	511	504	0	0	
15	0	0	0	0	511	508	0	0	
0	0	0	0	0	512	505	0	0	
1	0	0	0	0	515	507	0	0	
2	0	0	0	0	516	507	0	0	
3	0	0	0	0	520	509	0	0	
4	0	0	0	0	521	511	0	0	
5	0	0	0	0	517	512	0	0	
6	0	0	0	0	513	511	0	0	
7	0	0	0	0	512	508	0	0	
8	0	0	0	0	512	510	0	0	
9	0	0	0	0	512	510	0	0	
10	0	0	0	0	508	509	0	0	
11	0	0	0	0	509	508	0	0	
12	0	0	0	0	510	508	0	0	
13	0	0	0	0	509	508	0	0	
14	0	0	0	0	507	506	0	0	
15	0	0	0	0	510	505	0	0	
0	0	0	0	0	509	506	0	0	
1	0	0	0	0	510	508	0	0	
2	0	0	0	0	512	508	0	0	
3	0	0	0	0	511	507	0	0	
4	0	0	0	0	510	508	0	0	
5	0	0	0	0	512	510	0	0	
6	0	0	0	0	510	509	0	0	
7	0	0	0	0	511	510	0	0	
8	0	0	0	0	513	510	0	0	
9	0	0	0	0	515	511	0	0	
10	0	0	0	0	517	510	0	0	
11	0	0	0	0	515	509	0	0	
12	0	0	0	0	517	510	0	0	
13	0	0	0	0	514	511	0	0	
14	0	0	0	0	514	510	0	0	
15	0	0	0	0	512	508	0	0	
0	0	0	0	0	510	509	0	0	
1	0	0	0	0	509	507	0	0	
2	0	0	0	0	511	507	0	0	
3	0	0	0	0	508	507	0	0	
4	0	0	0	0	509	508	0	0	
5	0	0	0	0	507	505	0	0	
6	0	0	0	0	508	508	0	0	
7	0	0	0	0	508	508	0	0	
8	0	0	0	0	508	508	0	0	
9	0	0	0	0	509	506	0	0	
10	0	0	0	0	511	508	0	0	
11	0	0	0	0	514	508	0	0	
12	0	0	0	0	514	509	0	0	
13	0	0	0	0	514	511	0	0	
14	0	0	0	0	512	510	0	0	
15	0	0	0	0	515	508	0	0	
0	0	0	0	0	515	507	0	0	
1	0	0	0	0	514	507	0	0	
2	0	0	0	0	513	506	0	0	
3	0	0	0	0	510	505	0	0	
4	0	0	0	0	508	505	0	0	
5	0	0	0	0	506	507	0	0	
6	0	0	0	0	506	507	0	0	
7	0	0	0	0	507	507	0	0	
8	0	0	0	0	506	505	0	0	
9	0	0	0	0	508	507	0	0	
10	0	0	0	0	506	507	0	0	
11	0	0	0	0	507	508	0	0	
12	0	0	0	0	508	509	0	0	
13	0	0	0	0	512	511	0	0	
14	0	0	0	0	511	511	0	0	
15	0	0	0	0	512	510	0	0	
0	0	0	0	0	512	512	0	0	
1	0	0	0	0	514	512	0	0	
2	0	0	0	0	513	509	0	0	
3	0	0	0	0	513	510	0	0	
4	0	0	0	0	512	509	0	0	
5	0	0	0	0	512	508	0	0	
6	0	0	0	0	514	508	0	0	
7	0	0	0	0	510	508	0	0	
8	0	0	0	0	511	506	0	0	
9	0	0	0	0	510	506	0	0	
10	0	0	0	0	508	505	0	0	
11	0	0	0	0	507	507	0	0	
12	0	0	0	0	507	507	0	0	
13	0	0	0	0	507	507	0	0	
14	0	0	0	0	507	507	0	0	
15	0	0	0	0	507	506	0	0	
0	0	0	0	0	506	507	0	0	
1	0	0	0	0	505	509	0	0	
2	0	0	0	0	506	508	0	0	
3	0	0	0	0	509	507	0	0	
4	0	0	0	0	514	507	0	0	
5	0	0	0	0	516	510	0	0	
6	0	0	0	0	517	510	0	0	
7	0	0	0	0	519	509	0	0	
8	0	0	0	0	515	508	0	0	
9	0	0	0	0	515	508	0	0	
10	0	0	0	0	512	507	0	0	
11	0	0	0	0	509	505	0	0	
12	0	0	0	0	509	508	0	0	
13	0	0	0	0	507	507	0	0	
14	0	0	0	0	507	507	0	0	
15	0	0	0	0	507	507	0	0	
0	0	0	0	0	509	508	0	0	
1	0	0	0	0	504	506	0	0	
2	0	0	0	0	505	507	0	0	
3	0	0	0	0	504	507	0	0	
4	0	0	0	0	506	508	0	0	
5	0	0	0	0	511	508	0	0	
6	0	0	0	0	512	508	0	0	
7	0	0	0	0	511	510	0	0	
8	0	0	0	0	514	513	0	0	
9	0	0	0	0	519	508	0	0	
10	0	0	0	0	519	509	0	0	
11	0	0	0	0	515	512	0	0	
12	0	0	0	0	511	509	0	0	
13	0	0	0	0	513	509	0	0	
14	0	0	0	0	511	509	0	0	
15	0	0	0	0	510	508	0	0	
0	0	0	0	0	508	507	0	0	
1	0	0	0	0	507	507	0	0	
2	0	0	0	0	502	507	0	0	
3	0	0	0	0	504	507	0	0	
4	0	0	0	0	505	508	0	0	
5	0	0	0	0	509	507	0	0	
6	0	0	0	0	511	504	0	0	
7	0	0	0	0	511	507	0	0	
8	0	0	0	0	512	508	0	0	
9	0	0	0	0	513	507	0	0	
10	0	0	0	0	511	510	0	0	
11	0	0	0	0	512	510	0	0	
12	0	0	0	0	512	511	0	0	
13	0	0	0	0	511	510	0	0	
14	0	0	0	0	511	508	0	0	
15	0	0	0	0	511	511	0	0	
0	0	0	0	0	514	510	0	0	
1	0	0	0	0	516	507	0	0	
2	0	0	0	0	516	509	0	0	
3	0	0	0	0	516	508	0	0	
4	0	0	0	0	511	509	0	0	
5	0	0	0	0	510	507	0	0	
6	0	0	0	0	510	504	0	0	
7	0	0	0	0	508	507	0	0	
8	0	0	0	0	508	506	0	0	
9	0	0	0	0	508	508	0	0	
10	0	0	0	0	508	506	0	0	
11	0	0	0	0	508	505	0	0	
12	0	0	0	0	509	509	0	0	
13	0	0	0	0	513	508	0	0	
14	0	0	0	0	514	509	0	0	
15	0	0	0	0	514	508	0	0	
0	0	0	0	0	516	509	0	0	
1	0	0	0	0	515	509	0	0	
2	0	0	0	0	515	509	0	0	
3	0	0	0	0	513	510	0	0	
4	0	0	0	0	513	509	0	0	
5	0	0	0	0	514	508	0	0	
6	0	0	0	0	513	507	0	0	
7	0	0	0	0	511	508	0	0	
8	0	0	0	0	511	508	0	0	
9	0	0	0	0	508	505	0	0	
10	0	0	0	0	506	507	0	0	
11	0	0	0	0	507	506	0	0	
12	0	0	0	0	507	507	0	0	
13	0	0	0	0	507	507	0	0	
14	0	0	0	0	509	508	0	0	
15	0	0	0	0	509	507	0	0	
0	0	0	0	0	509	508	0	0	
1	0	0	0	0	506	508	0	0	
2	0	0	0	0	510	508	0	0	
3	0	0	0	0	512	506	0	0	
4	0	0	0	0	510	508	0	0	
5	0	0	0	0	514	508	0	0	
6	0	0	0	0	515	510	0	0	
7	0	0	0	0	512	510	0	0	
8	0	0	0	0	515	510	0	0	
9	0	0	0	0	514	510	0	0	
10	0	0	0	0	514	509	0	0	
11	0	0	0	0	512	508	0	0	
12	0	0	0	0	513	508	0	0	
13	0	0	0	0	511	506	0	0	
14	0	0	0	0	510	505	0	0	
15	0	0	0	0	508	507	0	0	
0	0	0	0	0	508	506	0	0	
1	0	0	0	0	508	507	0	0	
2	0	0	0	0	508	505	0	0	
3	0	0	0	0	510	505	0	0	
4	0	0	0	0	511	508	0	0	
5	0	0	0	0	511	509	0	0	
6	0	0	0	0	512	509	0	0	
7	0	0	0	0	513	510	0	0	
8	0	0	0	0	514	512	0	0	
9	0	0	0	0	515	513	0	0	
10	0	0	0	0	515	510	0	0	
11	0	0	0	0	514	510	0	0	
12	0	0	0	0	515	507	0	0	
13	0	0	0	0	515	508	0	0	
14	0	0	0	0	514	508	0	0	
15	0	0	0	0	516	508	0	0	
0	0	0	0	0	510	509	0	0	
1	0	0	0	0	510	506	0	0	
2	0	0	0	0	509	505	0	0	
3	0	0	0	0	510	505	0	0	
4	0	0	0	0	507	506	0	0	
5	0	0	0	0	507	507	0	0	
6	0	0	0	0	507	506	0	0	
7	0	0	0	0	505	507	0	0	
8	0	0	0	0	504	508	0	0	
9	0	0	0	0	507	508	0	0	
10	0	0	0	0	504	509	0	0	
11	0	0	0	0	511	511	0	0	
12	0	0	0	0	515	510	0	0	
13	0	0	0	0	517	511	0	0	
14	0	0	0	0	518	512	0	0	
15	0	0	0	0	517	512	0	0	
0	0	0	0	0	515	508	0	0	
1	0	0	0	0	516	509	0	0	
2	0	0	0	0	512	507	0	0	
3	0	0	0	0	509	510	0	0	
4	0	0	0	0	509	508	0	0	
5	0	0	0	0	508	508	0	0	
6	0	0	0	0	505	506	0	0	
7	0	0	0	0	507	504	0	0	
8	0	0	0	0	508	505	0	0	
9	0	0	0	0	508	505	0	0	
10	0	0	0	0	506	507	0	0	
11	0	0	0	0	508	509	0	0	
12	0	0	0	0	510	507	0	0	
13	0	0	0	0	511	507	0	0	
14	0	0	0	0	511	510	0	0	
15	0	0	0	0	513	509	0	0	
0	0	0	0	0	514	509	0	0	
1	0	0	0	0	512	509	0	0	
2	0	0	0	0	513	508	0	0	
3	0	0	0	0	514	506	0	0	
4	0	0	0	0	515	507	0	0	
5	0	0	0	0	517	507	0	0	
6	0	0	0	0	516	507	0	0	
7	0	0	0	0	512	510	0	0	
8	0	0	0	0	512	507	0	0	
9	0	0	0	0	510	506	0	0	
10	0	0	0	0	510	508	0	0	
11	0	0	0	0	510	507	0	0	
12	0	0	0	0	507	506	0	0	
13	0	0	0	0	510	507	0	0	
14	0	0	0	0	508	505	0	0	
15	0	0	0	0	508	509	0	0	
0	0	0	0	0	508	509	0	0	
1	0	0	0	0	506	511	0	0	
2	0	0	0	0	507	511	0	0	
3	0	0	0	0	511	507	0	0	
4	0	0	0	0	510	511	0	0	
5	0	0	0	0	512	510	0	0	
6	0	0	0	0	515	510	0	0	
7	0	0	0	0	515	509	0	0	
8	0	0	0	0	516	510	0	0	
9	0	0	0	0	519	508	0	0	
10	0	0	0	0	515	508	0	0	
11	0	0	0	0	511	508	0	0	
12	0	0	0	0	508	505	0	0	
13	0	0	0	0	508	508	0	0	
14	0	0	0	0	505	506	0	0	
15	0	0	0	0	506	508	0	0	
0	0	0	0	0	506	508	0	0	
1	0	0	0	0	507	509	0	0	
2	0	0	0	0	505	507	0	0	
3	0	0	0	0	504	508	0	0	
4	0	0	0	0	508	506	0	0	
5	0	0	0	0	510	507	0	0	
6	0	0	0	0	511	508	0	0	
7	0	0	0	0	512	510	0	0	
8	0	0	0	0	517	510	0	0	
9	0	0	0	0	518	510	0	0	
10	0	0	0	0	517	509	0	0	
11	0	0	0	0	518	509	0	0	
12	0	0	0	0	518	509	0	0	
13	0	0	0	0	516	509	0	0	
14	0	0	0	0	513	506	0	0	
15	0	0	0	0	512	509	0	0	
0	0	0	0	0	509	506	0	0	
1	0	0	0	0	507	505	0	0	
2	0	0	0	0	506	505	0	0	
3	0	0	0	0	508	504	0	0	
4	0	0	0	0	506	502	0	0	
5	0	0	0	0	505	506	0	0	
6	0	0	0	0	504	507	0	0	
7	0	0	0	0	502	507	0	0	
8	0	0	0	0	503	505	0	0	
9	0	0	0	0	505	505	0	0	
10	0	0	0	0	510	507	0	0	
11	0	0	0	0	512	509	0	0	
12	0	0	0	0	515	508	0	0	
13	0	0	0	0	517	510	0	0	
14	0	0	0	0	519	509	0	0	
15	0	0	0	0	523	511	0	0	
0	0	0	0	0	522	508	0	0	
1	0	0	0	0	520	510	0	0	
2	0	0	0	0	519	508	0	0	
3	0	0	0	0	513	507	0	0	
4	0	0	0	0	512	507	0	0	
5	0	0	0	0	510	508	0	0	
6	0	0	0	0	508	504	0	0	
7	0	0	0	0	508	505	0	0	
8	0	0	0	0	508	507	0	0	
9	0	0	0	0	508	506	0	0	
10	0	0	0	0	508	507	0	0	
11	0	0	0	0	507	509	0	0	
12	0	0	0	0	511	506	0	0	
13	0	0	0	0	512	509	0	0	
14	0	0	0	0	514	510	0	0	
15	0	0	0	0	513	511	0	0	
0	0	0	0	0	513	511	0	0	
1	0	0	0	0	512	510	0	0	
2	0	0	0	0	512	510	0	0	
3	0	0	0	0	511	509	0	0	
4	0	0	0	0	512	509	0	0	
5	0	0	0	0	514	510	0	0	
6	0	0	0	0	511	509	0	0	
7	0	0	0	0	510	508	0	0	
8	0	0	0	0	508	507	0	0	
9	0	0	0	0	506	508	0	0	
10	0	0	0	0	510	508	0	0	
11	0	0	0	0	508	508	0	0	
12	0	0	0	0	511	506	0	0	
13	0	0	0	0	512	507	0	0	
14	0	0	0	0	511	507	0	0	
15	0	0	0	0	509	507	0	0	
0	0	0	0	0	507	513	0	0	
1	0	0	0	0	510	510	0	0	
2	0	0	0	0	512	511	0	0	
3	0	0	0	0	514	510	0	0	
4	0	0	0	0	513	511	0	0	
5	0	0	0	0	516	511	0	0	
6	0	0	0	0	514	509	0	0	
7	0	0	0	0	515	511	0	0	
8	0	0	0	0	515	508	0	0	
9	0	0	0	0	513	510	0	0	
10	0	0	0	0	514	508	0	0	
11	0	0	0	0	508	507	0	0	
12	0	0	0	0	508	510	0	0	
13	0	0	0	0	508	508	0	0	
14	0	0	0	0	506	508	0	0	
15	0	0	0	0	505	508	0	0	
0	0	0	0	0	504	508	0	0	
1	0	0	0	0	506	504	0	0	
2	0	0	0	0	506	508	0	0	
3	0	0	0	0	508	507	0	0	
4	0	0	0	0	508	506	0	0	
5	0	0	0	0	507	507	0	0	
6	0	0	0	0	510	509	0	0	
7	0	0	0	0	512	509	0	0	
8	0	0	0	0	512	510	0	0	
9	0	0	0	0	512	511	0	0	
10	0	0	0	0	511	509	0	0	
11	0	0	0	0	509	510	0	0	
12	0	0	0	0	511	509	0	0	
13	0	0	0	0	513	508	0	0	
14	0	0	0	0	514	508	0	0	
15	0	0	0	0	515	507	0	0	
0	0	0	0	0	514	507	0	0	
1	0	0	0	0	513	506	0	0	
2	0	0	0	0	513	505	0	0	
3	0	0	0	0	514	508	0	0	
4	0	0	0	0	514	508	0	0	
5	0	0	0	0	511	506	0	0	
6	0	0	0	0	514	507	0	0	
7	0	0	0	0	512	508	0	0	
8	0	0	0	0	509	508	0	0	
9	0	0	0	0	506	509	0	0	
10	0	0	0	0	509	509	0	0	
11	0	0	0	0	511	510	0	0	
12	0	0	0	0	511	511	0	0	
13	0	0	0	0	513	509	0	0	
14	0	0	0	0	515	510	0	0	
15	0	0	0	0	515	510	0	0	
0	0	0	0	0	512	511	0	0	
1	0	0	0	0	511	509	0	0	
2	0	0	0	0	510	507	0	0	
3	0	0	0	0	510	505	0	0	
4	0	0	0	0	512	508	0	0	
5	0	0	0	0	510	508	0	0	
6	0	0	0	0	507	506	0	0	
7	0	0	0	0	507	504	0	0	
8	0	0	0	0	504	504	0	0	
9	0	0	0	0	504	504	0	0	
10	0	0	0	0	510	508	0	0	
11	0	0	0	0	505	508	0	0	
12	0	0	0	0	507	509	0	0	
13	0	0	0	0	512	508	0	0	
14	0	0	0	0	513	510	0	0	
15	0	0	0	0	514	512	0	0	
0	0	0	0	0	519	512	0	0	
1	0	0	0	0	520	511	0	0	
2	0	0	0	0	519	512	0	0	
3	0	0	0	0	515	511	0	0	
4	0	0	0	0	508	510	0	0	
5	0	0	0	0	507	506	0	0	
6	0	0	0	0	510	509	0	0	
7	0	0	0	0	510	505	0	0	
8	0	0	0	0	507	506	0	0	
9	0	0	0	0	507	507	0	0	
10	0	0	0	0	508	505	0	0	
11	0	0	0	0	511	504	0	0	
12	0	0	0	0	511	503	0	0	
13	0	0	0	0	510	507	0	0	
14	0	0	0	0	510	507	0	0	
15	0	0	0	0	510	507	0	0	
0	0	0	0	0	511	507	0	0	
1	0	0	0	0	515	510	0	0	
2	0	0	0	0	515	509	0	0	
3	0	0	0	0	516	509	0	0	
4	0	0	0	0	515	510	0	0	
5	0	0	0	0	516	511	0	0	
6	0	0	0	0	515	509	0	0	
7	0	0	0	0	512	510	0	0	
8	0	0	0	0	514	509	0	0	
9	0	0	0	0	512	508	0	0	
10	0	0	0	0	513	508	0	0	
11	0	0	0	0	510	506	0	0	
12	0	0	0	0	508	509	0	0	
13	0	0	0	0	510	507	0	0	
14	0	0	0	0	510	504	0	0	
15	0	0	0	0	508	505	0	0	
0	0	0	0	0	507	506	0	0	
1	0	0	0	0	506	506	0	0	
2	0	0	0	0	507	506	0	0	
3	0	0	0	0	509	508	0	0	
4	0	0	0	0	511	507	0	0	
5	0	0	0	0	510	510	0	0	
6	0	0	0	0	510	511	0	0	
7	0	0	0	0	510	510	0	0	
8	0	0	0	0	511	510	0	0	
9	0	0	0	0	512	511	0	0	
10	0	0	0	0	508	510	0	0	
11	0	0	0	0	508	509	0	0	
12	0	0	0	0	514	510	0	0	
13	0	0	0	0	512	508	0	0	
14	0	0	0	0	512	510	0	0	
15	0	0	0	0	511	508	0	0	
0	0	0	0	0	508	511	0	0	
1	0	0	0	0	509	509	0	0	
2	0	0	0	0	508	507	0	0	
3	0	0	0	0	506	507	0	0	
4	0	0	0	0	506	508	0	0	
5	0	0	0	0	507	507	0	0	
6	0	0	0	0	505	507	0	0	
7	0	0	0	0	508	507	0	0	
8	0	0	0	0	505	508	0	0	
9	0	0	0	0	509	509	0	0	
10	0	0	0	0	509	506	0	0	
11	0	0	0	0	513	506	0	0	
12	0	0	0	0	513	507	0	0	
13	0	0	0	0	515	510	0	0	
14	0	0	0	0	514	507	0	0	
15	0	0	0	0	519	509	0	0	
0	0	0	0	0	519	511	0	0	
1	0	0	0	0	523	510	0	0	
2	0	0	0	0	520	508	0	0	
3	0	0	0	0	519	507	0	0	
4	0	0	0	0	517	509	0	0	
5	0	0	0	0	514	506	0	0	
6	0	0	0	0	511	508	0	0	
7	0	0	0	0	510	507	0	0	
8	0	0	0	0	508	506	0	0	
9	0	0	0	0	506	504	0	0	
10	0	0	0	0	511	506	0	0	
11	0	0	0	0	511	505	0	0	
12	0	0	0	0	509	507	0	0	
13	0	0	0	0	511	509	0	0	
14	0	0	0	0	512	509	0	0	
15	0	0	0	0	511	508	0	0	
0	0	0	0	0	511	510	0	0	
1	0	0	0	0	511	510	0	0	
2	0	0	0	0	512	510	0	0	
3	0	0	0	0	513	509	0	0	
4	0	0	0	0	513	507	0	0	
5	0	0	0	0	513	509	0	0	
6	0	0	0	0	514	507	0	0	
7	0	0	0	0	510	508	0	0	
8	0	0	0	0	509	508	0	0	
9	0	0	0	0	503	507	0	0	
10	0	0	0	0	498	505	0	0	
11	0	0	0	0	499	507	0	0	
12	0	0	0	0	502	505	0	0	
13	0	0	0	0	504	507	0	0	
14	0	0	0	0	508	508	0	0	
15	0	0	0	0	507	506	0	0	
0	0	0	0	0	512	507	0	0	
1	0	0	0	0	517	508	0	0	
2	0	0	0	0	522	507	0	0	
3	0	0	0	0	523	511	0	0	
4	0	0	0	0	521	509	0	0	
5	0	0	0	0	516	510	0	0	
6	0	0	0	0	514	510	0	0	
7	0	0	0	0	514	509	0	0	
8	0	0	0	0	514	509	0	0	
9	0	0	0	0	510	508	0	0	
10	0	0	0	0	511	509	0	0	
11	0	0	0	0	506	509	0	0	
12	0	0	0	0	504	508	0	0	
13	0	0	0	0	503	508	0	0	
14	0	0	0	0	503	509	0	0	
15	0	0	0	0	504	506	0	0	
0	0	0	0	0	505	506	0	0	
1	0	0	0	0	508	506	0	0	
2	0	0	0	0	512	507	0	0	
3	0	0	0	0	518	505	0	0	
4	0	0	0	0	517	506	0	0	
5	0	0	0	0	520	508	0	0	
6	0	0	0	0	516	509	0	0	
7	0	0	0	0	519	508	0	0	
8	0	0	0	0	519	509	0	0	
9	0	0	0	0	515	510	0	0	
10	0	0	0	0	515	508	0	0	
11	0	0	0	0	512	506	0	0	
12	0	0	0	0	516	508	0	0	
13	0	0	0	0	512	508	0	0	
14	0	0	0	0	511	508	0	0	
15	0	0	0	0	508	507	0	0	
0	0	0	0	0	504	506	0	0	
1	0	0	0	0	504	505	0	0	
2	0	0	0	0	506	506	0	0	
3	0	0	0	0	508	508	0	0	
4	0	0	0	0	507	507	0	0	
5	0	0	0	0	507	506	0	0	
6	0	0	0	0	505	508	0	0	
7	0	0	0	0	508	507	0	0	
8	0	0	0	0	508	508	0	0	
9	0	0	0	0	509	509	0	0	
10	0	0	0	0	511	509	0	0	
11	0	0	0	0	513	510	0	0	
12	0	0	0	0	514	509	0	0	
13	0	0	0	0	515	510	0	0	
14	0	0	0	0	516	509	0	0	
15	0	0	0	0	516	509	0	0	
0	0	0	0	0	515	509	0	0	
1	0	0	0	0	516	508	0	0	
2	0	0	0	0	515	507	0	0	
3	0	0	0	0	515	507	0	0	
4	0	0	0	0	514	507	0	0	
5	0	0	0	0	513	508	0	0	
6	0	0	0	0	513	507	0	0	
7	0	0	0	0	510	507	0	0	
8	0	0	0	0	511	506	0	0	
9	0	0	0	0	507	506	0	0	
10	0	0	0	0	508	508	0	0	
11	0	0	0	0	508	507	0	0	
12	0	0	0	0	510	508	0	0	
13	0	0	0	0	511	510	0	0	
14	0	0	0	0	511	511	0	0	
15	0	0	0	0	517	510	0	0	
0	0	0	0	0	514	511	0	0	
1	0	0	0	0	514	511	0	0	
2	0	0	0	0	514	509	0	0	
3	0	0	0	0	514	510	0	0	
4	0	0	0	0	512	509	0	0	
5	0	0	0	0	515	509	0	0	
6	0	0	0	0	511	512	0	0	
7	0	0	0	0	508	508	0	0	
8	0	0	0	0	508	504	0	0	
9	0	0	0	0	507	505	0	0	
10	0	0	0	0	505	504	0	0	
11	0	0	0	0	508	505	0	0	
12	0	0	0	0	507	507	0	0	
13	0	0	0	0	504	508	0	0	
14	0	0	0	0	510	505	0	0	
15	0	0	0	0	511	506	0	0	
0	0	0	0	0	512	511	0	0	
1	0	0	0	0	511	508	0	0	
2	0	0	0	0	515	511	0	0	
3	0	0	0	0	516	511	0	0	
4	0	0	0	0	516	511	0	0	
5	0	0	0	0	515	511	0	0	
6	0	0	0	0	515	510	0	0	
7	0	0	0	0	514	509	0	0	
8	0	0	0	0	514	508	0	0	
9	0	0	0	0	517	509	0	0	
10	0	0	0	0	513	508	0	0	
11	0	0	0	0	511	505	0	0	
12	0	0	0	0	508	505	0	0	
13	0	0	0	0	508	505	0	0	
14	0	0	0	0	505	503	0	0	
15	0	0	0	0	507	505	0	0	
0	0	0	0	0	506	504	0	0	
1	0	0	0	0	509	506	0	0	
2	0	0	0	0	508	507	0	0	
3	0	0	0	0	511	507	0	0	
4	0	0	0	0	512	507	0	0	
5	0	0	0	0	513	509	0	0	
6	0	0	0	0	510	508	0	0	
7	0	0	0	0	507	511	0	0	
8	0	0	0	0	510	508	0	0	
9	0	0	0	0	510	511	0	0	
10	0	0	0	0	511	508	0	0	
11	0	0	0	0	515	508	0	0	
12	0	0	0	0	513	510	0	0	
13	0	0	0	0	514	509	0	0	
14	0	0	0	0	512	507	0	0	
15	0	0	0	0	512	508	0	0	
0	0	0	0	0	510	510	0	0	
1	0	0	0	0	509	507	0	0	
2	0	0	0	0	509	506	0	0	
3	0	0	0	0	508	508	0	0	
4	0	0	0	0	509	507	0	0	
5	0	0	0	0	509	508	0	0	
6	0	0	0	0	509	507	0	0	
7	0	0	0	0	511	508	0	0	
8	0	0	0	0	509	508	0	0	
9	0	0	0	0	508	507	0	0	
10	0	0	0	0	507	507	0	0	
11	0	0	0	0	509	507	0	0	
12	0	0	0	0	509	511	0	0	
13	0	0	0	0	512	511	0	0	
14	0	0	0	0	512	510	0	0	
15	0	0	0	0	512	512	0	0	
0	0	0	0	0	515	511	0	0	
1	0	0	0	0	515	511	0	0	
2	0	0	0	0	517	509	0	0	
3	0	0	0	0	515	509	0	0	
4	0	0	0	0	513	507	0	0	
5	0	0	0	0	506	505	0	0	
6	0	0	0	0	502	507	0	0	
7	0	0	0	0	505	505	0	0	
8	0	0	0	0	505	505	0	0	
9	0	0	0	0	505	509	0	0	
10	0	0	0	0	508	509	0	0	
11	0	0	0	0	508	509	0	0	
12	0	0	0	0	513	509	0	0	
13	0	0	0	0	513	507	0	0	
14	0	0	0	0	515	506	0	0	
15	0	0	0	0	512	506	0	0	
0	0	0	0	0	518	509	0	0	
1	0	0	0	0	523	511	0	0	
2	0	0	0	0	526	509	0	0	
3	0	0	0	0	523	509	0	0	
4	0	0	0	0	515	508	0	0	
5	0	0	0	0	508	507	0	0	
6	0	0	0	0	506	510	0	0	
7	0	0	0	0	505	508	0	0	
8	0	0	0	0	503	506	0	0	
9	0	0	0	0	504	508	0	0	
10	0	0	0	0	504	507	0	0	
11	0	0	0	0	505	507	0	0	
12	0	0	0	0	504	505	0	0	
13	0	0	0	0	508	505	0	0	
14	0	0	0	0	511	505	0	0	
15	0	0	0	0	514	508	0	0	
0	0	0	0	0	515	509	0	0	
1	0	0	0	0	513	508	0	0	
2	0	0	0	0	512	507	0	0	
3	0	0	0	0	519	508	0	0	
4	0	0	0	0	519	508	0	0	
5	0	0	0	0	517	510	0	0	
6	0	0	0	0	514	510	0	0	
7	0	0	0	0	512	510	0	0	
8	0	0	0	0	512	508	0	0	
9	0	0	0	0	513	509	0	0	
10	0	0	0	0	512	508	0	0	
11	0	0	0	0	512	508	0	0	
12	0	0	0	0	511	506	0	0	
13	0	0	0	0	508	505	0	0	
14	0	0	0	0	507	505	0	0	
15	0	0	0	0	505	504	0	0	
0	0	0	0	0	508	505	0	0	
1	0	0	0	0	507	506	0	0	
2	0	0	0	0	507	508	0	0	
3	0	0	0	0	509	506	0	0	
4	0	0	0	0	510	508	0	0	
5	0	0	0	0	513	509	0	0	
6	0	0	0	0	513	509	0	0	
7	0	0	0	0	516	508	0	0	
8	0	0	0	0	512	509	0	0	
9	0	0	0	0	512	509	0	0	
10	0	0	0	0	512	508	0	0	
11	0	0	0	0	511	506	0	0	
12	0	0	0	0	513	510	0	0	
13	0	0	0	0	513	511	0	0	
14	0	0	0	0	513	508	0	0	
15	0	0	0	0	510	508	0	0	
0	0	0	0	0	509	506	0	0	
1	0	0	0	0	511	508	0	0	
2	0	0	0	0	509	510	0	0	
3	0	0	0	0	510	509	0	0	
4	0	0	0	0	511	509	0	0	
5	0	0	0	0	512	507	0	0	
6	0	0	0	0	512	507	0	0	
7	0	0	0	0	513	508	0	0	
8	0	0	0	0	510	509	0	0	
9	0	0	0	0	512	508	0	0	
10	0	0	0	0	513	507	0	0	
11	0	0	0	0	513	505	0	0	
12	0	0	0	0	514	509	0	0	
13	0	0	0	0	513	507	0	0	
14	0	0	0	0	515	508	0	0	
15	0	0	0	0	516	507	0	0	
0	0	0	0	0	515	508	0	0	
1	0	0	0	0	514	507	0	0	
2	0	0	0	0	511	509	0	0	
3	0	0	0	0	511	508	0	0	
4	0	0	0	0	509	506	0	0	
5	0	0	0	0	510	506	0	0	
6	0	0	0	0	509	508	0	0	
7	0	0	0	0	507	508	0	0	
8	0	0	0	0	506	507	0	0	
9	0	0	0	0	504	507	0	0	
10	0	0	0	0	502	507	0	0	
11	0	0	0	0	507	507	0	0	
12	0	0	0	0	505	507	0	0	
13	0	0	0	0	508	508	0	0	
14	0	0	0	0	508	508	0	0	
15	0	0	0	0	512	506	0	0	
0	0	0	0	0	515	510	0	0	
1	0	0	0	0	515	511	0	0	
2	0	0	0	0	515	507	0	0	
3	0	0	0	0	515	509	0	0	
4	0	0	0	0	514	510	0	0	
5	0	0	0	0	512	508	0	0	
6	0	0	0	0	509	508	0	0	
7	0	0	0	0	507	508	0	0	
8	0	0	0	0	511	509	0	0	
9	0	0	0	0	509	508	0	0	
10	0	0	0	0	511	507	0	0	
11	0	0	0	0	505	506	0	0	
12	0	0	0	0	505	507	0	0	
13	0	0	0	0	508	507	0	0	
14	0	0	0	0	508	508	0	0	
15	0	0	0	0	508	506	0	0	
0	0	0	0	0	509	506	0	0	
1	0	0	0	0	509	508	0	0	
2	0	0	0	0	510	509	0	0	
3	0	0	0	0	510	510	0	0	
4	0	0	0	0	515	508	0	0	
5	0	0	0	0	516	509	0	0	
6	0	0	0	0	515	513	0	0	
7	0	0	0	0	513	510	0	0	
8	0	0	0	0	513	509	0	0	
9	0	0	0	0	512	510	0	0	
10	0	0	0	0	511	508	0	0	
11	0	0	0	0	508	508	0	0	
12	0	0	0	0	505	507	0	0	
13	0	0	0	0	507	510	0	0	
14	0	0	0	0	507	508	0	0	
15	0	0	0	0	506	509	0	0	
0	0	0	0	0	507	507	0	0	
1	0	0	0	0	509	508	0	0	
2	0	0	0	0	508	507	0	0	
3	0	0	0	0	509	508	0	0	
4	0	0	0	0	511	508	0	0	
5	0	0	0	0	513	510	0	0	
6	0	0	0	0	515	509	0	0	
7	0	0	0	0	518	507	0	0	
8	0	0	0	0	519	506	0	0	
9	0	0	0	0	516	507	0	0	
10	0	0	0	0	517	508	0	0	
11	0	0	0	0	515	509	0	0	
12	0	0	0	0	514	509	0	0	
13	0	0	0	0	512	510	0	0	
14	0	0	0	0	510	509	0	0	
15	0	0	0	0	508	507	0	0	
0	0	0	0	0	504	505	0	0	
1	0	0	0	0	505	507	0	0	
2	0	0	0	0	505	506	0	0	
3	0	0	0	0	508	503	0	0	
4	0	0	0	0	511	506	0	0	
5	0	0	0	0	511	506	0	0	
6	0	0	0	0	511	506	0	0	
7	0	0	0	0	510	506	0	0	
8	0	0	0	0	515	506	0	0	
9	0	0	0	0	515	508	0	0	
10	0	0	0	0	514	504	0	0	
11	0	0	0	0	507	508	0	0	
12	0	0	0	0	508	508	0	0	
13	0	0	0	0	511	511	0	0	
14	0	0	0	0	512	512	0	0	
15	0	0	0	0	513	508	0	0	
0	0	0	0	0	512	510	0	0	
1	0	0	0	0	515	510	0	0	
2	0	0	0	0	513	508	0	0	
3	0	0	0	0	509	509	0	0	
4	0	0	0	0	505	507	0	0	
5	0	0	0	0	506	508	0	0	
6	0	0	0	0	507	509	0	0	
7	0	0	0	0	508	507	0	0	
8	0	0	0	0	508	507	0	0	
9	0	0	0	0	510	509	0	0	
10	0	0	0	0	510	507	0	0	
11	0	0	0	0	509	508	0	0	
12	0	0	0	0	512	510	0	0	
13	0	0	0	0	514	507	0	0	
14	0	0	0	0	514	508	0	0	
15	0	0	0	0	515	507	0	0	
0	0	0	0	0	514	509	0	0	
1	0	0	0	0	516	510	0	0	
2	0	0	0	0	515	509	0	0	
3	0	0	0	0	515	509	0	0	
4	0	0	0	0	516	510	0	0	
5	0	0	0	0	517	508	0	0	
6	0	0	0	0	512	508	0	0	
7	0	0	0	0	511	507	0	0	
8	0	0	0	0	510	505	0	0	
9	0	0	0	0	506	507	0	0	
10	0	0	0	0	504	505	0	0	
11	0	0	0	0	505	508	0	0	
12	0	0	0	0	506	508	0	0	
13	0	0	0	0	507	504	0	0	
14	0	0	0	0	504	504	0	0	
15	0	0	0	0	504	505	0	0	
0	0	0	0	0	502	506	0	0	
1	0	0	0	0	506	508	0	0	
2	0	0	0	0	510	510	0	0	
3	0	0	0	0	511	511	0	0	
4	0	0	0	0	512	511	0	0	
5	0	0	0	0	519	512	0	0	
6	0	0	0	0	525	510	0	0	
7	0	0	0	0	522	508	0	0	
8	0	0	0	0	513	508	0	0	
9	0	0	0	0	503	508	0	0	
10	0	0	0	0	503	506	0	0	
11	0	0	0	0	506	506	0	0	
12	0	0	0	0	511	507	0	0	
13	0	0	0	0	514	508	0	0	
14	0	0	0	0	513	511	0	0	
15	0	0	0	0	513	509	0	0	
0	0	0	0	0	522	506	0	0	
1	0	0	0	0	528	504	0	0	
2	0	0	0	0	532	503	0	0	
3	0	0	0	0	522	506	0	0	
4	0	0	0	0	515	507	0	0	
5	0	0	0	0	510	507	0	0	
6	0	0	0	0	506	507	0	0	
7	0	0	0	0	508	508	0	0	
8	0	0	0	0	514	511	0	0	
9	0	0	0	0	513	509	0	0	
10	0	0	0	0	512	511	0	0	
11	0	0	0	0	511	509	0	0	
12	0	0	0	0	512	510	0	0	
13	0	0	0	0	513	509	0	0	
14	0	0	0	0	514	509	0	0	
15	0	0	0	0	513	508	0	0	
0	0	0	0	0	512	508	0	0	
1	0	0	0	0	515	507	0	0	
2	0	0	0	0	512	507	0	0	
3	0	0	0	0	507	506	0	0	
4	0	0	0	0	506	508	0	0	
5	0	0	0	0	505	506	0	0	
6	0	0	0	0	507	507	0	0	
7	0	0	0	0	508	507	0	0	
8	0	0	0	0	508	505	0	0	
9	0	0	0	0	510	506	0	0	
10	0	0	0	0	511	507	0	0	
11	0	0	0	0	510	508	0	0	
12	0	0	0	0	509	510	0	0	
13	0	0	0	0	510	509	0	0	
14	0	0	0	0	510	509	0	0	
15	0	0	0	0	508	512	0	0	
0	0	0	0	0	508	509	0	0	
1	0	0	0	0	508	509	0	0	
2	0	0	0	0	509	509	0	0	
3	0	0	0	0	506	508	0	0	
4	0	0	0	0	504	507	0	0	
5	0	0	0	0	508	505	0	0	
6	0	0	0	0	508	506	0	0	
7	0	0	0	0	511	505	0	0	
8	0	0	0	0	512	505	0	0	
9	0	0	0	0	510	507	0	0	
10	0	0	0	0	510	508	0	0	
11	0	0	0	0	511	510	0	0	
12	0	0	0	0	511	511	0	0	
13	0	0	0	0	510	509	0	0	
14	0	0	0	0	508	510	0	0	
15	0	0	0	0	507	509	0	0	
0	0	0	0	0	511	509	0	0	
1	0	0	0	0	513	507	0	0	
2	0	0	0	0	512	508	0	0	
3	0	0	0	0	515	509	0	0	
4	0	0	0	0	515	510	0	0	
5	0	0	0	0	514	506	0	0	
6	0	0	0	0	515	508	0	0	
7	0	0	0	0	510	506	0	0	
8	0	0	0	0	509	507	0	0	
9	0	0	0	0	509	507	0	0	
10	0	0	0	0	508	505	0	0	
11	0	0	0	0	506	504	0	0	
12	0	0	0	0	505	505	0	0	
13	0	0	0	0	505	506	0	0	
14	0	0	0	0	505	507	0	0	
15	0	0	0	0	510	508	0	0	
0	0	0	0	0	510	509	0	0	
1	0	0	0	0	511	509	0	0	
2	0	0	0	0	513	508	0	0	
3	0	0	0	0	518	509	0	0	
4	0	0	0	0	517	509	0	0	
5	0	0	0	0	517	511	0	0	
6	0	0	0	0	519	511	0	0	
7	0	0	0	0	519	512	0	0	
8	0	0	0	0	515	509	0	0	
9	0	0	0	0	516	508	0	0	
10	0	0	0	0	511	508	0	0	
11	0	0	0	0	508	507	0	0	
12	0	0	0	0	507	507	0	0	
13	0	0	0	0	508	507	0	0	
14	0	0	0	0	505	508	0	0	
15	0	0	0	0	509	505	0	0	
0	0	0	0	0	510	508	0	0	
1	0	0	0	0	508	506	0	0	
2	0	0	0	0	507	506	0	0	
3	0	0	0	0	506	508	0	0	
4	0	0	0	0	505	508	0	0	
5	0	0	0	0	504	509	0	0	
6	0	0	0	0	508	510	0	0	
7	0	0	0	0	509	510	0	0	
8	0	0	0	0	517	513	0	0	
9	0	0	0	0	518	510	0	0	
10	0	0	0	0	523	511	0	0	
11	0	0	0	0	524	510	0	0	
12	0	0	0	0	525	507	0	0	
13	0	0	0	0	521	509	0	0	
14	0	0	0	0	515	509	0	0	
15	0	0	0	0	508	508	0	0	
0	0	0	0	0	508	508	0	0	
1	0	0	0	0	504	507	0	0	
2	0	0	0	0	504	507	0	0	
3	0	0	0	0	504	507	0	0	
4	0	0	0	0	508	504	0	0	
5	0	0	0	0	510	507	0	0	
6	0	0	0	0	503	506	0	0	
7	0	0	0	0	495	507	0	0	
8	0	0	0	0	503	508	0	0	
9	0	0	0	0	505	509	0	0	
10	0	0	0	0	511	509	0	0	
11	0	0	0	0	509	507	0	0	
12	0	0	0	0	507	507	0	0	
13	0	0	0	0	510	508	0	0	
14	0	0	0	0	513	512	0	0	
15	0	0	0	0	513	511	0	0	
0	0	0	0	0	513	507	0	0	
1	0	0	0	0	511	510	0	0	
2	0	0	0	0	507	509	0	0	
3	0	0	0	0	508	506	0	0	
4	0	0	0	0	510	508	0	0	
5	0	0	0	0	510	507	0	0	
6	0	0	0	0	511	504	0	0	
7	0	0	0	0	513	505	0	0	
8	0	0	0	0	511	505	0	0	
9	0	0	0	0	509	507	0	0	
10	0	0	0	0	515	510	0	0	
11	0	0	0	0	513	510	0	0	
12	0	0	0	0	514	507	0	0	
13	0	0	0	0	508	511	0	0	
14	0	0	0	0	506	509	0	0	
15	0	0	0	0	502	510	0	0	
0	0	0	0	0	507	511	0	0	
1	0	0	0	0	506	512	0	0	
2	0	0	0	0	512	510	0	0	
3	0	0	0	0	513	509	0	0	
4	0	0	0	0	515	508	0	0	
5	0	0	0	0	526	506	0	0	
6	0	0	0	0	534	504	0	0	
7	0	0	0	0	519	502	0	0	
8	0	0	0	0	511	503	0	0	
9	0	0	0	0	507	505	0	0	
10	0	0	0	0	505	506	0	0	
11	0	0	0	0	504	506	0	0	
12	0	0	0	0	504	505	0	0	
13	0	0	0	0	507	505	0	0	
14	0	0	0	0	507	508	0	0	
15	0	0	0	0	505	508	0	0	
0	0	0	0	0	509	510	0	0	
1	0	0	0	0	510	509	0	0	
2	0	0	0	0	512	510	0	0	
3	0	0	0	0	514	510	0	0	
4	0	0	0	0	517	512	0	0	
5	0	0	0	0	515	510	0	0	
6	0	0	0	0	519	508	0	0	
7	0	0	0	0	523	510	0	0	
8	0	0	0	0	516	509	0	0	
9	0	0	0	0	511	508	0	0	
10	0	0	0	0	507	510	0	0	
11	0	0	0	0	505	510	0	0	
12	0	0	0	0	500	509	0	0	
13	0	0	0	0	503	510	0	0	
14	0	0	0	0	504	508	0	0	
15	0	0	0	0	504	506	0	0	
0	0	0	0	0	507	507	0	0	
1	0	0	0	0	515	505	0	0	
2	0	0	0	0	516	506	0	0	
3	0	0	0	0	514	508	0	0	
4	0	0	0	0	508	507	0	0	
5	0	0	0	0	508	511	0	0	
6	0	0	0	0	518	511	0	0	
7	0	0	0	0	522	511	0	0	
8	0	0	0	0	519	508	0	0	
9	0	0	0	0	515	509	0	0	
10	0	0	0	0	517	510	0	0	
11	0	0	0	0	518	510	0	0	
12	0	0	0	0	514	510	0	0	
13	0	0	0	0	510	508	0	0	
14	0	0	0	0	508	508	0	0	
15	0	0	0	0	506	507	0	0	
0	0	0	0	0	505	508	0	0	
1	0	0	0	0	508	507	0	0	
2	0	0	0	0	507	507	0	0	
3	0	0	0	0	508	506	0	0	
4	0	0	0	0	510	507	0	0	
5	0	0	0	0	510	507	0	0	
6	0	0	0	0	510	510	0	0	
7	0	0	0	0	508	507	0	0	
8	0	0	0	0	507	506	0	0	
9	0	0	0	0	511	508	0	0	
10	0	0	0	0	510	510	0	0	
11	0	0	0	0	512	509	0	0	
12	0	0	0	0	511	508	0	0	
13	0	0	0	0	514	512	0	0	
14	0	0	0	0	515	509	0	0	
15	0	0	0	0	513	510	0	0	
0	0	0	0	0	512	508	0	0	
1	0	0	0	0	511	508	0	0	
2	0	0	0	0	512	509	0	0	
3	0	0	0	0	511	511	0	0	
4	0	0	0	0	507	507	0	0	
5	0	0	0	0	507	506	0	0	
6	0	0	0	0	506	504	0	0	
7	0	0	0	0	508	505	0	0	
8	0	0	0	0	509	506	0	0	
9	0	0	0	0	510	505	0	0	
10	0	0	0	0	509	504	0	0	
11	0	0	0	0	510	506	0	0	
12	0	0	0	0	511	505	0	0	
13	0	0	0	0	511	509	0	0	
14	0	0	0	0	512	510	0	0	
15	0	0	0	0	514	509	0	0	
0	0	0	0	0	514	511	0	0	
1	0	0	0	0	513	509	0	0	
2	0	0	0	0	513	510	0	0	
3	0	0	0	0	512	508	0	0	
4	0	0	0	0	509	509	0	0	
5	0	0	0	0	514	509	0	0	
6	0	0	0	0	514	510	0	0	
7	0	0	0	0	515	508	0	0	
8	0	0	0	0	516	508	0	0	
9	0	0	0	0	513	509	0	0	
10	0	0	0	0	510	507	0	0	
11	0	0	0	0	509	503	0	0	
12	0	0	0	0	505	504	0	0	
13	0	0	0	0	505	504	0	0	
14	0	0	0	0	511	507	0	0	
15	0	0	0	0	512	507	0	0	
0	0	0	0	0	512	507	0	0	
1	0	0	0	0	513	510	0	0	
2	0	0	0	0	511	508	0	0	
3	0	0	0	0	512	508	0	0	
4	0	0	0	0	517	510	0	0	
5	0	0	0	0	514	513	0	0	
6	0	0	0	0	513	509	0	0	
7	0	0	0	0	515	509	0	0	
8	0	0	0	0	512	507	0	0	
9	0	0	0	0	512	508	0	0	
10	0	0	0	0	509	508	0	0	
11	0	0	0	0	509	507	0	0	
12	0	0	0	0	508	508	0	0	
13	0	0	0	0	505	509	0	0	
14	0	0	0	0	505	506	0	0	
15	0	0	0	0	505	505	0	0	
0	0	0	0	0	504	505	0	0	
1	0	0	0	0	507	508	0	0	
2	0	0	0	0	508	509	0	0	
3	0	0	0	0	510	510	0	0	
4	0	0	0	0	509	509	0	0	
5	0	0	0	0	512	508	0	0	
6	0	0	0	0	511	507	0	0	
7	0	0	0	0	513	504	0	0	
8	0	0	0	0	511	507	0	0	
9	0	0	0	0	507	511	0	0	
10	0	0	0	0	511	509	0	0	
11	0	0	0	0	515	509	0	0	
12	0	0	0	0	514	508	0	0	
13	0	0	0	0	514	507	0	0	
14	0	0	0	0	514	508	0	0	
15	0	0	0	0	514	509	0	0	
0	0	0	0	0	513	509	0	0	
1	0	0	0	0	511	506	0	0	
2	0	0	0	0	507	506	0	0	
3	0	0	0	0	506	506	0	0	
4	0	0	0	0	505	508	0	0	
5	0	0	0	0	506	508	0	0	
6	0	0	0	0	506	505	0	0	
7	0	0	0	0	508	507	0	0	
8	0	0	0	0	510	507	0	0	
9	0	0	0	0	511	510	0	0	
10	0	0	0	0	513	509	0	0	
11	0	0	0	0	519	510	0	0	
12	0	0	0	0	519	508	0	0	
13	0	0	0	0	517	505	9	0	
14	0	0	0	0	512	508	17	0	
15	0	0	0	0	509	507	17	0	
0	0	0	0	0	502	511	17	0	
1	0	0	0	0	506	511	17	0	
2	0	0	0	0	508	512	19	0	
3	0	0	0	0	507	508	20	0	
4	0	0	0	0	506	507	20	0	
5	0	0	0	0	510	503	20	0	
6	0	0	0	0	522	502	20	0	
7	0	0	0	0	530	504	20	0	
8	0	0	0	0	532	508	19	0	
9	0	0	0	0	527	509	20	0	
10	0	0	0	0	512	511	20	0	
11	0	0	0	0	500	511	20	0	
12	0	0	0	0	498	509	20	0	
13	0	0	0	0	490	510	21	0	
14	0	0	0	0	487	511	21	0	
15	0	0	0	0	493	511	22	0	
0	0	0	0	0	502	508	23	0	
1	0	0	0	0	506	505	23	0	
2	0	0	0	0	513	505	24	0	
3	0	0	0	0	515	510	24	0	
4	0	0	0	0	518	512	23	0	
5	0	0	0	0	524	515	23	0	
6	0	0	0	0	522	512	23	0	
7	0	0	0	0	516	504	23	0	
8	0	0	0	0	508	504	25	0	
9	0	0	0	0	513	503	25	0	
10	0	0	0	0	522	499	22	0	
11	0	0	0	0	529	501	25	0	
12	0	0	0	0	517	504	26	0	
13	0	0	0	0	507	513	31	0	
14	0	0	0	0	498	512	31	0	
15	0	0	0	0	494	512	33	0	
0	0	0	0	0	502	511	33	0	
1	0	0	0	0	514	518	45	0	
2	0	0	0	0	494	516	39	0	
3	0	0	0	0	489	510	45	0	
4	0	0	0	0	502	505	53	0	
5	0	0	0	0	511	504	61	0	
6	0	0	0	0	520	508	57	0	
7	0	0	0	0	517	508	61	0	
8	0	0	0	0	514	507	64	0	
9	0	0	0	0	519	508	65	0	
10	0	0	0	0	519	505	71	0	
11	0	0	0	0	519	503	73	0	
12	0	0	0	0	518	503	75	0	
13	0	0	0	0	516	504	87	0	
14	0	0	0	0	518	507	89	0	
15	0	0	0	0	525	508	92	0	
0	0	0	0	0	518	502	92	0	
1	0	0	0	0	515	510	96	0	
2	0	0	0	0	508	509	93	0	
3	0	0	0	0	493	504	98	0	
4	0	0	0	0	489	508	100	0	
5	0	0	0	0	487	505	103	0	
6	0	0	0	0	493	513	103	0	
7	0	0	0	0	495	530	104	0	
8	0	0	0	0	508	531	106	0	
9	0	0	0	0	513	525	113	0	
10	0	0	0	0	527	511	122	0	
11	0	0	0	0	516	504	125	0	
12	0	0	0	0	501	502	132	0	
13	0	0	0	0	494	497	134	0	
14	0	0	0	0	485	489	140	0	
15	0	0	0	0	492	497	140	2	
0	0	0	0	0	503	496	145	3	
1	0	0	0	0	502	502	146	9	
2	0	0	0	0	508	507	144	12	
3	0	0	0	0	532	516	155	15	
4	0	0	0	0	533	517	163	17	
5	0	0	0	0	524	503	165	18	
6	0	0	0	0	518	504	168	17	
7	0	0	0	0	511	508	175	19	
8	0	0	0	0	521	513	181	21	
9	0	0	0	0	501	510	185	18	
10	0	0	0	0	494	509	194	20	
11	0	0	0	0	502	503	203	23	
12	0	0	0	0	504	508	206	26	
13	0	0	0	0	499	506	207	32	
14	0	0	0	0	494	507	209	38	
15	0	0	0	0	499	510	214	61	
0	0	0	0	0	508	514	218	71	
1	0	0	0	0	519	515	224	81	
2	0	0	0	0	523	521	233	88	
3	0	0	0	0	521	517	245	99	
4	0	0	0	0	515	515	249	101	
5	0	0	0	0	517	496	256	103	
6	0	0	0	0	516	483	265	112	
7	0	0	0	0	507	480	268	119	
8	0	0	0	0	505	493	276	135	
9	0	0	0	0	504	508	277	120	
10	0	0	0	0	504	510	280	126	
11	0	0	0	0	500	512	289	122	
12	0	0	0	0	503	512	291	137	
13	0	0	0	0	507	513	295	143	
14	0	0	0	0	508	520	297	150	
15	0	0	0	0	505	518	295	160	
0	0	0	0	0	512	521	300	162	
1	0	0	0	0	515	521	300	159	
2	0	0	0	0	519	510	308	166	
3	0	0	0	0	518	512	308	168	
4	0	0	0	0	521	524	310	181	
5	0	0	0	0	521	520	313	192	
6	0	0	0	0	522	514	320	189	
7	0	0	0	0	514	511	329	188	
8	0	0	0	0	519	501	329	192	
9	0	0	0	0	515	485	334	191	
10	0	0	0	0	515	486	335	188	
11	0	0	0	0	521	474	339	192	
12	0	0	0	0	514	464	341	201	
13	0	0	0	0	499	468	345	205	
14	0	0	0	0	493	496	346	210	
15	0	0	0	0	491	515	350	212	
0	0	0	0	0	493	508	353	214	
1	0	0	0	0	501	516	355	222	
2	0	0	0	0	515	526	356	220	
3	0	0	0	0	513	524	360	231	
4	0	0	0	0	510	519	357	230	
5	0	0	0	0	501	519	361	236	
6	0	0	0	0	514	539	364	242	
7	0	0	0	0	543	543	367	253	
8	0	0	0	0	537	524	373	263	
9	0	0	0	0	520	484	380	268	
10	0	0	0	0	513	473	384	271	
11	0	0	0	0	507	487	395	277	
12	0	0	0	0	497	510	392	280	
13	0	0	0	0	525	530	392	278	
14	0	0	0	0	505	523	395	282	
15	0	0	0	0	476	498	400	295	
0	0	0	0	0	483	495	400	303	
1	0	0	0	0	503	508	404	312	
2	0	0	0	0	518	512	408	319	
3	0	0	0	0	513	494	412	316	
4	0	0	0	0	508	493	415	320	
5	0	0	0	0	519	508	417	315	
6	0	0	0	0	528	529	418	315	
7	0	0	0	0	546	534	420	313	
8	0	0	0	0	543	514	421	316	
9	0	0	0	0	529	513	423	317	
10	0	0	0	0	512	496	424	319	
11	0	0	0	0	508	497	426	327	
12	0	0	0	0	514	501	430	333	
13	0	0	0	0	502	500	430	337	
14	0	0	0	0	481	504	432	335	
15	0	0	0	0	482	499	437	334	
0	0	0	0	0	500	499	441	343	
1	0	0	0	0	514	505	445	342	
2	0	0	0	0	509	512	448	341	
3	0	0	0	0	493	519	450	334	
4	0	0	0	0	499	519	455	331	
5	0	0	0	0	515	512	455	332	
6	0	0	0	0	531	511	455	332	
7	0	0	0	0	527	505	457	332	
8	0	0	0	0	516	500	461	337	
9	0	0	0	0	521	508	464	337	
10	0	0	0	0	526	515	466	337	
11	0	0	0	0	523	516	467	337	
12	0	0	0	0	523	517	469	332	
13	0	0	0	0	519	513	465	339	
14	0	0	0	0	519	507	466	334	
15	0	0	0	0	517	502	470	338	
0	0	0	0	0	508	496	472	340	
1	0	0	0	0	508	504	475	342	
2	0	0	0	0	516	516	476	346	
3	0	0	0	0	521	514	480	342	
4	0	0	0	0	520	513	483	341	
5	0	0	0	0	517	506	489	340	
6	0	0	0	0	516	503	490	341	
7	0	0	0	0	508	504	492	340	
8	0	0	0	0	512	510	495	336	
9	0	0	0	0	514	511	497	344	
10	0	0	0	0	511	519	499	346	
11	0	0	0	0	512	509	500	352	
12	0	0	0	0	524	500	501	354	
13	0	0	0	0	522	492	501	350	
14	0	0	0	0	515	497	503	355	
15	0	0	0	0	511	508	504	346	
0	0	0	0	0	511	509	505	350	
1	0	0	0	0	508	502	506	353	
2	0	0	0	0	519	509	509	349	
3	0	0	0	0	517	523	511	357	
4	0	0	0	0	504	524	512	359	
5	0	0	0	0	507	512	512	358	
6	0	0	0	0	519	515	514	360	
7	0	0	0	0	528	514	513	362	
8	0	0	0	0	529	504	513	360	
9	0	0	0	0	523	484	512	361	
10	0	0	0	0	528	475	513	365	
11	0	0	0	0	531	499	513	366	
12	0	0	0	0	518	498	516	368	
13	0	0	0	0	506	502	518	374	
14	0	0	0	0	497	504	519	379	
15	0	0	0	0	497	513	519	386	
0	0	0	0	0	498	511	521	389	
1	0	0	0	0	498	513	519	392	
2	0	0	0	0	511	533	519	393	
3	0	0	0	0	537	551	520	391	
4	0	0	0	0	520	537	520	385	
5	0	0	0	0	496	507	523	392	
6	0	0	0	0	500	494	520	399	
7	0	0	0	0	512	495	523	395	
8	0	0	0	0	519	492	524	393	
9	0	0	0	0	511	495	524	394	
10	0	0	0	0	504	502	522	396	
11	0	0	0	0	514	500	524	397	
12	0	0	0	0	511	506	525	397	
13	0	0	0	0	511	510	526	396	
14	0	0	0	0	508	507	527	397	
15	0	0	0	0	507	502	528	398	
0	0	0	0	0	512	504	531	400	
1	0	0	0	0	516	507	531	395	
2	0	0	0	0	521	505	532	400	
3	0	0	0	0	512	500	533	404	
4	0	0	0	0	508	509	533	401	
5	0	0	0	0	514	522	533	401	
6	0	0	0	0	524	527	534	399	
7	0	0	0	0	514	517	535	402	
8	0	0	0	0	503	502	535	398	
9	0	0	0	0	502	494	536	399	
10	0	0	0	0	505	507	537	403	
11	0	0	0	0	511	513	536	408	
12	0	0	0	0	515	518	536	412	
13	0	0	0	0	508	509	538	414	
14	0	0	0	0	510	506	536	414	
15	0	0	0	0	511	503	537	415	
0	0	0	0	0	509	506	537	415	
1	0	0	0	0	512	510	537	416	
2	0	0	0	0	516	512	536	415	
3	0	0	0	0	513	510	535	416	
4	0	0	0	0	512	506	534	417	
5	0	0	0	0	516	504	535	415	
6	0	0	0	0	512	504	534	415	
7	0	0	0	0	514	502	534	415	
8	0	0	0	0	512	507	535	418	
9	0	0	0	0	514	509	536	418	
10	0	0	0	0	515	508	536	419	
11	0	0	0	0	514	509	536	420	
12	0	0	0	0	515	508	536	420	
13	0	0	0	0	519	508	536	421	
14	0	0	0	0	521	505	536	420	
15	0	0	0	0	518	503	536	424	
0	0	0	0	0	514	504	536	426	
1	0	0	0	0	511	505	537	426	
2	0	0	0	0	513	514	537	425	
3	0	0	0	0	515	520	537	422	
4	0	0	0	0	505	514	537	426	
5	0	0	0	0	491	511	537	426	
6	0	0	0	0	481	515	536	423	
7	0	0	0	0	456	515	537	421	
8	0	0	0	0	432	494	538	424	
9	0	0	0	0	429	492	537	422	
10	0	0	0	0	430	509	537	419	
11	0	0	0	0	428	506	539	421	
12	0	0	0	0	428	504	538	422	
13	0	0	0	0	453	495	538	425	
14	0	0	0	0	462	489	538	422	
15	0	0	0	0	454	504	538	424	
0	0	0	0	0	457	518	539	426	
1	0	0	0	0	459	528	539	425	
2	0	0	0	0	468	519	539	428	
3	0	0	0	0	471	516	539	428	
4	0	0	0	0	478	516	539	429	
5	0	0	0	0	485	509	539	431	
6	0	0	0	0	490	507	539	431	
7	0	0	0	0	483	504	538	432	
8	0	0	0	0	491	505	538	432	
9	0	0	0	0	493	507	538	435	
10	0	0	0	0	488	504	538	433	
11	0	0	0	0	487	507	538	432	
12	0	0	0	0	488	510	538	432	
13	0	0	0	0	489	506	539	432	
14	0	0	0	0	487	504	537	432	
15	0	0	0	0	479	503	538	432	
0	0	0	0	0	488	508	539	436	
1	0	0	0	0	480	509	538	434	
2	0	0	0	0	470	508	539	435	
3	0	0	0	0	464	520	539	435	
4	0	0	0	0	460	514	539	438	
5	0	0	0	0	456	512	540	438	
6	0	0	0	0	452	519	540	438	
7	0	0	0	0	462	515	540	437	
8	0	0	0	0	463	499	540	437	
9	0	0	0	0	462	488	540	439	
10	0	0	0	0	464	495	541	441	
11	0	0	0	0	478	501	542	443	
12	0	0	0	0	503	507	541	443	
13	0	0	0	0	503	511	542	443	
14	0	0	0	0	500	521	542	442	
15	0	0	0	0	485	525	543	440	
0	0	0	0	0	484	510	543	441	
1	0	0	0	0	485	505	543	444	
2	0	0	0	0	479	496	543	442	
3	0	0	0	0	481	500	543	443	
4	0	0	0	0	494	506	544	441	
5	0	0	0	0	510	509	544	449	
6	0	0	0	0	508	514	544	454	
7	0	0	0	0	510	508	544	453	
8	0	0	0	0	512	507	544	452	
9	0	0	0	0	515	507	544	454	
10	0	0	0	0	516	504	544	451	
11	0	0	0	0	526	509	545	452	
12	0	0	0	0	526	511	545	449	
13	0	0	0	0	526	512	546	453	
14	0	0	0	0	522	509	545	453	
15	0	0	0	0	516	507	546	456	
0	0	0	0	0	522	505	546	456	
1	0	0	0	0	529	506	547	456	
2	0	0	0	0	519	505	548	456	
3	0	0	0	0	517	503	547	457	
4	0	0	0	0	529	503	547	454	
5	0	0	0	0	526	505	548	455	
6	0	0	0	0	524	509	548	456	
7	0	0	0	0	523	509	548	456	
8	0	0	0	0	528	509	548	456	
9	0	0	0	0	517	508	548	455	
10	0	0	0	0	518	506	549	456	
11	0	0	0	0	545	503	549	460	
12	0	0	0	0	563	501	549	460	
13	0	0	0	0	553	516	549	462	
14	0	0	0	0	540	513	549	462	
15	0	0	0	0	516	515	550	461	
0	0	0	0	0	502	516	550	462	
1	0	0	0	0	495	511	550	463	
2	0	0	0	0	493	511	550	465	
3	0	0	0	0	488	511	550	463	
4	0	0	0	0	510	502	551	463	
5	0	0	0	0	528	500	551	464	
6	0	0	0	0	537	500	551	463	
7	0	0	0	0	536	504	551	464	
8	0	0	0	0	534	507	551	462	
9	0	0	0	0	535	506	551	465	
10	0	0	0	0	535	508	551	464	
11	0	0	0	0	533	506	551	464	
12	0	0	0	0	531	507	551	465	
13	0	0	0	0	532	510	551	464	
14	0	0	0	0	530	515	551	464	
15	0	0	0	0	527	513	551	464	
0	0	0	0	0	531	513	551	465	
1	0	0	0	0	530	510	551	467	
2	0	0	0	0	528	501	551	467	
3	0	0	0	0	530	502	551	467	
4	0	0	0	0	535	506	551	466	
5	0	0	0	0	524	508	551	465	
6	0	0	0	0	518	521	551	466	
7	0	0	0	0	521	530	551	466	
8	0	0	0	0	518	520	551	465	
9	0	0	0	0	516	503	551	465	
10	0	0	0	0	505	497	551	464	
11	0	0	0	0	514	495	551	463	
12	0	0	0	0	527	498	551	465	
13	0	0	0	0	525	494	551	466	
14	0	0	0	0	519	491	551	468	
15	0	0	0	0	518	504	551	467	
0	0	0	0	0	512	521	551	467	
1	0	0	0	0	512	525	551	468	
2	0	0	0	0	508	516	551	467	
3	0	0	0	0	513	505	551	467	
4	0	0	0	0	512	507	551	467	
5	0	0	0	0	520	519	552	466	
6	0	0	0	0	529	520	552	465	
7	0	0	0	0	527	515	552	467	
8	0	0	0	0	527	509	552	466	
9	0	0	0	0	533	505	552	467	
10	0	0	0	0	530	501	552	470	
11	0	0	0	0	527	503	552	469	
12	0	0	0	0	515	505	552	469	
13	0	0	0	0	518	508	552	469	
14	0	0	0	0	511	511	552	469	
15	0	0	0	0	506	509	552	470	
0	0	0	0	0	511	504	552	467	
1	0	0	0	0	513	507	553	467	
2	0	0	0	0	516	500	553	467	
3	0	0	0	0	516	502	552	467	
4	0	0	0	0	517	504	553	467	
5	0	0	0	0	514	505	553	467	
6	0	0	0	0	519	511	553	468	
7	0	0	0	0	525	518	554	468	
8	0	0	0	0	524	519	553	467	
9	0	0	0	0	518	518	553	469	
10	0	0	0	0	525	513	553	470	
11	0	0	0	0	521	507	554	467	
12	0	0	0	0	520	509	554	468	
13	0	0	0	0	519	510	554	470	
14	0	0	0	0	519	511	554	467	
15	0	0	0	0	496	505	554	465	
0	0	0	0	0	483	500	554	467	
1	0	0	0	0	496	502	554	467	
2	0	0	0	0	513	508	553	467	
3	0	0	0	0	514	507	554	466	
4	0	0	0	0	515	504	553	466	
5	0	0	0	0	519	497	553	466	
6	0	0	0	0	514	497	554	465	
7	0	0	0	0	514	504	553	464	
8	0	0	0	0	516	511	554	464	
9	0	0	0	0	526	517	555	464	
10	0	0	0	0	520	516	554	463	
11	0	0	0	0	519	512	555	463	
12	0	0	0	0	519	509	554	464	
13	0	0	0	0	518	510	554	463	
14	0	0	0	0	524	511	554	464	
15	0	0	0	0	523	507	554	463	
0	0	0	0	0	520	506	554	464	
1	0	0	0	0	522	507	554	464	
2	0	0	0	0	521	507	554	465	
3	0	0	0	0	518	505	555	464	
4	0	0	0	0	516	505	555	465	
5	0	0	0	0	516	505	555	465	
6	0	0	0	0	515	507	555	464	
7	0	0	0	0	513	505	555	465	
8	0	0	0	0	512	506	556	466	
9	0	0	0	0	514	509	555	464	
10	0	0	0	0	512	511	556	465	
11	0	0	0	0	512	508	555	464	
12	0	0	0	0	512	508	556	464	
13	0	0	0	0	515	510	555	465	
14	0	0	0	0	515	510	555	464	
15	0	0	0	0	515	511	555	464	
0	0	0	0	0	513	511	556	463	
1	0	0	0	0	516	512	556	462	
2	0	0	0	0	513	510	556	464	
3	0	0	0	0	520	511	556	463	
4	0	0	0	0	519	514	556	462	
5	0	0	0	0	524	511	556	461	
6	0	0	0	0	520	514	557	461	
7	0	0	0	0	522	511	557	461	
8	0	0	0	0	521	504	556	461	
9	0	0	0	0	515	506	556	460	
10	0	0	0	0	513	509	556	460	
11	0	0	0	0	515	505	555	459	
12	0	0	0	0	512	504	556	458	
13	0	0	0	0	509	504	556	456	
14	0	0	0	0	512	504	557	457	
15	0	0	0	0	513	508	558	457	
0	0	0	0	0	515	507	557	456	
1	0	0	0	0	512	509	558	455	
2	0	0	0	0	511	510	558	453	
3	0	0	0	0	515	511	557	453	
4	0	0	0	0	519	509	557	451	
5	0	0	0	0	529	509	556	451	
6	0	0	0	0	524	510	556	451	
7	0	0	0	0	515	508	556	449	
8	0	0	0	0	512	509	556	448	
9	0	0	0	0	513	509	556	447	
10	0	0	0	0	516	511	556	448	
11	0	0	0	0	514	509	556	447	
12	0	0	0	0	523	504	555	446	
13	0	0	0	0	540	507	556	447	
14	0	0	0	0	533	508	555	444	
15	0	0	0	0	515	500	554	443	
0	0	0	0	0	504	504	553	442	
1	0	0	0	0	499	504	553	441	
2	0	0	0	0	492	505	553	443	
3	0	0	0	0	489	512	553	443	
4	0	0	0	0	491	516	553	440	
5	0	0	0	0	502	512	553	444	
6	0	0	0	0	514	506	552	427	
7	0	0	0	0	522	503	551	427	
8	0	0	0	0	522	503	551	425	
9	0	0	0	0	519	502	550	424	
10	0	0	0	0	520	506	550	425	
11	0	0	0	0	516	505	549	417	
12	0	0	0	0	520	509	549	415	
13	0	0	0	0	511	514	549	416	
14	0	0	0	0	512	515	548	413	
15	0	0	0	0	516	515	547	412	
0	0	0	0	0	516	513	547	411	
1	0	0	0	0	517	509	547	414	
2	0	0	0	0	515	506	547	413	
3	0	0	0	0	515	503	547	414	
4	0	0	0	0	516	504	547	411	
5	0	0	0	0	519	504	546	409	
6	0	0	0	0	515	503	545	413	
7	0	0	0	0	511	504	546	415	
8	0	0	0	0	509	502	546	415	
9	0	0	0	0	510	508	547	419	
10	0	0	0	0	506	515	547	419	
11	0	0	0	0	508	515	547	418	
12	0	0	0	0	508	511	546	420	
13	0	0	0	0	513	511	546	418	
14	0	0	0	0	513	507	545	420	
15	0	0	0	0	513	508	545	407	
0	0	0	0	0	518	511	545	405	
1	0	0	0	0	519	513	546	404	
2	0	0	0	0	516	508	546	406	
3	0	0	0	0	523	512	546	403	
4	0	0	0	0	525	512	545	404	
5	0	0	0	0	519	505	545	402	
6	0	0	0	0	511	504	545	403	
7	0	0	0	0	513	505	545	401	
8	0	0	0	0	513	503	544	399	
9	0	0	0	0	511	505	543	399	
10	0	0	0	0	511	503	543	400	
11	0	0	0	0	512	504	543	402	
12	0	0	0	0	512	511	543	400	
13	0	0	0	0	511	509	543	400	
14	0	0	0	0	514	508	543	403	
15	0	0	0	0	511	504	543	403	
0	0	0	0	0	511	517	542	404	
1	0	0	0	0	510	513	543	402	
2	0	0	0	0	511	512	543	402	
3	0	0	0	0	510	513	542	400	
4	0	0	0	0	511	511	541	401	
5	0	0	0	0	518	511	541	401	
6	0	0	0	0	520	501	540	396	
7	0	0	0	0	523	492	542	395	
8	0	0	0	0	515	496	541	394	
9	0	0	0	0	511	503	541	395	
10	0	0	0	0	509	501	542	395	
11	0	0	0	0	510	502	542	396	
12	0	0	0	0	508	509	541	398	
13	0	0	0	0	507	515	540	399	
14	0	0	0	0	510	515	540	400	
15	0	0	0	0	511	512	540	401	
0	0	0	0	0	512	508	539	403	
1	0	0	0	0	513	506	541	406	
2	0	0	0	0	516	506	540	405	
3	0	0	0	0	516	508	541	407	
4	0	0	0	0	515	508	539	404	
5	0	0	0	0	513	510	540	402	
6	0	0	0	0	513	506	539	400	
7	0	0	0	0	511	505	540	403	
8	0	0	0	0	511	512	541	402	
9	0	0	0	0	512	513	542	403	
10	0	0	0	0	513	519	542	403	
11	0	0	0	0	519	516	541	403	
12	0	0	0	0	511	510	541	401	
13	0	0	0	0	510	507	541	400	
14	0	0	0	0	532	507	540	396	
15	0	0	0	0	523	508	541	394	
0	0	0	0	0	504	508	540	398	
1	0	0	0	0	506	506	541	395	
2	0	0	0	0	508	504	540	394	
3	0	0	0	0	509	502	541	393	
4	0	0	0	0	508	504	539	395	
5	0	0	0	0	512	506	540	395	
6	0	0	0	0	519	508	540	395	
7	0	0	0	0	527	507	539	398	
8	0	0	0	0	522	508	538	398	
9	0	0	0	0	515	506	537	399	
10	0	0	0	0	513	509	536	401	
11	0	0	0	0	507	506	536	400	
12	0	0	0	0	499	500	534	400	
13	0	0	0	0	499	509	534	401	
14	0	0	0	0	507	519	534	403	
15	0	0	0	0	515	513	533	403	
0	0	0	0	0	519	512	534	400	
1	0	0	0	0	525	507	533	399	
2	0	0	0	0	527	501	533	401	
3	0	0	0	0	522	507	532	401	
4	0	0	0	0	506	512	531	403	
5	0	0	0	0	493	508	531	405	
6	0	0	0	0	483	503	531	404	
7	0	0	0	0	499	507	531	402	
8	0	0	0	0	486	517	531	403	
9	0	0	0	0	489	512	531	404	
10	0	0	0	0	518	512	531	403	
11	0	0	0	0	533	508	531	403	
12	0	0	0	0	529	506	531	403	
13	0	0	0	0	531	508	531	403	
14	0	0	0	0	525	508	531	404	
15	0	0	0	0	522	509	531	403	
0	0	0	0	0	517	508	531	405	
1	0	0	0	0	517	510	531	404	
2	0	0	0	0	515	511	531	405	
3	0	0	0	0	514	508	531	403	
4	0	0	0	0	512	506	531	403	
5	0	0	0	0	510	506	531	404	
6	0	0	0	0	507	500	531	405	
7	0	0	0	0	506	503	531	403	
8	0	0	0	0	508	507	531	403	
9	0	0	0	0	510	508	531	404	
10	0	0	0	0	513	507	531	404	
11	0	0	0	0	515	508	532	404	
12	0	0	0	0	508	511	532	404	
13	0	0	0	0	511	513	531	404	
14	0	0	0	0	515	515	531	401	
15	0	0	0	0	518	516	531	402	
0	0	0	0	0	517	512	531	403	
1	0	0	0	0	513	508	531	403	
2	0	0	0	0	518	501	531	403	
3	0	0	0	0	519	501	531	402	
4	0	0	0	0	500	503	531	401	
5	0	0	0	0	499	503	531	401	
6	0	0	0	0	508	511	531	400	
7	0	0	0	0	521	505	531	400	
8	0	0	0	0	522	505	530	398	
9	0	0	0	0	526	505	530	400	
10	0	0	0	0	531	511	529	400	
11	0	0	0	0	516	508	529	399	
12	0	0	0	0	519	509	529	401	
13	0	0	0	0	514	509	529	402	
14	0	0	0	0	502	508	528	402	
15	0	0	0	0	481	507	528	402	
0	0	0	0	0	480	505	528	400	
1	0	0	0	0	489	501	528	400	
2	0	0	0	0	499	505	528	400	
3	0	0	0	0	507	514	528	401	
4	0	0	0	0	523	519	528	401	
5	0	0	0	0	518	518	528	401	
6	0	0	0	0	517	515	528	400	
7	0	0	0	0	521	510	528	401	
8	0	0	0	0	526	507	528	402	
9	0	0	0	0	535	500	527	400	
10	0	0	0	0	537	500	527	399	
11	0	0	0	0	526	502	527	400	
12	0	0	0	0	506	505	527	401	
13	0	0	0	0	500	513	527	400	
14	0	0	0	0	506	515	528	399	
15	0	0	0	0	502	510	528	400	
0	0	0	0	0	499	505	527	400	
1	0	0	0	0	499	503	527	400	
2	0	0	0	0	503	508	527	401	
3	0	0	0	0	510	510	527	401	
4	0	0	0	0	511	506	527	400	
5	0	0	0	0	513	506	527	401	
6	0	0	0	0	513	508	527	402	
7	0	0	0	0	516	507	527	401	
8	0	0	0	0	519	508	527	400	
9	0	0	0	0	521	508	527	400	
10	0	0	0	0	519	511	527	399	
11	0	0	0	0	518	509	526	399	
12	0	0	0	0	515	507	526	398	
13	0	0	0	0	515	511	526	397	
14	0	0	0	0	515	507	527	396	
15	0	0	0	0	512	505	527	397	
0	0	0	0	0	512	504	526	397	
1	0	0	0	0	521	507	527	398	
2	0	0	0	0	519	512	526	398	
3	0	0	0	0	515	513	527	399	
4	0	0	0	0	507	508	527	399	
5	0	0	0	0	504	506	527	398	
6	0	0	0	0	508	505	527	399	
7	0	0	0	0	510	505	527	397	
8	0	0	0	0	512	509	527	399	
9	0	0	0	0	513	508	527	399	
10	0	0	0	0	512	509	527	399	
11	0	0	0	0	513	512	527	396	
12	0	0	0	0	516	514	526	396	
13	0	0	0	0	513	513	527	399	
14	0	0	0	0	514	505	527	397	
15	0	0	0	0	511	505	526	397	
0	0	0	0	0	508	506	526	396	
1	0	0	0	0	512	506	525	398	
2	0	0	0	0	513	506	525	399	
3	0	0	0	0	512	504	525	399	
4	0	0	0	0	512	505	524	398	
5	0	0	0	0	510	507	525	398	
6	0	0	0	0	512	512	525	395	
7	0	0	0	0	512	520	524	395	
8	0	0	0	0	511	521	525	396	
9	0	0	0	0	511	514	525	396	
10	0	0	0	0	508	507	524	397	
11	0	0	0	0	503	498	524	397	
12	0	0	0	0	504	502	524	398	
13	0	0	0	0	510	507	524	397	
14	0	0	0	0	511	513	524	396	
15	0	0	0	0	513	511	524	393	
0	0	0	0	0	518	505	524	396	
1	0	0	0	0	516	501	524	398	
2	0	0	0	0	514	489	524	399	
3	0	0	0	0	519	499	524	398	
4	0	0	0	0	521	515	524	395	
5	0	0	0	0	518	519	524	394	
6	0	0	0	0	510	512	523	396	
7	0	0	0	0	506	506	523	394	
8	0	0	0	0	510	503	523	395	
9	0	0	0	0	511	504	523	393	
10	0	0	0	0	500	506	523	395	
11	0	0	0	0	502	508	523	395	
12	0	0	0	0	504	510	523	396	
13	0	0	0	0	506	507	523	399	
14	0	0	0	0	521	506	523	399	
15	0	0	0	0	515	507	523	399	
0	0	0	0	0	513	512	522	400	
1	0	0	0	0	500	511	522	400	
2	0	0	0	0	508	510	523	401	
3	0	0	0	0	521	510	523	401	
4	0	0	0	0	518	508	523	402	
5	0	0	0	0	516	512	522	403	
6	0	0	0	0	510	514	522	403	
7	0	0	0	0	504	513	523	404	
8	0	0	0	0	510	512	523	404	
9	0	0	0	0	508	511	524	403	
10	0	0	0	0	506	510	524	404	
11	0	0	0	0	507	507	524	403	
12	0	0	0	0	507	505	524	405	
13	0	0	0	0	508	502	524	405	
14	0	0	0	0	510	503	524	406	
15	0	0	0	0	515	504	524	405	
0	0	0	0	0	517	504	525	406	
1	0	0	0	0	516	506	524	407	
2	0	0	0	0	524	510	524	406	
3	0	0	0	0	511	506	524	407	
4	0	0	0	0	493	511	524	406	
5	0	0	0	0	491	512	525	406	
6	0	0	0	0	492	509	524	407	
7	0	0	0	0	507	510	525	406	
8	0	0	0	0	500	510	525	405	
9	0	0	0	0	509	508	525	406	
10	0	0	0	0	518	510	525	406	
11	0	0	0	0	524	504	525	405	
12	0	0	0	0	531	506	525	405	
13	0	0	0	0	533	508	525	405	
14	0	0	0	0	525	507	524	405	
15	0	0	0	0	515	508	524	405	
0	0	0	0	0	511	512	524	406	
1	0	0	0	0	509	512	523	406	
2	0	0	0	0	505	510	524	406	
3	0	0	0	0	512	510	524	406	
4	0	0	0	0	512	508	523	407	
5	0	0	0	0	516	506	524	407	
6	0	0	0	0	513	503	524	407	
7	0	0	0	0	513	500	524	407	
8	0	0	0	0	509	503	524	407	
9	0	0	0	0	512	506	524	406	
10	0	0	0	0	510	510	524	407	
11	0	0	0	0	511	510	524	406	
12	0	0	0	0	511	510	524	407	
13	0	0	0	0	514	510	524	407	
14	0	0	0	0	517	513	523	407	
15	0	0	0	0	516	510	524	407	
0	0	0	0	0	514	508	524	407	
1	0	0	0	0	512	506	524	407	
2	0	0	0	0	519	510	524	407	
3	0	0	0	0	523	510	524	407	
4	0	0	0	0	517	509	524	406	
5	0	0	0	0	513	508	524	407	
6	0	0	0	0	502	499	524	408	
7	0	0	0	0	497	494	524	406	
8	0	0	0	0	502	502	525	407	
9	0	0	0	0	499	511	525	406	
10	0	0	0	0	511	509	524	406	
11	0	0	0	0	510	513	525	406	
12	0	0	0	0	511	512	525	404	
13	0	0	0	0	511	511	524	404	
14	0	0	0	0	513	507	524	404	
15	0	0	0	0	517	511	525	404	
0	0	0	0	0	517	511	525	403	
1	0	0	0	0	512	508	525	405	
2	0	0	0	0	511	509	525	405	
3	0	0	0	0	510	505	524	405	
4	0	0	0	0	509	509	524	406	
5	0	0	0	0	510	509	525	405	
6	0	0	0	0	517	510	525	404	
7	0	0	0	0	515	510	525	404	
8	0	0	0	0	517	510	525	406	
9	0	0	0	0	525	508	525	405	
10	0	0	0	0	516	507	524	405	
11	0	0	0	0	508	505	524	404	
12	0	0	0	0	508	502	524	405	
13	0	0	0	0	501	508	524	404	
14	0	0	0	0	500	511	525	405	
15	0	0	0	0	506	505	525	404	
0	0	0	0	0	503	505	525	406	
1	0	0	0	0	505	506	524	404	
2	0	0	0	0	525	506	524	404	
3	0	0	0	0	529	510	525	403	
4	0	0	0	0	515	511	525	400	
5	0	0	0	0	511	512	524	399	
6	0	0	0	0	510	513	525	398	
7	0	0	0	0	512	512	524	398	
8	0	0	0	0	510	509	524	396	
9	0	0	0	0	511	511	525	397	
10	0	0	0	0	507	510	524	398	
11	0	0	0	0	512	508	524	396	
12	0	0	0	0	513	508	523	395	
13	0	0	0	0	511	507	524	396	
14	0	0	0	0	504	501	524	396	
15	0	0	0	0	506	504	523	396	
0	0	0	0	0	507	504	522	394	
1	0	0	0	0	519	507	521	393	
2	0	0	0	0	537	504	522	394	
3	0	0	0	0	534	503	521	395	
4	0	0	0	0	522	503	521	395	
5	0	0	0	0	506	504	521	391	
6	0	0	0	0	513	508	521	393	
7	0	0	0	0	504	516	521	393	
8	0	0	0	0	497	520	521	393	
9	0	0	0	0	478	516	520	393	
10	0	0	0	0	495	508	520	393	
11	0	0	0	0	511	505	520	394	
12	0	0	0	0	524	502	520	394	
13	0	0	0	0	535	507	520	395	
14	0	0	0	0	520	505	519	393	
15	0	0	0	0	513	508	519	393	
0	0	0	0	0	512	510	519	394	
1	0	0	0	0	505	508	518	396	
2	0	0	0	0	503	505	519	395	
3	0	0	0	0	504	504	519	395	
4	0	0	0	0	510	505	517	393	
5	0	0	0	0	518	510	516	392	
6	0	0	0	0	514	508	517	395	
7	0	0	0	0	516	504	517	394	
8	0	0	0	0	511	504	518	393	
9	0	0	0	0	511	508	517	392	
10	0	0	0	0	511	511	517	393	
11	0	0	0	0	514	510	517	392	
12	0	0	0	0	514	512	517	392	
13	0	0	0	0	514	514	516	389	
14	0	0	0	0	517	515	517	390	
15	0	0	0	0	521	513	516	390	
0	0	0	0	0	519	512	515	390	
1	0	0	0	0	513	505	516	390	
2	0	0	0	0	512	494	515	387	
3	0	0	0	0	508	492	516	387	
4	0	0	0	0	503	496	516	387	
5	0	0	0	0	503	498	513	388	
6	0	0	0	0	497	515	515	388	
7	0	0	0	0	502	519	514	388	
8	0	0	0	0	507	520	515	391	
9	0	0	0	0	520	518	516	388	
10	0	0	0	0	524	512	515	390	
11	0	0	0	0	519	511	516	390	
12	0	0	0	0	517	508	515	390	
13	0	0	0	0	510	505	515	390	
14	0	0	0	0	508	506	515	389	
15	0	0	0	0	511	508	516	388	
0	0	0	0	0	513	510	516	391	
1	0	0	0	0	514	509	515	389	
2	0	0	0	0	512	508	516	379	
3	0	0	0	0	512	510	515	379	
4	0	0	0	0	513	510	515	377	
5	0	0	0	0	512	508	516	379	
6	0	0	0	0	514	507	514	378	
7	0	0	0	0	515	505	516	379	
8	0	0	0	0	511	504	515	381	
9	0	0	0	0	512	506	516	381	
10	0	0	0	0	512	505	516	380	
11	0	0	0	0	509	504	516	381	
12	0	0	0	0	507	507	515	380	
13	0	0	0	0	509	506	515	381	
14	0	0	0	0	508	506	516	381	
15	0	0	0	0	504	506	515	382	
0	0	0	0	0	508	511	516	381	
1	0	0	0	0	510	512	516	381	
2	0	0	0	0	510	511	516	383	
3	0	0	0	0	508	504	514	382	
4	0	0	0	0	514	502	513	382	
5	0	0	0	0	518	512	513	382	
6	0	0	0	0	517	511	513	382	
7	0	0	0	0	515	515	513	383	
8	0	0	0	0	513	513	513	383	
9	0	0	0	0	511	510	513	383	
10	0	0	0	0	508	508	513	383	
11	0	0	0	0	512	507	513	384	
12	0	0	0	0	514	505	513	383	
13	0	0	0	0	511	507	513	383	
14	0	0	0	0	503	505	513	383	
15	0	0	0	0	506	504	513	384	
0	0	0	0	0	512	505	513	384	
1	0	0	0	0	508	505	513	384	
2	0	0	0	0	503	507	512	385	
3	0	0	0	0	507	510	512	386	
4	0	0	0	0	510	511	512	385	
5	0	0	0	0	506	509	512	384	
6	0	0	0	0	502	508	512	386	
7	0	0	0	0	499	510	512	387	
8	0	0	0	0	510	511	512	386	
9	0	0	0	0	511	511	511	387	
10	0	0	0	0	514	513	511	385	
11	0	0	0	0	529	514	511	386	
12	0	0	0	0	541	513	511	386	
13	0	0	0	0	533	508	511	387	
14	0	0	0	0	527	506	511	387	
15	0	0	0	0	513	500	510	386	
0	0	0	0	0	511	502	511	387	
1	0	0	0	0	507	502	510	386	
2	0	0	0	0	498	501	511	401	
3	0	0	0	0	495	505	510	401	
4	0	0	0	0	496	505	510	399	
5	0	0	0	0	498	506	510	399	
6	0	0	0	0	501	509	510	399	
7	0	0	0	0	502	513	511	399	
8	0	0	0	0	510	508	510	401	
9	0	0	0	0	527	509	510	399	
10	0	0	0	0	511	507	511	398	
11	0	0	0	0	519	508	510	398	
12	0	0	0	0	527	508	510	397	
13	0	0	0	0	523	511	510	399	
14	0	0	0	0	515	515	510	398	
15	0	0	0	0	512	512	510	397	
0	0	0	0	0	512	507	510	397	
1	0	0	0	0	505	497	510	397	
2	0	0	0	0	500	494	510	398	
3	0	0	0	0	511	502	510	399	
4	0	0	0	0	518	513	510	398	
5	0	0	0	0	511	513	510	398	
6	0	0	0	0	506	514	510	398	
7	0	0	0	0	508	521	510	398	
8	0	0	0	0	506	510	510	398	
9	0	0	0	0	506	502	510	399	
10	0	0	0	0	510	503	511	398	
11	0	0	0	0	523	502	510	399	
12	0	0	0	0	535	506	510	399	
13	0	0	0	0	530	507	511	399	
14	0	0	0	0	510	506	511	400	
15	0	0	0	0	507	506	511	399	
0	0	0	0	0	502	507	511	399	
1	0	0	0	0	503	507	511	399	
2	0	0	0	0	505	504	511	401	
3	0	0	0	0	512	512	511	400	
4	0	0	0	0	514	514	511	400	
5	0	0	0	0	513	511	511	400	
6	0	0	0	0	515	509	511	401	
7	0	0	0	0	510	505	511	401	
8	0	0	0	0	512	504	512	400	
9	0	0	0	0	511	501	511	401	
10	0	0	0	0	508	504	511	400	
11	0	0	0	0	508	504	511	401	
12	0	0	0	0	506	507	512	401	
13	0	0	0	0	509	510	511	401	
14	0	0	0	0	508	511	512	402	
15	0	0	0	0	505	509	512	403	
0	0	0	0	0	505	509	512	402	
1	0	0	0	0	507	511	512	402	
2	0	0	0	0	512	510	512	398	
3	0	0	0	0	512	507	512	399	
4	0	0	0	0	514	509	512	400	
5	0	0	0	0	511	510	512	402	
6	0	0	0	0	514	514	512	403	
7	0	0	0	0	515	509	512	403	
8	0	0	0	0	515	507	513	403	
9	0	0	0	0	517	511	512	403	
10	0	0	0	0	515	509	512	404	
11	0	0	0	0	510	505	512	404	
12	0	0	0	0	513	504	512	403	
13	0	0	0	0	515	505	512	403	
14	0	0	0	0	511	505	512	399	
15	0	0	0	0	504	507	512	402	
0	0	0	0	0	499	506	512	401	
1	0	0	0	0	511	508	512	403	
2	0	0	0	0	509	507	513	403	
3	0	0	0	0	508	508	512	402	
4	0	0	0	0	505	509	512	402	
5	0	0	0	0	511	509	512	402	
6	0	0	0	0	505	507	512	403	
7	0	0	0	0	507	513	512	404	
8	0	0	0	0	510	512	511	403	
9	0	0	0	0	518	510	512	403	
10	0	0	0	0	535	509	511	403	
11	0	0	0	0	522	507	511	403	
12	0	0	0	0	512	501	511	400	
13	0	0	0	0	511	503	511	401	
14	0	0	0	0	513	507	511	403	
15	0	0	0	0	510	508	511	400	
0	0	0	0	0	508	505	511	401	
1	0	0	0	0	511	505	510	403	
2	0	0	0	0	510	508	511	404	
3	0	0	0	0	509	509	511	403	
4	0	0	0	0	507	507	511	403	
5	0	0	0	0	509	509	510	404	
6	0	0	0	0	511	508	510	402	
7	0	0	0	0	507	510	510	401	
8	0	0	0	0	509	512	510	402	
9	0	0	0	0	518	514	509	404	
10	0	0	0	0	513	510	510	403	
11	0	0	0	0	508	508	510	403	
12	0	0	0	0	502	501	510	403	
13	0	0	0	0	507	504	510	402	
14	0	0	0	0	511	509	509	403	
15	0	0	0	0	514	512	509	401	
0	0	0	0	0	504	511	509	401	
1	0	0	0	0	503	515	508	399	
2	0	0	0	0	510	508	508	401	
3	0	0	0	0	510	504	508	402	
4	0	0	0	0	512	504	508	402	
5	0	0	0	0	514	504	508	403	
6	0	0	0	0	523	509	508	402	
7	0	0	0	0	518	507	509	401	
8	0	0	0	0	520	507	508	401	
9	0	0	0	0	513	505	508	401	
10	0	0	0	0	506	510	508	400	
11	0	0	0	0	504	513	508	401	
12	0	0	0	0	509	515	508	400	
13	0	0	0	0	516	509	507	401	
14	0	0	0	0	515	510	507	401	
15	0	0	0	0	515	508	508	392	
0	0	0	0	0	518	508	507	394	
1	0	0	0	0	515	510	507	391	
2	0	0	0	0	507	513	507	391	
3	0	0	0	0	507	510	507	391	
4	0	0	0	0	507	512	506	390	
5	0	0	0	0	514	512	506	391	
6	0	0	0	0	513	509	507	390	
7	0	0	0	0	507	502	506	390	
8	0	0	0	0	506	505	507	390	
9	0	0	0	0	519	510	506	392	
10	0	0	0	0	519	507	506	392	
11	0	0	0	0	514	501	505	391	
12	0	0	0	0	512	504	505	390	
13	0	0	0	0	510	506	505	391	
14	0	0	0	0	508	504	505	390	
15	0	0	0	0	505	507	504	391	
0	0	0	0	0	507	505	504	391	
1	0	0	0	0	509	508	504	392	
2	0	0	0	0	510	512	504	393	
3	0	0	0	0	510	510	504	392	
4	0	0	0	0	516	507	504	391	
5	0	0	0	0	513	507	504	391	
6	0	0	0	0	514	511	504	391	
7	0	0	0	0	519	512	504	391	
8	0	0	0	0	515	509	504	390	
9	0	0	0	0	513	508	504	391	
10	0	0	0	0	518	510	503	391	
11	0	0	0	0	512	508	503	389	
12	0	0	0	0	498	507	502	390	
13	0	0	0	0	492	508	500	391	
14	0	0	0	0	496	507	500	391	
15	0	0	0	0	493	505	499	391	
0	0	0	0	0	497	508	498	391	
1	0	0	0	0	500	507	496	391	
2	0	0	0	0	525	504	496	391	
3	0	0	0	0	534	505	495	391	
4	0	0	0	0	528	508	495	390	
5	0	0	0	0	524	512	495	388	
6	0	0	0	0	506	510	495	385	
7	0	0	0	0	498	511	495	387	
8	0	0	0	0	500	510	494	387	
9	0	0	0	0	487	508	494	385	
10	0	0	0	0	497	507	495	386	
11	0	0	0	0	512	508	494	386	
12	0	0	0	0	515	507	494	387	
13	0	0	0	0	514	510	494	386	
14	0	0	0	0	515	512	494	386	
15	0	0	0	0	511	510	492	386	
0	0	0	0	0	518	508	493	385	
1	0	0	0	0	520	510	492	386	
2	0	0	0	0	516	509	492	384	
3	0	0	0	0	520	510	490	384	
4	0	0	0	0	513	506	490	384	
5	0	0	0	0	502	494	487	384	
6	0	0	0	0	497	499	487	383	
7	0	0	0	0	502	507	487	383	
8	0	0	0	0	503	505	487	380	
9	0	0	0	0	512	508	487	383	
10	0	0	0	0	516	506	487	381	
11	0	0	0	0	515	508	487	381	
12	0	0	0	0	520	514	487	382	
13	0	0	0	0	520	511	487	383	
14	0	0	0	0	514	511	488	381	
15	0	0	0	0	513	514	487	383	
0	0	0	0	0	512	515	487	383	
1	0	0	0	0	513	520	487	383	
2	0	0	0	0	514	518	486	379	
3	0	0	0	0	513	511	487	381	
4	0	0	0	0	510	510	487	359	
5	0	0	0	0	508	503	487	359	
6	0	0	0	0	508	497	487	357	
7	0	0	0	0	507	489	486	358	
8	0	0	0	0	513	489	486	356	
9	0	0	0	0	516	501	487	358	
10	0	0	0	0	510	506	487	356	
11	0	0	0	0	502	511	486	357	
12	0	0	0	0	504	517	486	357	
13	0	0	0	0	503	513	486	356	
14	0	0	0	0	502	510	486	356	
15	0	0	0	0	502	511	486	355	
0	0	0	0	0	515	512	487	355	
1	0	0	0	0	521	509	486	355	
2	0	0	0	0	515	508	486	355	
3	0	0	0	0	512	507	486	354	
4	0	0	0	0	510	507	485	353	
5	0	0	0	0	518	508	485	353	
6	0	0	0	0	523	512	485	352	
7	0	0	0	0	517	509	485	353	
8	0	0	0	0	517	509	485	353	
9	0	0	0	0	518	510	485	352	
10	0	0	0	0	512	505	484	353	
11	0	0	0	0	503	507	485	353	
12	0	0	0	0	502	505	484	354	
13	0	0	0	0	512	508	484	354	
14	0	0	0	0	514	509	483	353	
15	0	0	0	0	497	507	484	353	
0	0	0	0	0	486	504	484	352	
1	0	0	0	0	498	504	483	352	
2	0	0	0	0	504	501	483	352	
3	0	0	0	0	511	502	483	351	
4	0	0	0	0	511	507	483	351	
5	0	0	0	0	533	515	483	351	
6	0	0	0	0	539	517	483	351	
7	0	0	0	0	536	516	482	352	
8	0	0	0	0	504	514	483	350	
9	0	0	0	0	509	510	483	351	
10	0	0	0	0	518	511	483	352	
11	0	0	0	0	516	510	482	352	
12	0	0	0	0	512	507	483	352	
13	0	0	0	0	505	504	483	351	
14	0	0	0	0	504	506	483	352	
15	0	0	0	0	507	503	483	353	
0	0	0	0	0	505	504	483	352	
1	0	0	0	0	505	508	483	352	
2	0	0	0	0	505	508	483	352	
3	0	0	0	0	508	505	483	352	
4	0	0	0	0	505	506	483	351	
5	0	0	0	0	506	508	483	352	
6	0	0	0	0	510	509	483	351	
7	0	0	0	0	512	511	483	351	
8	0	0	0	0	515	505	482	351	
9	0	0	0	0	518	508	483	351	
10	0	0	0	0	519	514	483	352	
11	0	0	0	0	515	513	484	351	
12	0	0	0	0	513	509	484	351	
13	0	0	0	0	511	507	484	351	
14	0	0	0	0	514	509	483	351	
15	0	0	0	0	513	510	483	350	
0	0	0	0	0	515	503	483	350	
1	0	0	0	0	515	504	483	350	
2	0	0	0	0	515	509	483	352	
3	0	0	0	0	510	510	483	351	
4	0	0	0	0	507	511	483	351	
5	0	0	0	0	510	509	483	350	
6	0	0	0	0	512	514	483	350	
7	0	0	0	0	513	516	483	351	
8	0	0	0	0	512	503	483	351	
9	0	0	0	0	512	500	483	352	
10	0	0	0	0	512	503	483	352	
11	0	0	0	0	509	505	483	351	
12	0	0	0	0	509	507	484	352	
13	0	0	0	0	513	511	484	352	
14	0	0	0	0	524	516	484	351	
15	0	0	0	0	514	513	483	351	
0	0	0	0	0	513	509	484	352	
1	0	0	0	0	518	513	484	352	
2	0	0	0	0	518	505	483	352	
3	0	0	0	0	511	498	483	351	
4	0	0	0	0	514	499	484	352	
5	0	0	0	0	508	504	484	351	
6	0	0	0	0	505	507	484	351	
7	0	0	0	0	505	507	484	350	
8	0	0	0	0	500	506	484	352	
9	0	0	0	0	501	506	484	352	
10	0	0	0	0	500	508	484	351	
11	0	0	0	0	503	510	485	351	
12	0	0	0	0	508	511	485	351	
13	0	0	0	0	511	509	485	352	
14	0	0	0	0	512	508	485	351	
15	0	0	0	0	515	507	486	351	
0	0	0	0	0	515	511	485	352	
1	0	0	0	0	513	512	485	352	
2	0	0	0	0	517	509	485	353	
3	0	0	0	0	526	508	485	352	
4	0	0	0	0	548	508	485	352	
5	0	0	0	0	536	507	485	352	
6	0	0	0	0	523	509	485	351	
7	0	0	0	0	515	511	485	351	
8	0	0	0	0	508	511	485	351	
9	0	0	0	0	488	506	485	351	
10	0	0	0	0	473	504	485	351	
11	0	0	0	0	480	502	485	351	
12	0	0	0	0	502	504	485	352	
13	0	0	0	0	512	506	485	352	
14	0	0	0	0	511	505	485	352	
15	0	0	0	0	511	504	485	352	
0	0	0	0	0	516	506	484	352	
1	0	0	0	0	512	510	485	352	
2	0	0	0	0	503	514	485	352	
3	0	0	0	0	502	514	485	352	
4	0	0	0	0	503	508	484	351	
5	0	0	0	0	503	506	484	352	
6	0	0	0	0	513	511	483	351	
7	0	0	0	0	531	517	484	351	
8	0	0	0	0	536	511	484	351	
9	0	0	0	0	541	512	483	352	
10	0	0	0	0	527	510	483	351	
11	0	0	0	0	516	508	483	350	
12	0	0	0	0	508	505	483	351	
13	0	0	0	0	510	506	483	352	
14	0	0	0	0	513	503	483	351	
15	0	0	0	0	511	504	483	352	
0	0	0	0	0	504	499	483	351	
1	0	0	0	0	502	500	483	352	
2	0	0	0	0	501	503	483	352	
3	0	0	0	0	503	503	483	352	
4	0	0	0	0	504	505	483	351	
5	0	0	0	0	508	508	483	352	
6	0	0	0	0	511	507	483	351	
7	0	0	0	0	508	514	482	352	
8	0	0	0	0	508	522	482	351	
9	0	0	0	0	507	523	482	351	
10	0	0	0	0	513	523	482	351	
11	0	0	0	0	520	519	482	351	
12	0	0	0	0	521	512	482	351	
13	0	0	0	0	513	501	482	352	
14	0	0	0	0	509	495	482	351	
15	0	0	0	0	513	495	483	351	
0	0	0	0	0	518	500	483	350	
1	0	0	0	0	514	498	482	351	
2	0	0	0	0	507	501	482	350	
3	0	0	0	0	508	505	483	351	
4	0	0	0	0	508	508	482	351	
5	0	0	0	0	508	512	482	351	
6	0	0	0	0	507	513	481	350	
7	0	0	0	0	506	510	482	350	
8	0	0	0	0	507	508	482	350	
9	0	0	0	0	510	511	481	350	
10	0	0	0	0	509	510	482	350	
11	0	0	0	0	506	508	482	350	
12	0	0	0	0	508	511	482	350	
13	0	0	0	0	511	512	482	350	
14	0	0	0	0	508	508	482	349	
15	0	0	0	0	508	508	482	350	
0	0	0	0	0	510	507	482	350	
1	0	0	0	0	515	508	482	349	
2	0	0	0	0	519	509	482	349	
3	0	0	0	0	519	507	482	349	
4	0	0	0	0	515	507	482	348	
5	0	0	0	0	518	507	482	348	
6	0	0	0	0	517	503	482	347	
7	0	0	0	0	516	504	482	347	
8	0	0	0	0	509	504	482	346	
9	0	0	0	0	501	509	482	346	
10	0	0	0	0	500	506	482	346	
11	0	0	0	0	507	507	483	347	
12	0	0	0	0	512	509	482	347	
13	0	0	0	0	501	511	482	347	
14	0	0	0	0	497	513	482	346	
15	0	0	0	0	507	505	482	347	
0	0	0	0	0	526	510	481	345	
1	0	0	0	0	516	512	482	346	
2	0	0	0	0	497	514	482	345	
3	0	0	0	0	496	510	482	345	
4	0	0	0	0	500	510	482	345	
5	0	0	0	0	512	510	483	345	
6	0	0	0	0	515	507	482	344	
7	0	0	0	0	519	504	482	345	
8	0	0	0	0	520	507	482	345	
9	0	0	0	0	525	507	482	345	
10	0	0	0	0	519	507	483	345	
11	0	0	0	0	515	507	482	344	
12	0	0	0	0	506	508	482	344	
13	0	0	0	0	501	508	482	344	
14	0	0	0	0	504	504	483	344	
15	0	0	0	0	507	506	483	344	
0	0	0	0	0	506	504	483	344	
1	0	0	0	0	505	504	483	344	
2	0	0	0	0	511	508	483	344	
3	0	0	0	0	515	508	483	343	
4	0	0	0	0	511	507	483	344	
5	0	0	0	0	520	508	483	344	
6	0	0	0	0	544	512	483	343	
7	0	0	0	0	531	515	483	343	
8	0	0	0	0	522	515	483	343	
9	0	0	0	0	505	508	483	344	
10	0	0	0	0	510	508	483	343	
11	0	0	0	0	497	507	483	343	
12	0	0	0	0	490	514	483	343	
13	0	0	0	0	497	512	483	342	
14	0	0	0	0	508	503	483	343	
15	0	0	0	0	507	503	483	343	
0	0	0	0	0	514	507	483	343	
1	0	0	0	0	512	507	483	343	
2	0	0	0	0	515	504	483	343	
3	0	0	0	0	514	503	483	343	
4	0	0	0	0	512	505	483	343	
5	0	0	0	0	514	509	483	343	
6	0	0	0	0	512	514	483	343	
7	0	0	0	0	511	512	483	344	
8	0	0	0	0	509	512	484	343	
9	0	0	0	0	511	510	483	344	
10	0	0	0	0	514	508	483	343	
11	0	0	0	0	515	507	484	344	
12	0	0	0	0	516	508	483	344	
13	0	0	0	0	518	508	484	343	
14	0	0	0	0	516	504	484	343	
15	0	0	0	0	511	502	484	343	
0	0	0	0	0	511	511	484	343	
1	0	0	0	0	518	517	483	343	
2	0	0	0	0	515	513	484	342	
3	0	0	0	0	502	507	483	342	
4	0	0	0	0	500	506	484	342	
5	0	0	0	0	504	508	484	341	
6	0	0	0	0	505	503	483	341	
7	0	0	0	0	510	504	483	342	
8	0	0	0	0	515	509	483	342	
9	0	0	0	0	518	509	484	340	
10	0	0	0	0	518	509	483	340	
11	0	0	0	0	512	509	484	339	
12	0	0	0	0	511	508	484	340	
13	0	0	0	0	516	510	484	340	
14	0	0	0	0	520	511	484	339	
15	0	0	0	0	503	513	484	339	
0	0	0	0	0	499	510	484	339	
1	0	0	0	0	503	508	484	340	
2	0	0	0	0	508	513	484	340	
3	0	0	0	0	515	513	485	340	
4	0	0	0	0	511	506	486	339	
5	0	0	0	0	505	504	485	340	
6	0	0	0	0	508	502	485	340	
7	0	0	0	0	506	499	485	341	
8	0	0	0	0	504	493	485	340	
9	0	0	0	0	513	502	485	339	
10	0	0	0	0	520	506	485	341	
11	0	0	0	0	511	510	485	341	
12	0	0	0	0	509	511	486	341	
13	0	0	0	0	517	513	486	340	
14	0	0	0	0	516	510	486	340	
15	0	0	0	0	512	510	486	341	
0	0	0	0	0	512	509	487	340	
1	0	0	0	0	510	510	486	341	
2	0	0	0	0	512	506	487	342	
3	0	0	0	0	512	507	486	341	
4	0	0	0	0	516	508	486	341	
5	0	0	0	0	525	510	486	341	
6	0	0	0	0	519	511	487	341	
7	0	0	0	0	513	511	486	342	
8	0	0	0	0	507	508	486	342	
9	0	0	0	0	504	509	486	341	
10	0	0	0	0	501	509	486	342	
11	0	0	0	0	495	504	486	341	
12	0	0	0	0	496	506	486	341	
13	0	0	0	0	497	511	486	342	
14	0	0	0	0	504	513	486	342	
15	0	0	0	0	510	509	486	341	
0	0	0	0	0	515	499	486	343	
1	0	0	0	0	515	508	486	342	
2	0	0	0	0	520	509	486	342	
3	0	0	0	0	527	511	486	342	
4	0	0	0	0	528	507	485	341	
5	0	0	0	0	518	507	485	342	
6	0	0	0	0	514	507	485	341	
7	0	0	0	0	515	507	486	342	
8	0	0	0	0	514	509	485	341	
9	0	0	0	0	513	513	486	341	
10	0	0	0	0	515	510	485	341	
11	0	0	0	0	511	511	485	341	
12	0	0	0	0	508	507	485	341	
13	0	0	0	0	504	507	485	340	
14	0	0	0	0	504	503	485	340	
15	0	0	0	0	504	499	485	341	
0	0	0	0	0	506	497	485	341	
1	0	0	0	0	505	500	484	340	
2	0	0	0	0	519	505	485	341	
3	0	0	0	0	513	511	484	340	
4	0	0	0	0	511	513	483	340	
5	0	0	0	0	509	513	483	340	
6	0	0	0	0	511	512	483	339	
7	0	0	0	0	513	513	483	340	
8	0	0	0	0	523	510	483	339	
9	0	0	0	0	518	511	482	339	
10	0	0	0	0	514	507	482	339	
11	0	0	0	0	516	503	482	339	
12	0	0	0	0	508	512	481	339	
13	0	0	0	0	499	510	482	339	
14	0	0	0	0	498	508	482	339	
15	0	0	0	0	496	504	482	339	
0	0	0	0	0	509	504	483	338	
1	0	0	0	0	519	507	483	338	
2	0	0	0	0	526	505	482	339	
3	0	0	0	0	505	502	483	338	
4	0	0	0	0	507	506	483	338	
5	0	0	0	0	506	504	482	339	
6	0	0	0	0	505	509	483	337	
7	0	0	0	0	506	512	483	338	
8	0	0	0	0	507	513	482	338	
9	0	0	0	0	510	512	482	338	
10	0	0	0	0	511	508	483	338	
11	0	0	0	0	513	510	483	338	
12	0	0	0	0	511	513	483	338	
13	0	0	0	0	513	512	483	338	
14	0	0	0	0	516	511	483	337	
15	0	0	0	0	516	505	482	337	
0	0	0	0	0	513	507	482	336	
1	0	0	0	0	513	510	482	337	
2	0	0	0	0	517	509	482	337	
3	0	0	0	0	513	508	481	338	
4	0	0	0	0	511	507	481	337	
5	0	0	0	0	517	512	481	337	
6	0	0	0	0	514	511	481	337	
7	0	0	0	0	508	508	482	337	
8	0	0	0	0	506	504	482	337	
9	0	0	0	0	508	504	482	337	
10	0	0	0	0	508	506	481	338	
11	0	0	0	0	505	499	482	336	
12	0	0	0	0	519	499	482	337	
13	0	0	0	0	527	507	482	337	
14	0	0	0	0	520	518	482	337	
15	0	0	0	0	511	518	481	337	
0	0	0	0	0	513	515	481	337	
1	0	0	0	0	504	511	482	337	
2	0	0	0	0	497	507	480	337	
3	0	0	0	0	493	502	481	337	
4	0	0	0	0	503	508	481	337	
5	0	0	0	0	528	516	481	337	
6	0	0	0	0	517	510	481	337	
7	0	0	0	0	502	504	481	337	
8	0	0	0	0	506	504	481	337	
9	0	0	0	0	512	503	481	337	
10	0	0	0	0	509	501	481	338	
11	0	0	0	0	511	505	481	337	
12	0	0	0	0	510	508	481	337	
13	0	0	0	0	509	508	480	338	
14	0	0	0	0	510	509	481	337	
15	0	0	0	0	513	511	481	337	
0	0	0	0	0	513	508	481	337	
1	0	0	0	0	512	509	481	337	
2	0	0	0	0	520	504	481	337	
3	0	0	0	0	520	505	481	337	
4	0	0	0	0	516	511	481	337	
5	0	0	0	0	512	509	482	337	
6	0	0	0	0	514	510	482	337	
7	0	0	0	0	514	511	481	337	
8	0	0	0	0	511	510	481	337	
9	0	0	0	0	511	511	482	337	
10	0	0	0	0	511	511	481	337	
11	0	0	0	0	509	510	481	337	
12	0	0	0	0	510	508	481	337	
13	0	0	0	0	508	501	481	337	
14	0	0	0	0	510	502	480	337	
15	0	0	0	0	509	508	481	337	
0	0	0	0	0	511	512	481	337	
1	0	0	0	0	511	511	480	336	
2	0	0	0	0	507	507	480	337	
3	0	0	0	0	503	503	479	337	
4	0	0	0	0	499	502	480	337	
5	0	0	0	0	502	506	479	337	
6	0	0	0	0	505	513	479	335	
7	0	0	0	0	522	513	479	335	
8	0	0	0	0	521	509	479	334	
9	0	0	0	0	513	512	480	334	
10	0	0	0	0	517	510	479	334	
11	0	0	0	0	523	508	479	333	
12	0	0	0	0	521	512	479	333	
13	0	0	0	0	516	513	479	333	
14	0	0	0	0	518	519	479	334	
15	0	0	0	0	524	516	478	333	
0	0	0	0	0	511	508	479	333	
1	0	0	0	0	502	500	479	333	
2	0	0	0	0	509	499	479	334	
3	0	0	0	0	512	495	479	333	
4	0	0	0	0	511	499	479	334	
5	0	0	0	0	508	505	478	334	
6	0	0	0	0	506	507	479	333	
7	0	0	0	0	508	505	479	333	
8	0	0	0	0	502	506	479	333	
9	0	0	0	0	505	510	478	333	
10	0	0	0	0	510	506	478	334	
11	0	0	0	0	510	504	478	333	
12	0	0	0	0	511	510	479	333	
13	0	0	0	0	512	512	479	333	
14	0	0	0	0	511	510	479	333	
15	0	0	0	0	507	509	479	334	
0	0	0	0	0	514	509	479	333	
1	0	0	0	0	517	509	479	332	
2	0	0	0	0	512	512	479	333	
3	0	0	0	0	508	513	479	332	
4	0	0	0	0	505	517	479	332	
5	0	0	0	0	507	512	478	332	
6	0	0	0	0	508	510	478	332	
7	0	0	0	0	511	505	478	332	
8	0	0	0	0	517	502	479	332	
9	0	0	0	0	515	496	479	333	
10	0	0	0	0	504	501	478	333	
11	0	0	0	0	499	507	479	332	
12	0	0	0	0	502	509	479	333	
13	0	0	0	0	519	508	479	333	
14	0	0	0	0	520	506	479	333	
15	0	0	0	0	520	510	479	334	
0	0	0	0	0	503	510	479	333	
1	0	0	0	0	502	508	479	333	
2	0	0	0	0	502	505	480	333	
3	0	0	0	0	500	503	480	333	
4	0	0	0	0	501	507	480	332	
5	0	0	0	0	512	510	480	333	
6	0	0	0	0	515	509	480	333	
7	0	0	0	0	518	508	480	332	
8	0	0	0	0	517	505	480	332	
9	0	0	0	0	515	507	480	332	
10	0	0	0	0	515	508	480	333	
11	0	0	0	0	512	507	480	332	
12	0	0	0	0	511	508	480	332	
13	0	0	0	0	510	505	480	332	
14	0	0	0	0	509	511	480	332	
15	0	0	0	0	509	509	480	334	
0	0	0	0	0	513	509	480	333	
1	0	0	0	0	517	507	480	334	
2	0	0	0	0	521	505	480	334	
3	0	0	0	0	530	508	480	334	
4	0	0	0	0	520	509	480	334	
5	0	0	0	0	510	512	480	334	
6	0	0	0	0	501	517	480	333	
7	0	0	0	0	496	516	480	333	
8	0	0	0	0	492	518	480	333	
9	0	0	0	0	496	517	480	334	
10	0	0	0	0	495	509	480	334	
11	0	0	0	0	508	508	480	333	
12	0	0	0	0	521	504	480	334	
13	0	0	0	0	529	495	480	334	
14	0	0	0	0	516	494	480	333	
15	0	0	0	0	513	499	479	334	
0	0	0	0	0	511	502	480	334	
1	0	0	0	0	511	505	480	334	
2	0	0	0	0	508	508	480	334	
3	0	0	0	0	510	507	480	334	
4	0	0	0	0	511	511	480	335	
5	0	0	0	0	513	511	479	335	
6	0	0	0	0	514	511	479	334	
7	0	0	0	0	517	512	479	335	
8	0	0	0	0	518	513	479	335	
9	0	0	0	0	516	509	479	335	
10	0	0	0	0	514	507	479	335	
11	0	0	0	0	513	512	480	335	
12	0	0	0	0	512	513	479	335	
13	0	0	0	0	510	511	479	335	
14	0	0	0	0	511	511	480	335	
15	0	0	0	0	523	512	480	335	
0	0	0	0	0	515	508	480	335	
1	0	0	0	0	506	504	480	335	
2	0	0	0	0	502	503	480	335	
3	0	0	0	0	503	500	480	335	
4	0	0	0	0	509	504	480	335	
5	0	0	0	0	510	505	480	335	
6	0	0	0	0	505	510	480	335	
7	0	0	0	0	505	509	480	336	
8	0	0	0	0	510	513	480	335	
9	0	0	0	0	512	511	479	335	
10	0	0	0	0	516	512	479	335	
11	0	0	0	0	527	508	479	335	
12	0	0	0	0	533	508	479	335	
13	0	0	0	0	519	504	479	335	
14	0	0	0	0	514	506	479	335	
15	0	0	0	0	511	508	479	335	
0	0	0	0	0	510	510	479	335	
1	0	0	0	0	505	509	478	335	
2	0	0	0	0	506	505	479	336	
3	0	0	0	0	507	504	478	336	
4	0	0	0	0	515	507	479	335	
5	0	0	0	0	518	508	479	335	
6	0	0	0	0	509	508	479	335	
7	0	0	0	0	507	507	479	335	
8	0	0	0	0	512	506	480	335	
9	0	0	0	0	515	509	480	335	
10	0	0	0	0	509	507	479	334	
11	0	0	0	0	509	507	479	334	
12	0	0	0	0	512	508	479	335	
13	0	0	0	0	509	506	478	335	
14	0	0	0	0	504	508	478	334	
15	0	0	0	0	506	511	478	334	
0	0	0	0	0	507	510	478	334	
1	0	0	0	0	513	512	478	334	
2	0	0	0	0	505	512	477	334	
3	0	0	0	0	503	507	478	334	
4	0	0	0	0	511	513	476	334	
5	0	0	0	0	519	509	476	334	
6	0	0	0	0	527	504	476	334	
7	0	0	0	0	523	504	476	334	
8	0	0	0	0	509	508	475	334	
9	0	0	0	0	497	512	475	334	
10	0	0	0	0	497	510	476	335	
11	0	0	0	0	495	507	476	334	
12	0	0	0	0	495	507	475	334	
13	0	0	0	0	494	508	475	334	
14	0	0	0	0	507	509	475	334	
15	0	0	0	0	523	508	475	334	
0	0	0	0	0	512	506	475	333	
1	0	0	0	0	501	507	474	333	
2	0	0	0	0	510	512	474	334	
3	0	0	0	0	527	517	474	334	
4	0	0	0	0	515	510	475	334	
5	0	0	0	0	512	504	474	333	
6	0	0	0	0	517	496	474	333	
7	0	0	0	0	522	500	473	334	
8	0	0	0	0	523	510	474	335	
9	0	0	0	0	516	513	474	334	
10	0	0	0	0	513	511	474	335	
11	0	0	0	0	515	514	474	335	
12	0	0	0	0	509	507	474	335	
13	0	0	0	0	505	504	475	335	
14	0	0	0	0	505	507	475	334	
15	0	0	0	0	508	507	475	335	
0	0	0	0	0	511	506	475	335	
1	0	0	0	0	512	504	475	335	
2	0	0	0	0	516	504	475	336	
3	0	0	0	0	513	501	474	335	
4	0	0	0	0	508	504	474	335	
5	0	0	0	0	505	508	474	335	
6	0	0	0	0	505	515	474	335	
7	0	0	0	0	510	513	474	334	
8	0	0	0	0	508	510	474	334	
9	0	0	0	0	515	510	474	334	
10	0	0	0	0	523	505	474	335	
11	0	0	0	0	515	510	474	335	
12	0	0	0	0	512	511	474	335	
13	0	0	0	0	514	511	475	335	
14	0	0	0	0	511	510	475	335	
15	0	0	0	0	510	505	475	334	
0	0	0	0	0	508	504	475	335	
1	0	0	0	0	504	500	475	335	
2	0	0	0	0	505	501	475	335	
3	0	0	0	0	506	498	475	335	
4	0	0	0	0	508	500	475	335	
5	0	0	0	0	520	506	475	335	
6	0	0	0	0	516	507	475	335	
7	0	0	0	0	516	508	475	335	
8	0	0	0	0	532	510	475	334	
9	0	0	0	0	521	510	476	333	
10	0	0	0	0	513	513	475	334	
11	0	0	0	0	505	512	476	334	
12	0	0	0	0	505	505	476	335	
13	0	0	0	0	509	507	476	334	
14	0	0	0	0	513	509	476	334	
15	0	0	0	0	516	513	476	334	
0	0	0	0	0	515	513	476	334	
1	0	0	0	0	511	511	476	334	
2	0	0	0	0	508	511	476	335	
3	0	0	0	0	505	508	476	335	
4	0	0	0	0	508	508	475	335	
5	0	0	0	0	503	508	476	335	
6	0	0	0	0	499	509	476	335	
7	0	0	0	0	504	507	476	335	
8	0	0	0	0	507	505	476	335	
9	0	0	0	0	506	507	476	335	
10	0	0	0	0	510	507	476	335	
11	0	0	0	0	511	507	476	335	
12	0	0	0	0	507	505	476	335	
13	0	0	0	0	511	505	477	335	
14	0	0	0	0	511	509	477	335	
15	0	0	0	0	512	509	476	335	
0	0	0	0	0	515	511	477	334	
1	0	0	0	0	515	506	477	335	
2	0	0	0	0	519	507	476	335	
3	0	0	0	0	512	507	476	335	
4	0	0	0	0	513	507	476	335	
5	0	0	0	0	512	509	477	335	
6	0	0	0	0	516	514	476	335	
7	0	0	0	0	519	513	476	335	
8	0	0	0	0	523	509	476	335	
9	0	0	0	0	519	512	476	334	
10	0	0	0	0	514	511	476	334	
11	0	0	0	0	511	511	476	334	
12	0	0	0	0	504	508	476	334	
13	0	0	0	0	497	501	476	335	
14	0	0	0	0	502	494	476	334	
15	0	0	0	0	516	492	476	334	
0	0	0	0	0	516	494	476	334	
1	0	0	0	0	515	500	475	335	
2	0	0	0	0	505	507	476	335	
3	0	0	0	0	501	521	476	334	
4	0	0	0	0	507	527	476	334	
5	0	0	0	0	511	519	476	334	
6	0	0	0	0	507	519	476	334	
7	0	0	0	0	508	515	476	334	
8	0	0	0	0	512	509	475	334	
9	0	0	0	0	527	509	475	334	
10	0	0	0	0	515	506	475	334	
11	0	0	0	0	509	508	475	334	
12	0	0	0	0	508	505	475	334	
13	0	0	0	0	505	504	476	334	
14	0	0	0	0	509	504	476	334	
15	0	0	0	0	510	504	476	334	
0	0	0	0	0	508	508	476	334	
1	0	0	0	0	511	507	476	334	
2	0	0	0	0	512	508	476	334	
3	0	0	0	0	514	511	476	334	
4	0	0	0	0	511	510	476	334	
5	0	0	0	0	511	504	476	334	
6	0	0	0	0	513	501	476	334	
7	0	0	0	0	510	507	475	334	
8	0	0	0	0	513	508	475	334	
9	0	0	0	0	511	509	475	334	
10	0	0	0	0	510	507	475	334	
11	0	0	0	0	509	503	475	334	
12	0	0	0	0	509	502	476	334	
13	0	0	0	0	513	508	475	335	
14	0	0	0	0	513	512	475	334	
15	0	0	0	0	509	509	475	335	
0	0	0	0	0	508	509	475	334	
1	0	0	0	0	510	510	474	334	
2	0	0	0	0	516	514	474	335	
3	0	0	0	0	511	514	474	334	
4	0	0	0	0	506	508	474	335	
5	0	0	0	0	516	507	474	335	
6	0	0	0	0	508	506	473	334	
7	0	0	0	0	505	505	473	334	
8	0	0	0	0	508	507	473	334	
9	0	0	0	0	512	503	473	333	
10	0	0	0	0	512	509	473	333	
11	0	0	0	0	515	511	473	332	
12	0	0	0	0	515	509	473	331	
13	0	0	0	0	513	508	472	332	
14	0	0	0	0	510	509	473	331	
15	0	0	0	0	509	513	472	330	
0	0	0	0	0	511	511	472	330	
1	0	0	0	0	520	511	471	329	
2	0	0	0	0	523	509	471	329	
3	0	0	0	0	519	509	471	328	
4	0	0	0	0	512	510	471	327	
5	0	0	0	0	508	503	471	327	
6	0	0	0	0	510	506	471	326	
7	0	0	0	0	502	503	470	326	
8	0	0	0	0	496	503	470	326	
9	0	0	0	0	494	507	470	326	
10	0	0	0	0	516	507	470	327	
11	0	0	0	0	514	513	470	326	
12	0	0	0	0	506	517	470	325	
13	0	0	0	0	501	519	469	326	
14	0	0	0	0	506	518	469	325	
15	0	0	0	0	512	507	469	325	
0	0	0	0	0	516	493	469	324	
1	0	0	0	0	513	498	470	325	
2	0	0	0	0	516	508	469	325	
3	0	0	0	0	524	513	469	325	
4	0	0	0	0	522	513	469	326	
5	0	0	0	0	513	512	468	325	
6	0	0	0	0	510	512	469	325	
7	0	0	0	0	511	510	469	325	
8	0	0	0	0	507	510	469	326	
9	0	0	0	0	507	506	469	325	
10	0	0	0	0	507	504	469	326	
11	0	0	0	0	510	504	469	327	
12	0	0	0	0	508	500	469	326	
13	0	0	0	0	511	499	469	326	
14	0	0	0	0	515	504	468	326	
15	0	0	0	0	510	508	468	325	
0	0	0	0	0	507	508	468	326	
1	0	0	0	0	509	508	468	326	
2	0	0	0	0	514	511	468	326	
3	0	0	0	0	518	509	467	325	
4	0	0	0	0	518	501	468	325	
5	0	0	0	0	520	508	467	325	
6	0	0	0	0	517	513	467	324	
7	0	0	0	0	512	510	468	324	
8	0	0	0	0	512	508	467	324	
9	0	0	0	0	501	514	466	324	
10	0	0	0	0	499	514	465	325	
11	0	0	0	0	507	511	466	325	
12	0	0	0	0	511	506	466	324	
13	0	0	0	0	511	504	466	324	
14	0	0	0	0	510	505	466	324	
15	0	0	0	0	516	507	465	324	
0	0	0	0	0	527	507	465	324	
1	0	0	0	0	516	507	465	324	
2	0	0	0	0	507	507	465	324	
3	0	0	0	0	503	506	464	324	
4	0	0	0	0	506	509	464	323	
5	0	0	0	0	499	505	464	323	
6	0	0	0	0	497	509	464	323	
7	0	0	0	0	489	509	464	322	
8	0	0	0	0	500	509	464	323	
9	0	0	0	0	510	508	463	322	
10	0	0	0	0	516	509	464	322	
11	0	0	0	0	519	512	464	322	
12	0	0	0	0	523	511	464	321	
13	0	0	0	0	535	512	463	321	
14	0	0	0	0	526	510	463	321	
15	0	0	0	0	513	508	463	321	
0	0	0	0	0	511	507	463	321	
1	0	0	0	0	511	507	463	320	
2	0	0	0	0	513	505	463	320	
3	0	0	0	0	511	502	464	319	
4	0	0	0	0	510	500	463	319	
5	0	0	0	0	512	505	463	318	
6	0	0	0	0	510	508	462	316	
7	0	0	0	0	511	508	462	317	
8	0	0	0	0	510	509	462	316	
9	0	0	0	0	511	511	462	317	
10	0	0	0	0	513	510	462	317	
11	0	0	0	0	512	510	462	315	
12	0	0	0	0	514	512	462	316	
13	0	0	0	0	514	511	461	314	
14	0	0	0	0	514	509	462	313	
15	0	0	0	0	512	508	461	312	
0	0	0	0	0	514	508	461	311	
1	0	0	0	0	510	506	461	310	
2	0	0	0	0	509	505	460	309	
3	0	0	0	0	515	505	460	309	
4	0	0	0	0	513	507	460	308	
5	0	0	0	0	511	507	460	307	
6	0	0	0	0	510	506	460	306	
7	0	0	0	0	506	511	460	305	
8	0	0	0	0	504	510	458	304	
9	0	0	0	0	502	510	459	303	
10	0	0	0	0	495	506	457	305	
11	0	0	0	0	499	504	457	304	
12	0	0	0	0	507	506	457	303	
13	0	0	0	0	529	508	457	305	
14	0	0	0	0	531	511	457	304	
15	0	0	0	0	536	514	455	303	
0	0	0	0	0	519	513	456	303	
1	0	0	0	0	509	510	455	302	
2	0	0	0	0	507	506	455	302	
3	0	0	0	0	505	504	456	302	
4	0	0	0	0	503	504	455	301	
5	0	0	0	0	502	504	455	301	
6	0	0	0	0	507	504	455	301	
7	0	0	0	0	514	507	454	300	
8	0	0	0	0	513	509	454	299	
9	0	0	0	0	511	512	454	299	
10	0	0	0	0	509	511	455	299	
11	0	0	0	0	505	508	454	298	
12	0	0	0	0	508	510	454	298	
13	0	0	0	0	511	505	454	299	
14	0	0	0	0	509	504	454	297	
15	0	0	0	0	509	503	453	297	
0	0	0	0	0	513	501	453	299	
1	0	0	0	0	508	498	452	297	
2	0	0	0	0	509	505	451	296	
3	0	0	0	0	513	510	452	296	
4	0	0	0	0	514	516	452	295	
5	0	0	0	0	514	513	451	296	
6	0	0	0	0	515	511	452	295	
7	0	0	0	0	515	511	452	294	
8	0	0	0	0	513	510	452	295	
9	0	0	0	0	514	512	451	294	
10	0	0	0	0	513	511	451	294	
11	0	0	0	0	508	509	450	293	
12	0	0	0	0	508	510	451	293	
13	0	0	0	0	510	508	451	293	
14	0	0	0	0	506	511	451	293	
15	0	0	0	0	507	507	451	294	
0	0	0	0	0	509	505	451	296	
1	0	0	0	0	509	504	450	296	
2	0	0	0	0	510	503	450	295	
3	0	0	0	0	509	506	450	294	
4	0	0	0	0	511	506	449	295	
5	0	0	0	0	515	510	449	295	
6	0	0	0	0	516	513	449	294	
7	0	0	0	0	512	513	449	294	
8	0	0	0	0	513	515	449	295	
9	0	0	0	0	513	514	450	295	
10	0	0	0	0	514	505	449	295	
11	0	0	0	0	513	504	449	295	
12	0	0	0	0	512	509	448	294	
13	0	0	0	0	512	511	448	293	
14	0	0	0	0	511	505	448	292	
15	0	0	0	0	512	505	448	292	
0	0	0	0	0	510	506	448	294	
1	0	0	0	0	510	508	447	292	
2	0	0	0	0	510	504	448	292	
3	0	0	0	0	508	502	448	291	
4	0	0	0	0	507	502	447	290	
5	0	0	0	0	508	506	447	291	
6	0	0	0	0	508	508	446	290	
7	0	0	0	0	507	510	446	289	
8	0	0	0	0	510	512	446	289	
9	0	0	0	0	508	510	446	290	
10	0	0	0	0	510	509	446	291	
11	0	0	0	0	510	509	445	290	
12	0	0	0	0	512	513	445	291	
13	0	0	0	0	513	512	444	290	
14	0	0	0	0	512	512	444	291	
15	0	0	0	0	514	511	444	290	
0	0	0	0	0	512	509	443	287	
1	0	0	0	0	524	510	444	288	
2	0	0	0	0	520	507	444	285	
3	0	0	0	0	510	503	444	284	
4	0	0	0	0	504	505	444	283	
5	0	0	0	0	506	507	444	280	
6	0	0	0	0	503	507	443	279	
7	0	0	0	0	505	508	444	279	
8	0	0	0	0	505	507	443	277	
9	0	0	0	0	505	508	444	276	
10	0	0	0	0	508	510	442	275	
11	0	0	0	0	510	509	443	276	
12	0	0	0	0	511	508	442	274	
13	0	0	0	0	512	507	441	273	
14	0	0	0	0	511	508	442	274	
15	0	0	0	0	523	505	440	273	
0	0	0	0	0	519	508	439	272	
1	0	0	0	0	513	510	438	272	
2	0	0	0	0	518	515	439	270	
3	0	0	0	0	518	514	439	268	
4	0	0	0	0	511	514	438	268	
5	0	0	0	0	509	511	438	268	
6	0	0	0	0	511	514	438	269	
7	0	0	0	0	533	511	438	269	
8	0	0	0	0	523	503	437	266	
9	0	0	0	0	495	499	437	266	
10	0	0	0	0	495	500	438	265	
11	0	0	0	0	499	498	438	265	
12	0	0	0	0	504	506	439	265	
13	0	0	0	0	504	504	437	267	
14	0	0	0	0	508	510	437	267	
15	0	0	0	0	519	510	436	267	
0	0	0	0	0	515	508	436	265	
1	0	0	0	0	510	505	436	265	
2	0	0	0	0	510	506	435	264	
3	0	0	0	0	510	508	432	264	
4	0	0	0	0	511	509	433	265	
5	0	0	0	0	506	511	432	265	
6	0	0	0	0	511	511	432	265	
7	0	0	0	0	514	511	432	265	
