# OpenSignals Text File Format. Version 1
# {"20:18:06:13:21:78": {"position": 0, "device": "bitalino_rev", "device name": "20:18:06:13:21:78", "device connection": "BTH20:18:06:13:21:78", "sampling rate": 1000, "resolution": [4, 1, 1, 1, 1, 10, 10, 10, 10], "firmware version": 1281, "comments": "", "keywords": "", "mode": 0, "sync interval": 2, "date": "2023-5-29", "time": "18:30:58.315", "channels": [1, 2, 3, 4], "sensor": ["RAW", "RAW", "EMGBITREV", "EMGBITREV"], "label": ["A1", "A2", "A3", "A4"], "column": ["nSeq", "I1", "I2", "O1", "O2", "A1", "A2", "A3", "A4"], "special": [{}, {}, {}, {}], "digital IO": [0, 0, 1, 1]}}
# EndOfHeader
0	0	0	0	0	513	507	0	0			
1	0	0	0	0	515	507	0	0			
2	0	0	0	0	512	508	0	0			
3	0	0	0	0	508	507	0	0			
4	0	0	0	0	509	507	0	0			
5	0	0	0	0	508	507	0	0			
6	0	0	0	0	508	506	0	0			
7	0	0	0	0	507	506	0	0			
8	0	0	0	0	504	506	0	0			
9	0	0	0	0	507	505	0	0			
10	0	0	0	0	507	507	0	0			
11	0	0	0	0	509	506	0	0			
12	0	0	0	0	511	510	0	0			
13	0	0	0	0	508	511	0	0			
14	0	0	0	0	511	509	0	0			
15	0	0	0	0	511	511	0	0			
0	0	0	0	0	513	512	0	0			
1	0	0	0	0	513	512	0	0			
2	0	0	0	0	514	510	0	0			
3	0	0	0	0	514	508	0	0			
4	0	0	0	0	514	507	0	0			
5	0	0	0	0	512	504	0	0			
6	0	0	0	0	512	504	0	0			
7	0	0	0	0	511	506	0	0			
8	0	0	0	0	512	507	0	0			
9	0	0	0	0	512	505	0	0			
10	0	0	0	0	507	503	0	0			
11	0	0	0	0	507	503	0	0			
12	0	0	0	0	504	507	0	0			
13	0	0	0	0	507	508	0	0			
14	0	0	0	0	505	508	0	0			
15	0	0	0	0	508	509	0	0			
0	0	0	0	0	509	509	0	0			
1	0	0	0	0	509	510	0	0			
2	0	0	0	0	512	510	0	0			
3	0	0	0	0	515	513	0	0			
4	0	0	0	0	513	512	0	0			
5	0	0	0	0	516	512	0	0			
6	0	0	0	0	514	508	0	0			
7	0	0	0	0	513	508	0	0			
8	0	0	0	0	515	505	0	0			
9	0	0	0	0	514	505	0	0			
10	0	0	0	0	510	507	0	0			
11	0	0	0	0	510	507	0	0			
12	0	0	0	0	511	508	0	0			
13	0	0	0	0	511	505	0	0			
14	0	0	0	0	509	505	0	0			
15	0	0	0	0	506	506	0	0			
0	0	0	0	0	507	506	0	0			
1	0	0	0	0	505	506	0	0			
2	0	0	0	0	506	510	0	0			
3	0	0	0	0	506	508	0	0			
4	0	0	0	0	508	510	0	0			
5	0	0	0	0	510	508	0	0			
6	0	0	0	0	512	510	0	0			
7	0	0	0	0	513	510	0	0			
8	0	0	0	0	514	511	0	0			
9	0	0	0	0	513	511	0	0			
10	0	0	0	0	514	511	0	0			
11	0	0	0	0	515	508	0	0			
12	0	0	0	0	514	507	0	0			
13	0	0	0	0	515	507	0	0			
14	0	0	0	0	513	508	0	0			
15	0	0	0	0	510	503	0	0			
0	0	0	0	0	510	505	0	0			
1	0	0	0	0	509	505	0	0			
2	0	0	0	0	506	506	0	0			
3	0	0	0	0	509	506	0	0			
4	0	0	0	0	507	505	0	0			
5	0	0	0	0	508	507	0	0			
6	0	0	0	0	507	510	0	0			
7	0	0	0	0	509	507	0	0			
8	0	0	0	0	511	508	0	0			
9	0	0	0	0	512	510	0	0			
10	0	0	0	0	514	510	0	0			
11	0	0	0	0	512	512	0	0			
12	0	0	0	0	513	512	0	0			
13	0	0	0	0	512	511	0	0			
14	0	0	0	0	513	511	0	0			
15	0	0	0	0	515	509	0	0			
0	0	0	0	0	513	509	0	0			
1	0	0	0	0	513	506	0	0			
2	0	0	0	0	512	504	0	0			
3	0	0	0	0	511	505	0	0			
4	0	0	0	0	512	505	0	0			
5	0	0	0	0	511	505	0	0			
6	0	0	0	0	508	505	0	0			
7	0	0	0	0	505	506	0	0			
8	0	0	0	0	507	508	0	0			
9	0	0	0	0	505	508	0	0			
10	0	0	0	0	505	508	0	0			
11	0	0	0	0	507	509	0	0			
12	0	0	0	0	509	510	0	0			
13	0	0	0	0	511	510	0	0			
14	0	0	0	0	514	510	0	0			
15	0	0	0	0	513	512	0	0			
0	0	0	0	0	513	510	0	0			
1	0	0	0	0	514	511	0	0			
2	0	0	0	0	514	508	0	0			
3	0	0	0	0	514	508	0	0			
4	0	0	0	0	514	507	0	0			
5	0	0	0	0	514	505	0	0			
6	0	0	0	0	513	504	0	0			
7	0	0	0	0	511	507	0	0			
8	0	0	0	0	509	510	0	0			
9	0	0	0	0	510	505	0	0			
10	0	0	0	0	505	506	0	0			
11	0	0	0	0	504	506	0	0			
12	0	0	0	0	508	507	0	0			
13	0	0	0	0	507	506	0	0			
14	0	0	0	0	509	507	0	0			
15	0	0	0	0	507	510	0	0			
0	0	0	0	0	508	510	0	0			
1	0	0	0	0	509	511	0	0			
2	0	0	0	0	511	508	0	0			
3	0	0	0	0	512	510	0	0			
4	0	0	0	0	515	511	0	0			
5	0	0	0	0	515	511	0	0			
6	0	0	0	0	517	508	0	0			
7	0	0	0	0	515	507	0	0			
8	0	0	0	0	516	507	0	0			
9	0	0	0	0	513	508	0	0			
10	0	0	0	0	512	506	0	0			
11	0	0	0	0	511	505	0	0			
12	0	0	0	0	509	507	0	0			
13	0	0	0	0	508	505	0	0			
14	0	0	0	0	507	506	0	0			
15	0	0	0	0	508	505	0	0			
0	0	0	0	0	507	505	0	0			
1	0	0	0	0	507	506	0	0			
2	0	0	0	0	506	508	0	0			
3	0	0	0	0	507	511	0	0			
4	0	0	0	0	507	508	0	0			
5	0	0	0	0	510	510	0	0			
6	0	0	0	0	509	510	0	0			
7	0	0	0	0	513	514	0	0			
8	0	0	0	0	515	511	0	0			
9	0	0	0	0	516	511	0	0			
10	0	0	0	0	515	510	0	0			
11	0	0	0	0	515	508	0	0			
12	0	0	0	0	515	508	0	0			
13	0	0	0	0	513	505	0	0			
14	0	0	0	0	510	506	0	0			
15	0	0	0	0	510	505	0	0			
0	0	0	0	0	511	507	0	0			
1	0	0	0	0	510	508	0	0			
2	0	0	0	0	508	504	0	0			
3	0	0	0	0	505	506	0	0			
4	0	0	0	0	507	506	0	0			
5	0	0	0	0	506	506	0	0			
6	0	0	0	0	508	510	0	0			
7	0	0	0	0	507	508	0	0			
8	0	0	0	0	509	508	0	0			
9	0	0	0	0	509	512	0	0			
10	0	0	0	0	509	510	0	0			
11	0	0	0	0	510	512	0	0			
12	0	0	0	0	513	511	0	0			
13	0	0	0	0	514	512	0	0			
14	0	0	0	0	514	510	0	0			
15	0	0	0	0	514	507	0	0			
0	0	0	0	0	515	508	0	0			
1	0	0	0	0	514	504	0	0			
2	0	0	0	0	512	506	0	0			
3	0	0	0	0	509	505	0	0			
4	0	0	0	0	509	505	0	0			
5	0	0	0	0	509	506	0	0			
6	0	0	0	0	509	504	0	0			
7	0	0	0	0	506	505	0	0			
8	0	0	0	0	508	504	0	0			
9	0	0	0	0	508	508	0	0			
10	0	0	0	0	508	506	0	0			
11	0	0	0	0	507	508	0	0			
12	0	0	0	0	508	508	0	0			
13	0	0	0	0	511	512	0	0			
14	0	0	0	0	511	511	0	0			
15	0	0	0	0	512	513	0	0			
0	0	0	0	0	512	512	0	0			
1	0	0	0	0	515	511	0	0			
2	0	0	0	0	516	512	0	0			
3	0	0	0	0	515	509	0	0			
4	0	0	0	0	516	508	0	0			
5	0	0	0	0	516	505	0	0			
6	0	0	0	0	512	506	0	0			
7	0	0	0	0	510	506	0	0			
8	0	0	0	0	510	506	0	0			
9	0	0	0	0	512	505	0	0			
10	0	0	0	0	507	505	0	0			
11	0	0	0	0	505	504	0	0			
12	0	0	0	0	506	505	0	0			
13	0	0	0	0	505	509	0	0			
14	0	0	0	0	505	508	0	0			
15	0	0	0	0	507	510	0	0			
0	0	0	0	0	510	508	0	0			
1	0	0	0	0	510	509	0	0			
2	0	0	0	0	510	510	0	0			
3	0	0	0	0	513	511	0	0			
4	0	0	0	0	515	513	0	0			
5	0	0	0	0	513	511	0	0			
6	0	0	0	0	514	510	0	0			
7	0	0	0	0	514	508	0	0			
8	0	0	0	0	514	507	0	0			
9	0	0	0	0	513	507	0	0			
10	0	0	0	0	513	505	0	0			
11	0	0	0	0	511	503	0	0			
12	0	0	0	0	510	505	0	0			
13	0	0	0	0	513	506	0	0			
14	0	0	0	0	508	505	0	0			
15	0	0	0	0	506	507	0	0			
0	0	0	0	0	505	508	0	0			
1	0	0	0	0	506	508	0	0			
2	0	0	0	0	508	506	0	0			
3	0	0	0	0	508	510	0	0			
4	0	0	0	0	509	509	0	0			
5	0	0	0	0	513	509	0	0			
6	0	0	0	0	513	512	0	0			
7	0	0	0	0	512	512	0	0			
8	0	0	0	0	514	511	0	0			
9	0	0	0	0	515	512	0	0			
10	0	0	0	0	517	510	0	0			
11	0	0	0	0	515	507	0	0			
12	0	0	0	0	513	507	0	0			
13	0	0	0	0	512	506	0	0			
14	0	0	0	0	511	505	0	0			
15	0	0	0	0	511	505	0	0			
0	0	0	0	0	511	505	0	0			
1	0	0	0	0	511	505	0	0			
2	0	0	0	0	509	505	0	0			
3	0	0	0	0	505	507	0	0			
4	0	0	0	0	506	507	0	0			
5	0	0	0	0	506	508	0	0			
6	0	0	0	0	507	507	0	0			
7	0	0	0	0	508	506	0	0			
8	0	0	0	0	510	510	0	0			
9	0	0	0	0	510	509	0	0			
10	0	0	0	0	514	509	0	0			
11	0	0	0	0	514	511	0	0			
12	0	0	0	0	514	514	0	0			
13	0	0	0	0	515	512	0	0			
14	0	0	0	0	515	510	0	0			
15	0	0	0	0	512	509	0	0			
0	0	0	0	0	512	510	0	0			
1	0	0	0	0	512	506	0	0			
2	0	0	0	0	510	506	0	0			
3	0	0	0	0	510	507	0	0			
4	0	0	0	0	512	505	0	0			
5	0	0	0	0	511	505	0	0			
6	0	0	0	0	508	502	0	0			
7	0	0	0	0	507	504	0	0			
8	0	0	0	0	504	505	0	0			
9	0	0	0	0	507	507	0	0			
10	0	0	0	0	508	510	0	0			
11	0	0	0	0	508	508	0	0			
12	0	0	0	0	508	508	0	0			
13	0	0	0	0	511	510	0	0			
14	0	0	0	0	509	510	0	0			
15	0	0	0	0	511	512	0	0			
0	0	0	0	0	514	511	0	0			
1	0	0	0	0	513	510	0	0			
2	0	0	0	0	513	509	0	0			
3	0	0	0	0	512	510	0	0			
4	0	0	0	0	512	506	0	0			
5	0	0	0	0	513	507	0	0			
6	0	0	0	0	512	506	0	0			
7	0	0	0	0	511	504	0	0			
8	0	0	0	0	510	506	0	0			
9	0	0	0	0	509	505	0	0			
10	0	0	0	0	508	504	0	0			
11	0	0	0	0	507	506	0	0			
12	0	0	0	0	506	507	0	0			
13	0	0	0	0	507	507	0	0			
14	0	0	0	0	508	509	0	0			
15	0	0	0	0	508	507	0	0			
0	0	0	0	0	510	510	0	0			
1	0	0	0	0	510	508	0	0			
2	0	0	0	0	511	508	0	0			
3	0	0	0	0	513	512	0	0			
4	0	0	0	0	513	514	0	0			
5	0	0	0	0	515	510	0	0			
6	0	0	0	0	514	511	0	0			
7	0	0	0	0	514	508	0	0			
8	0	0	0	0	513	508	0	0			
9	0	0	0	0	515	507	0	0			
10	0	0	0	0	512	504	0	0			
11	0	0	0	0	512	504	0	0			
12	0	0	0	0	509	506	0	0			
13	0	0	0	0	508	506	0	0			
14	0	0	0	0	508	504	0	0			
15	0	0	0	0	508	505	0	0			
0	0	0	0	0	505	507	0	0			
1	0	0	0	0	508	508	0	0			
2	0	0	0	0	505	507	0	0			
3	0	0	0	0	510	508	0	0			
4	0	0	0	0	508	510	0	0			
5	0	0	0	0	508	508	0	0			
6	0	0	0	0	512	508	0	0			
7	0	0	0	0	515	513	0	0			
8	0	0	0	0	514	512	0	0			
9	0	0	0	0	516	511	0	0			
10	0	0	0	0	512	509	0	0			
11	0	0	0	0	514	510	0	0			
12	0	0	0	0	513	506	0	0			
13	0	0	0	0	513	504	0	0			
14	0	0	0	0	512	505	0	0			
15	0	0	0	0	508	506	0	0			
0	0	0	0	0	511	505	0	0			
1	0	0	0	0	512	504	0	0			
2	0	0	0	0	509	504	0	0			
3	0	0	0	0	508	506	0	0			
4	0	0	0	0	504	504	0	0			
5	0	0	0	0	503	507	0	0			
6	0	0	0	0	507	510	0	0			
7	0	0	0	0	508	508	0	0			
8	0	0	0	0	508	511	0	0			
9	0	0	0	0	510	512	0	0			
10	0	0	0	0	512	509	0	0			
11	0	0	0	0	513	512	0	0			
12	0	0	0	0	514	513	0	0			
13	0	0	0	0	518	512	0	0			
14	0	0	0	0	515	509	0	0			
15	0	0	0	0	513	508	0	0			
0	0	0	0	0	513	506	0	0			
1	0	0	0	0	512	505	0	0			
2	0	0	0	0	512	505	0	0			
3	0	0	0	0	512	504	0	0			
4	0	0	0	0	511	506	0	0			
5	0	0	0	0	511	504	0	0			
6	0	0	0	0	510	506	0	0			
7	0	0	0	0	508	504	0	0			
8	0	0	0	0	508	508	0	0			
9	0	0	0	0	507	506	0	0			
10	0	0	0	0	506	507	0	0			
11	0	0	0	0	505	508	0	0			
12	0	0	0	0	508	511	0	0			
13	0	0	0	0	510	510	0	0			
14	0	0	0	0	515	509	0	0			
15	0	0	0	0	516	511	0	0			
0	0	0	0	0	514	511	0	0			
1	0	0	0	0	514	511	0	0			
2	0	0	0	0	512	509	0	0			
3	0	0	0	0	513	509	0	0			
4	0	0	0	0	514	508	0	0			
5	0	0	0	0	513	507	0	0			
6	0	0	0	0	512	505	0	0			
7	0	0	0	0	509	507	0	0			
8	0	0	0	0	510	507	0	0			
9	0	0	0	0	511	507	0	0			
10	0	0	0	0	509	506	0	0			
11	0	0	0	0	506	505	0	0			
12	0	0	0	0	507	504	0	0			
13	0	0	0	0	507	507	0	0			
14	0	0	0	0	509	507	0	0			
15	0	0	0	0	506	510	0	0			
0	0	0	0	0	508	507	0	0			
1	0	0	0	0	508	510	0	0			
2	0	0	0	0	511	507	0	0			
3	0	0	0	0	512	510	0	0			
4	0	0	0	0	513	512	0	0			
5	0	0	0	0	514	511	0	0			
6	0	0	0	0	516	511	0	0			
7	0	0	0	0	515	508	0	0			
8	0	0	0	0	515	508	0	0			
9	0	0	0	0	514	506	0	0			
10	0	0	0	0	511	506	0	0			
11	0	0	0	0	512	506	0	0			
12	0	0	0	0	510	505	0	0			
13	0	0	0	0	511	505	0	0			
14	0	0	0	0	509	503	0	0			
15	0	0	0	0	505	503	0	0			
0	0	0	0	0	507	504	0	0			
1	0	0	0	0	504	509	0	0			
2	0	0	0	0	506	508	0	0			
3	0	0	0	0	507	508	0	0			
4	0	0	0	0	510	510	0	0			
5	0	0	0	0	511	511	0	0			
6	0	0	0	0	510	510	0	0			
7	0	0	0	0	512	512	0	0			
8	0	0	0	0	513	512	0	0			
9	0	0	0	0	515	512	0	0			
10	0	0	0	0	514	507	0	0			
11	0	0	0	0	512	508	0	0			
12	0	0	0	0	513	508	0	0			
13	0	0	0	0	513	506	0	0			
14	0	0	0	0	512	507	0	0			
15	0	0	0	0	513	507	0	0			
0	0	0	0	0	510	506	0	0			
1	0	0	0	0	509	507	0	0			
2	0	0	0	0	508	504	0	0			
3	0	0	0	0	509	506	0	0			
4	0	0	0	0	509	506	0	0			
5	0	0	0	0	504	507	0	0			
6	0	0	0	0	505	510	0	0			
7	0	0	0	0	507	508	0	0			
8	0	0	0	0	508	509	0	0			
9	0	0	0	0	509	511	0	0			
10	0	0	0	0	512	509	0	0			
11	0	0	0	0	513	511	0	0			
12	0	0	0	0	515	513	0	0			
13	0	0	0	0	518	510	0	0			
14	0	0	0	0	515	510	0	0			
15	0	0	0	0	515	508	0	0			
0	0	0	0	0	513	507	0	0			
1	0	0	0	0	512	507	0	0			
2	0	0	0	0	511	505	0	0			
3	0	0	0	0	513	506	0	0			
4	0	0	0	0	510	506	0	0			
5	0	0	0	0	509	506	0	0			
6	0	0	0	0	510	504	0	0			
7	0	0	0	0	508	506	0	0			
8	0	0	0	0	507	508	0	0			
9	0	0	0	0	507	508	0	0			
10	0	0	0	0	506	508	0	0			
11	0	0	0	0	508	509	0	0			
12	0	0	0	0	511	509	0	0			
13	0	0	0	0	508	508	0	0			
14	0	0	0	0	511	508	0	0			
15	0	0	0	0	512	511	0	0			
0	0	0	0	0	513	513	0	0			
1	0	0	0	0	514	509	0	0			
2	0	0	0	0	515	510	0	0			
3	0	0	0	0	515	507	0	0			
4	0	0	0	0	513	509	0	0			
5	0	0	0	0	512	507	0	0			
6	0	0	0	0	511	506	0	0			
7	0	0	0	0	510	506	0	0			
8	0	0	0	0	510	507	0	0			
9	0	0	0	0	511	506	0	0			
10	0	0	0	0	508	505	0	0			
11	0	0	0	0	507	505	0	0			
12	0	0	0	0	506	507	0	0			
13	0	0	0	0	506	508	0	0			
14	0	0	0	0	507	507	0	0			
15	0	0	0	0	506	508	0	0			
0	0	0	0	0	508	509	0	0			
1	0	0	0	0	510	508	0	0			
2	0	0	0	0	513	508	0	0			
3	0	0	0	0	516	511	0	0			
4	0	0	0	0	515	513	0	0			
5	0	0	0	0	514	511	0	0			
6	0	0	0	0	516	510	0	0			
7	0	0	0	0	512	509	0	0			
8	0	0	0	0	510	507	0	0			
9	0	0	0	0	512	505	0	0			
10	0	0	0	0	512	505	0	0			
11	0	0	0	0	510	506	0	0			
12	0	0	0	0	510	506	0	0			
13	0	0	0	0	510	507	0	0			
14	0	0	0	0	510	506	0	0			
15	0	0	0	0	507	503	0	0			
0	0	0	0	0	506	507	0	0			
1	0	0	0	0	507	508	0	0			
2	0	0	0	0	505	509	0	0			
3	0	0	0	0	509	508	0	0			
4	0	0	0	0	509	508	0	0			
5	0	0	0	0	510	511	0	0			
6	0	0	0	0	512	509	0	0			
7	0	0	0	0	511	512	0	0			
8	0	0	0	0	512	511	0	0			
9	0	0	0	0	514	511	0	0			
10	0	0	0	0	514	510	0	0			
11	0	0	0	0	510	510	0	0			
12	0	0	0	0	517	507	0	0			
13	0	0	0	0	514	506	0	0			
14	0	0	0	0	513	505	0	0			
15	0	0	0	0	512	507	0	0			
0	0	0	0	0	511	506	0	0			
1	0	0	0	0	508	504	0	0			
2	0	0	0	0	508	505	0	0			
3	0	0	0	0	506	503	0	0			
4	0	0	0	0	508	505	0	0			
5	0	0	0	0	507	507	0	0			
6	0	0	0	0	509	508	0	0			
7	0	0	0	0	508	509	0	0			
8	0	0	0	0	509	510	0	0			
9	0	0	0	0	509	510	0	0			
10	0	0	0	0	508	511	0	0			
11	0	0	0	0	512	512	0	0			
12	0	0	0	0	514	511	0	0			
13	0	0	0	0	512	512	0	0			
14	0	0	0	0	515	509	0	0			
15	0	0	0	0	513	510	0	0			
0	0	0	0	0	513	507	0	0			
1	0	0	0	0	513	505	0	0			
2	0	0	0	0	512	506	0	0			
3	0	0	0	0	509	507	0	0			
4	0	0	0	0	508	505	0	0			
5	0	0	0	0	510	506	0	0			
6	0	0	0	0	510	506	0	0			
7	0	0	0	0	511	504	0	0			
8	0	0	0	0	507	507	0	0			
9	0	0	0	0	506	508	0	0			
10	0	0	0	0	505	508	0	0			
11	0	0	0	0	507	508	0	0			
12	0	0	0	0	508	510	0	0			
13	0	0	0	0	509	510	0	0			
14	0	0	0	0	511	510	0	0			
15	0	0	0	0	513	511	0	0			
0	0	0	0	0	513	511	0	0			
1	0	0	0	0	513	511	0	0			
2	0	0	0	0	514	509	0	0			
3	0	0	0	0	515	510	0	0			
4	0	0	0	0	514	508	0	0			
5	0	0	0	0	513	507	0	0			
6	0	0	0	0	511	506	0	0			
7	0	0	0	0	511	505	0	0			
8	0	0	0	0	511	504	0	0			
9	0	0	0	0	509	505	0	0			
10	0	0	0	0	508	505	0	0			
11	0	0	0	0	508	507	0	0			
12	0	0	0	0	508	508	0	0			
13	0	0	0	0	508	507	0	0			
14	0	0	0	0	507	507	0	0			
15	0	0	0	0	508	508	0	0			
0	0	0	0	0	509	509	0	0			
1	0	0	0	0	511	508	0	0			
2	0	0	0	0	511	509	0	0			
3	0	0	0	0	512	512	0	0			
4	0	0	0	0	513	512	0	0			
5	0	0	0	0	513	513	0	0			
6	0	0	0	0	513	510	0	0			
7	0	0	0	0	514	509	0	0			
8	0	0	0	0	512	504	0	0			
9	0	0	0	0	512	508	0	0			
10	0	0	0	0	513	507	0	0			
11	0	0	0	0	511	506	0	0			
12	0	0	0	0	510	506	0	0			
13	0	0	0	0	508	505	0	0			
14	0	0	0	0	507	505	0	0			
15	0	0	0	0	508	506	0	0			
0	0	0	0	0	507	505	0	0			
1	0	0	0	0	508	508	0	0			
2	0	0	0	0	507	508	0	0			
3	0	0	0	0	508	508	0	0			
4	0	0	0	0	510	508	0	0			
5	0	0	0	0	510	512	0	0			
6	0	0	0	0	511	510	0	0			
7	0	0	0	0	511	509	0	0			
8	0	0	0	0	514	513	0	0			
9	0	0	0	0	514	511	0	0			
10	0	0	0	0	513	510	0	0			
11	0	0	0	0	515	508	0	0			
12	0	0	0	0	514	508	0	0			
13	0	0	0	0	513	508	0	0			
14	0	0	0	0	513	506	0	0			
15	0	0	0	0	511	504	0	0			
0	0	0	0	0	511	506	0	0			
1	0	0	0	0	510	505	0	0			
2	0	0	0	0	508	504	0	0			
3	0	0	0	0	508	506	0	0			
4	0	0	0	0	508	505	0	0			
5	0	0	0	0	507	507	0	0			
6	0	0	0	0	506	511	0	0			
7	0	0	0	0	507	509	0	0			
8	0	0	0	0	508	508	0	0			
9	0	0	0	0	509	510	0	0			
10	0	0	0	0	510	512	0	0			
11	0	0	0	0	510	511	0	0			
12	0	0	0	0	514	512	0	0			
13	0	0	0	0	512	510	0	0			
14	0	0	0	0	514	510	0	0			
15	0	0	0	0	514	509	0	0			
0	0	0	0	0	513	508	0	0			
1	0	0	0	0	513	506	0	0			
2	0	0	0	0	511	504	0	0			
3	0	0	0	0	512	505	0	0			
4	0	0	0	0	510	505	0	0			
5	0	0	0	0	511	505	0	0			
6	0	0	0	0	511	505	0	0			
7	0	0	0	0	508	504	0	0			
8	0	0	0	0	508	504	0	0			
9	0	0	0	0	505	509	0	0			
10	0	0	0	0	507	508	0	0			
11	0	0	0	0	507	507	0	0			
12	0	0	0	0	508	509	0	0			
13	0	0	0	0	510	511	0	0			
14	0	0	0	0	512	510	0	0			
15	0	0	0	0	511	510	0	0			
0	0	0	0	0	513	512	0	0			
1	0	0	0	0	514	510	0	0			
2	0	0	0	0	515	511	0	0			
3	0	0	0	0	514	510	0	0			
4	0	0	0	0	516	507	0	0			
5	0	0	0	0	516	507	0	0			
6	0	0	0	0	513	504	0	0			
7	0	0	0	0	512	505	0	0			
8	0	0	0	0	511	506	0	0			
9	0	0	0	0	512	505	0	0			
10	0	0	0	0	507	506	0	0			
11	0	0	0	0	504	505	0	0			
12	0	0	0	0	504	507	0	0			
13	0	0	0	0	505	506	0	0			
14	0	0	0	0	509	509	0	0			
15	0	0	0	0	507	508	0	0			
0	0	0	0	0	511	509	0	0			
1	0	0	0	0	512	508	0	0			
2	0	0	0	0	513	509	0	0			
3	0	0	0	0	511	511	0	0			
4	0	0	0	0	512	512	0	0			
5	0	0	0	0	515	511	0	0			
6	0	0	0	0	515	512	0	0			
7	0	0	0	0	514	508	0	0			
8	0	0	0	0	512	507	0	0			
9	0	0	0	0	511	506	0	0			
10	0	0	0	0	510	507	0	0			
11	0	0	0	0	510	504	0	0			
12	0	0	0	0	510	506	0	0			
13	0	0	0	0	509	506	0	0			
14	0	0	0	0	510	504	0	0			
15	0	0	0	0	505	505	0	0			
0	0	0	0	0	508	506	0	0			
1	0	0	0	0	506	505	0	0			
2	0	0	0	0	508	508	0	0			
3	0	0	0	0	508	509	0	0			
4	0	0	0	0	509	508	0	0			
5	0	0	0	0	508	509	0	0			
6	0	0	0	0	509	509	0	0			
7	0	0	0	0	512	512	0	0			
8	0	0	0	0	514	512	0	0			
9	0	0	0	0	517	512	0	0			
10	0	0	0	0	515	511	0	0			
11	0	0	0	0	514	508	0	0			
12	0	0	0	0	513	508	0	0			
13	0	0	0	0	515	508	0	0			
14	0	0	0	0	512	507	0	0			
15	0	0	0	0	512	507	0	0			
0	0	0	0	0	510	505	0	0			
1	0	0	0	0	510	505	0	0			
2	0	0	0	0	507	504	0	0			
3	0	0	0	0	507	503	0	0			
4	0	0	0	0	507	507	0	0			
5	0	0	0	0	509	506	0	0			
6	0	0	0	0	509	509	0	0			
7	0	0	0	0	508	508	0	0			
8	0	0	0	0	510	511	0	0			
9	0	0	0	0	510	508	0	0			
10	0	0	0	0	509	509	0	0			
11	0	0	0	0	512	510	0	0			
12	0	0	0	0	512	514	0	0			
13	0	0	0	0	514	511	0	0			
14	0	0	0	0	515	508	0	0			
15	0	0	0	0	514	508	0	0			
0	0	0	0	0	513	508	0	0			
1	0	0	0	0	513	506	0	0			
2	0	0	0	0	514	505	0	0			
3	0	0	0	0	512	504	0	0			
4	0	0	0	0	511	505	0	0			
5	0	0	0	0	510	505	0	0			
6	0	0	0	0	506	505	0	0			
7	0	0	0	0	505	508	0	0			
8	0	0	0	0	507	505	0	0			
9	0	0	0	0	507	507	0	0			
10	0	0	0	0	506	511	0	0			
11	0	0	0	0	506	509	0	0			
12	0	0	0	0	509	507	0	0			
13	0	0	0	0	512	508	0	0			
14	0	0	0	0	513	509	0	0			
15	0	0	0	0	512	512	0	0			
0	0	0	0	0	512	513	0	0			
1	0	0	0	0	517	511	0	0			
2	0	0	0	0	514	509	0	0			
3	0	0	0	0	515	508	0	0			
4	0	0	0	0	514	510	0	0			
5	0	0	0	0	512	505	0	0			
6	0	0	0	0	515	505	0	0			
7	0	0	0	0	513	504	0	0			
8	0	0	0	0	510	505	0	0			
9	0	0	0	0	508	505	0	0			
10	0	0	0	0	509	504	0	0			
11	0	0	0	0	506	505	0	0			
12	0	0	0	0	504	505	0	0			
13	0	0	0	0	506	509	0	0			
14	0	0	0	0	509	508	0	0			
15	0	0	0	0	509	510	0	0			
0	0	0	0	0	510	509	0	0			
1	0	0	0	0	512	509	0	0			
2	0	0	0	0	512	510	0	0			
3	0	0	0	0	512	511	0	0			
4	0	0	0	0	510	511	0	0			
5	0	0	0	0	513	513	0	0			
6	0	0	0	0	515	509	0	0			
7	0	0	0	0	513	510	0	0			
8	0	0	0	0	513	507	0	0			
9	0	0	0	0	513	505	0	0			
10	0	0	0	0	509	505	0	0			
11	0	0	0	0	508	504	0	0			
12	0	0	0	0	510	505	0	0			
13	0	0	0	0	510	505	0	0			
14	0	0	0	0	509	506	0	0			
15	0	0	0	0	505	506	0	0			
0	0	0	0	0	505	507	0	0			
1	0	0	0	0	505	507	0	0			
2	0	0	0	0	508	508	0	0			
3	0	0	0	0	508	508	0	0			
4	0	0	0	0	511	510	0	0			
5	0	0	0	0	513	511	0	0			
6	0	0	0	0	513	511	0	0			
7	0	0	0	0	515	511	0	0			
8	0	0	0	0	512	513	0	0			
9	0	0	0	0	515	511	0	0			
10	0	0	0	0	514	511	0	0			
11	0	0	0	0	514	508	0	0			
12	0	0	0	0	514	507	0	0			
13	0	0	0	0	515	506	0	0			
14	0	0	0	0	514	506	0	0			
15	0	0	0	0	510	505	0	0			
0	0	0	0	0	510	505	0	0			
1	0	0	0	0	511	504	0	0			
2	0	0	0	0	509	503	0	0			
3	0	0	0	0	507	505	0	0			
4	0	0	0	0	506	507	0	0			
5	0	0	0	0	506	505	0	0			
6	0	0	0	0	505	508	0	0			
7	0	0	0	0	508	508	0	0			
8	0	0	0	0	508	509	0	0			
9	0	0	0	0	511	510	0	0			
10	0	0	0	0	510	509	0	0			
11	0	0	0	0	511	510	0	0			
12	0	0	0	0	513	511	0	0			
13	0	0	0	0	516	512	0	0			
14	0	0	0	0	515	509	0	0			
15	0	0	0	0	517	510	0	0			
0	0	0	0	0	512	507	0	0			
1	0	0	0	0	515	508	0	0			
2	0	0	0	0	510	506	0	0			
3	0	0	0	0	509	505	0	0			
4	0	0	0	0	509	506	0	0			
5	0	0	0	0	511	505	0	0			
6	0	0	0	0	508	505	0	0			
7	0	0	0	0	508	504	0	0			
8	0	0	0	0	507	507	0	0			
9	0	0	0	0	508	508	0	0			
10	0	0	0	0	507	509	0	0			
11	0	0	0	0	506	508	0	0			
12	0	0	0	0	507	510	0	0			
13	0	0	0	0	510	511	0	0			
14	0	0	0	0	512	512	0	0			
15	0	0	0	0	510	513	0	0			
0	0	0	0	0	512	510	0	0			
1	0	0	0	0	516	509	0	0			
2	0	0	0	0	514	508	0	0			
3	0	0	0	0	516	507	0	0			
4	0	0	0	0	515	508	0	0			
5	0	0	0	0	512	508	0	0			
6	0	0	0	0	512	505	0	0			
7	0	0	0	0	512	507	0	0			
8	0	0	0	0	514	508	0	0			
9	0	0	0	0	511	505	0	0			
10	0	0	0	0	509	504	0	0			
11	0	0	0	0	507	506	0	0			
12	0	0	0	0	505	506	0	0			
13	0	0	0	0	507	507	0	0			
14	0	0	0	0	505	507	0	0			
15	0	0	0	0	505	509	0	0			
0	0	0	0	0	510	509	0	0			
1	0	0	0	0	510	508	0	0			
2	0	0	0	0	510	509	0	0			
3	0	0	0	0	511	510	0	0			
4	0	0	0	0	514	512	0	0			
5	0	0	0	0	515	512	0	0			
6	0	0	0	0	513	509	0	0			
7	0	0	0	0	514	505	0	0			
8	0	0	0	0	513	508	0	0			
9	0	0	0	0	515	506	0	0			
10	0	0	0	0	513	505	0	0			
11	0	0	0	0	510	506	0	0			
12	0	0	0	0	510	505	0	0			
13	0	0	0	0	509	507	0	0			
14	0	0	0	0	507	506	0	0			
15	0	0	0	0	508	505	0	0			
0	0	0	0	0	506	507	0	0			
1	0	0	0	0	508	508	0	0			
2	0	0	0	0	508	508	0	0			
3	0	0	0	0	508	508	0	0			
4	0	0	0	0	510	508	0	0			
5	0	0	0	0	508	509	0	0			
6	0	0	0	0	509	511	0	0			
7	0	0	0	0	514	512	0	0			
8	0	0	0	0	511	514	0	0			
9	0	0	0	0	515	511	0	0			
10	0	0	0	0	516	510	0	0			
11	0	0	0	0	516	508	0	0			
12	0	0	0	0	515	507	0	0			
13	0	0	0	0	513	507	0	0			
14	0	0	0	0	513	508	0	0			
15	0	0	0	0	512	508	0	0			
0	0	0	0	0	511	506	0	0			
1	0	0	0	0	508	507	0	0			
2	0	0	0	0	509	504	0	0			
3	0	0	0	0	506	507	0	0			
4	0	0	0	0	507	507	0	0			
5	0	0	0	0	507	505	0	0			
6	0	0	0	0	507	508	0	0			
7	0	0	0	0	508	508	0	0			
8	0	0	0	0	510	509	0	0			
9	0	0	0	0	512	509	0	0			
10	0	0	0	0	513	509	0	0			
11	0	0	0	0	515	511	0	0			
12	0	0	0	0	515	511	0	0			
13	0	0	0	0	512	511	0	0			
14	0	0	0	0	515	511	0	0			
15	0	0	0	0	515	510	0	0			
0	0	0	0	0	512	510	0	0			
1	0	0	0	0	509	507	0	0			
2	0	0	0	0	511	508	0	0			
3	0	0	0	0	510	507	0	0			
4	0	0	0	0	507	505	0	0			
5	0	0	0	0	512	505	0	0			
6	0	0	0	0	508	505	0	0			
7	0	0	0	0	506	504	0	0			
8	0	0	0	0	504	506	0	0			
9	0	0	0	0	508	508	0	0			
10	0	0	0	0	508	507	0	0			
11	0	0	0	0	508	508	0	0			
12	0	0	0	0	508	510	0	0			
13	0	0	0	0	509	510	0	0			
14	0	0	0	0	511	509	0	0			
15	0	0	0	0	515	511	0	0			
0	0	0	0	0	513	512	0	0			
1	0	0	0	0	515	511	0	0			
2	0	0	0	0	514	510	0	0			
3	0	0	0	0	515	508	0	0			
4	0	0	0	0	514	508	0	0			
5	0	0	0	0	513	508	0	0			
6	0	0	0	0	512	506	0	0			
7	0	0	0	0	512	503	0	0			
8	0	0	0	0	508	505	0	0			
9	0	0	0	0	508	504	0	0			
10	0	0	0	0	508	504	0	0			
11	0	0	0	0	506	507	0	0			
12	0	0	0	0	507	507	0	0			
13	0	0	0	0	508	508	0	0			
14	0	0	0	0	509	507	0	0			
15	0	0	0	0	505	508	0	0			
0	0	0	0	0	508	511	0	0			
1	0	0	0	0	509	510	0	0			
2	0	0	0	0	511	510	0	0			
3	0	0	0	0	513	512	0	0			
4	0	0	0	0	515	513	0	0			
5	0	0	0	0	515	509	0	0			
6	0	0	0	0	518	508	0	0			
7	0	0	0	0	516	508	0	0			
8	0	0	0	0	513	507	0	0			
9	0	0	0	0	512	507	0	0			
10	0	0	0	0	514	506	0	0			
11	0	0	0	0	515	505	0	0			
12	0	0	0	0	512	506	0	0			
13	0	0	0	0	509	507	0	0			
14	0	0	0	0	506	507	0	0			
15	0	0	0	0	505	505	0	0			
0	0	0	0	0	506	505	0	0			
1	0	0	0	0	507	507	0	0			
2	0	0	0	0	506	508	0	0			
3	0	0	0	0	507	510	0	0			
4	0	0	0	0	509	508	0	0			
5	0	0	0	0	510	509	0	0			
6	0	0	0	0	514	511	0	0			
7	0	0	0	0	511	511	0	0			
8	0	0	0	0	513	511	0	0			
9	0	0	0	0	514	511	0	0			
10	0	0	0	0	512	510	0	0			
11	0	0	0	0	513	508	0	0			
12	0	0	0	0	515	506	0	0			
13	0	0	0	0	515	505	0	0			
14	0	0	0	0	515	507	0	0			
15	0	0	0	0	511	506	0	0			
0	0	0	0	0	510	508	0	0			
1	0	0	0	0	511	507	0	0			
2	0	0	0	0	509	506	0	0			
3	0	0	0	0	508	504	0	0			
4	0	0	0	0	507	507	0	0			
5	0	0	0	0	508	505	0	0			
6	0	0	0	0	506	509	0	0			
7	0	0	0	0	504	510	0	0			
8	0	0	0	0	507	511	0	0			
9	0	0	0	0	507	510	0	0			
10	0	0	0	0	510	511	0	0			
11	0	0	0	0	512	510	0	0			
12	0	0	0	0	512	513	0	0			
13	0	0	0	0	516	509	0	0			
14	0	0	0	0	515	508	0	0			
15	0	0	0	0	515	506	0	0			
0	0	0	0	0	514	508	0	0			
1	0	0	0	0	512	508	0	0			
2	0	0	0	0	512	506	0	0			
3	0	0	0	0	511	505	0	0			
4	0	0	0	0	508	506	0	0			
5	0	0	0	0	509	506	0	0			
6	0	0	0	0	509	507	0	0			
7	0	0	0	0	509	503	0	0			
8	0	0	0	0	506	506	0	0			
9	0	0	0	0	508	507	0	0			
10	0	0	0	0	508	508	0	0			
11	0	0	0	0	505	509	0	0			
12	0	0	0	0	507	509	0	0			
13	0	0	0	0	510	509	0	0			
14	0	0	0	0	510	510	0	0			
15	0	0	0	0	515	511	0	0			
0	0	0	0	0	513	511	0	0			
1	0	0	0	0	517	510	0	0			
2	0	0	0	0	518	508	0	0			
3	0	0	0	0	516	508	0	0			
4	0	0	0	0	513	505	0	0			
5	0	0	0	0	513	506	0	0			
6	0	0	0	0	512	508	0	0			
7	0	0	0	0	512	506	0	0			
8	0	0	0	0	511	507	0	0			
9	0	0	0	0	508	506	0	0			
10	0	0	0	0	506	505	0	0			
11	0	0	0	0	507	506	0	0			
12	0	0	0	0	506	507	0	0			
13	0	0	0	0	506	507	0	0			
14	0	0	0	0	507	508	0	0			
15	0	0	0	0	509	507	0	0			
0	0	0	0	0	511	511	0	0			
1	0	0	0	0	512	509	0	0			
2	0	0	0	0	511	508	0	0			
3	0	0	0	0	512	513	0	0			
4	0	0	0	0	511	511	0	0			
5	0	0	0	0	511	513	0	0			
6	0	0	0	0	515	510	0	0			
7	0	0	0	0	515	510	0	0			
8	0	0	0	0	513	507	0	0			
9	0	0	0	0	511	506	0	0			
10	0	0	0	0	513	505	0	0			
11	0	0	0	0	512	507	0	0			
12	0	0	0	0	511	505	0	0			
13	0	0	0	0	510	505	0	0			
14	0	0	0	0	508	503	0	0			
15	0	0	0	0	505	505	0	0			
0	0	0	0	0	507	507	0	0			
1	0	0	0	0	509	508	0	0			
2	0	0	0	0	507	509	0	0			
3	0	0	0	0	508	508	0	0			
4	0	0	0	0	510	508	0	0			
5	0	0	0	0	510	511	0	0			
6	0	0	0	0	510	511	0	0			
7	0	0	0	0	510	511	0	0			
8	0	0	0	0	513	512	0	0			
9	0	0	0	0	514	511	0	0			
10	0	0	0	0	517	509	0	0			
11	0	0	0	0	515	508	0	0			
12	0	0	0	0	515	507	0	0			
13	0	0	0	0	515	506	0	0			
14	0	0	0	0	514	506	0	0			
15	0	0	0	0	508	508	0	0			
0	0	0	0	0	509	506	0	0			
1	0	0	0	0	510	505	0	0			
2	0	0	0	0	507	504	0	0			
3	0	0	0	0	508	504	0	0			
4	0	0	0	0	506	505	0	0			
5	0	0	0	0	506	508	0	0			
6	0	0	0	0	508	508	0	0			
7	0	0	0	0	511	508	0	0			
8	0	0	0	0	508	509	0	0			
9	0	0	0	0	510	510	0	0			
10	0	0	0	0	511	511	0	0			
11	0	0	0	0	510	511	0	0			
12	0	0	0	0	513	511	0	0			
13	0	0	0	0	515	512	0	0			
14	0	0	0	0	514	508	0	0			
15	0	0	0	0	514	508	0	0			
0	0	0	0	0	515	508	0	0			
1	0	0	0	0	513	507	0	0			
2	0	0	0	0	511	504	0	0			
3	0	0	0	0	509	505	0	0			
4	0	0	0	0	510	508	0	0			
5	0	0	0	0	509	507	0	0			
6	0	0	0	0	507	506	0	0			
7	0	0	0	0	506	504	0	0			
8	0	0	0	0	505	506	0	0			
9	0	0	0	0	507	508	0	0			
10	0	0	0	0	508	509	0	0			
11	0	0	0	0	508	509	0	0			
12	0	0	0	0	509	510	0	0			
13	0	0	0	0	513	510	0	0			
14	0	0	0	0	511	510	0	0			
15	0	0	0	0	512	510	0	0			
0	0	0	0	0	511	511	0	0			
1	0	0	0	0	513	510	0	0			
2	0	0	0	0	515	511	0	0			
3	0	0	0	0	513	508	0	0			
4	0	0	0	0	515	507	0	0			
5	0	0	0	0	514	507	0	0			
6	0	0	0	0	515	507	0	0			
7	0	0	0	0	513	506	0	0			
8	0	0	0	0	510	505	0	0			
9	0	0	0	0	509	506	0	0			
10	0	0	0	0	508	504	0	0			
11	0	0	0	0	508	504	0	0			
12	0	0	0	0	503	505	0	0			
13	0	0	0	0	508	507	0	0			
14	0	0	0	0	507	508	0	0			
15	0	0	0	0	509	508	0	0			
0	0	0	0	0	510	509	0	0			
1	0	0	0	0	510	511	0	0			
2	0	0	0	0	510	510	0	0			
3	0	0	0	0	512	512	0	0			
4	0	0	0	0	512	515	0	0			
5	0	0	0	0	514	510	0	0			
6	0	0	0	0	516	509	0	0			
7	0	0	0	0	513	508	0	0			
8	0	0	0	0	515	507	0	0			
9	0	0	0	0	511	506	0	0			
10	0	0	0	0	512	507	0	0			
11	0	0	0	0	512	505	0	0			
12	0	0	0	0	508	506	0	0			
13	0	0	0	0	511	505	0	0			
14	0	0	0	0	509	505	0	0			
15	0	0	0	0	508	504	0	0			
0	0	0	0	0	509	507	0	0			
1	0	0	0	0	507	507	0	0			
2	0	0	0	0	510	510	0	0			
3	0	0	0	0	507	510	0	0			
4	0	0	0	0	510	510	0	0			
5	0	0	0	0	510	508	0	0			
6	0	0	0	0	509	511	0	0			
7	0	0	0	0	509	511	0	0			
8	0	0	0	0	514	512	0	0			
9	0	0	0	0	516	512	0	0			
10	0	0	0	0	514	510	0	0			
11	0	0	0	0	514	509	0	0			
12	0	0	0	0	514	509	0	0			
13	0	0	0	0	514	507	0	0			
14	0	0	0	0	511	506	0	0			
15	0	0	0	0	512	504	0	0			
0	0	0	0	0	512	505	0	0			
1	0	0	0	0	511	506	0	0			
2	0	0	0	0	510	505	0	0			
3	0	0	0	0	507	504	0	0			
4	0	0	0	0	508	505	0	0			
5	0	0	0	0	508	507	0	0			
6	0	0	0	0	507	509	0	0			
7	0	0	0	0	508	508	0	0			
8	0	0	0	0	510	509	0	0			
9	0	0	0	0	510	510	0	0			
10	0	0	0	0	511	512	0	0			
11	0	0	0	0	515	511	0	0			
12	0	0	0	0	513	511	0	0			
13	0	0	0	0	512	510	0	0			
14	0	0	0	0	512	508	0	0			
15	0	0	0	0	512	508	0	0			
0	0	0	0	0	512	506	0	0			
1	0	0	0	0	511	505	0	0			
2	0	0	0	0	512	507	0	0			
3	0	0	0	0	512	506	0	0			
4	0	0	0	0	510	507	0	0			
5	0	0	0	0	510	507	0	0			
6	0	0	0	0	510	507	0	0			
7	0	0	0	0	507	506	0	0			
8	0	0	0	0	505	506	0	0			
9	0	0	0	0	505	506	0	0			
10	0	0	0	0	504	508	0	0			
11	0	0	0	0	508	509	0	0			
12	0	0	0	0	510	508	0	0			
13	0	0	0	0	511	509	0	0			
14	0	0	0	0	513	510	0	0			
15	0	0	0	0	513	512	0	0			
0	0	0	0	0	510	513	0	0			
1	0	0	0	0	514	511	0	0			
2	0	0	0	0	514	511	0	0			
3	0	0	0	0	514	510	0	0			
4	0	0	0	0	515	508	0	0			
5	0	0	0	0	512	507	0	0			
6	0	0	0	0	511	506	0	0			
7	0	0	0	0	512	503	0	0			
8	0	0	0	0	510	507	0	0			
9	0	0	0	0	510	505	0	0			
10	0	0	0	0	505	506	0	0			
11	0	0	0	0	505	504	0	0			
12	0	0	0	0	505	504	0	0			
13	0	0	0	0	506	508	0	0			
14	0	0	0	0	509	507	0	0			
15	0	0	0	0	510	510	0	0			
0	0	0	0	0	506	511	0	0			
1	0	0	0	0	508	509	0	0			
2	0	0	0	0	509	510	0	0			
3	0	0	0	0	512	513	0	0			
4	0	0	0	0	511	514	0	0			
5	0	0	0	0	514	514	0	0			
6	0	0	0	0	515	509	0	0			
7	0	0	0	0	516	507	0	0			
8	0	0	0	0	514	505	0	0			
9	0	0	0	0	511	504	0	0			
10	0	0	0	0	512	506	0	0			
11	0	0	0	0	512	505	0	0			
12	0	0	0	0	508	504	0	0			
13	0	0	0	0	512	505	0	0			
14	0	0	0	0	509	507	0	0			
15	0	0	0	0	507	503	0	0			
0	0	0	0	0	505	505	0	0			
1	0	0	0	0	507	507	0	0			
2	0	0	0	0	509	507	0	0			
3	0	0	0	0	509	510	0	0			
4	0	0	0	0	509	510	0	0			
5	0	0	0	0	513	508	0	0			
6	0	0	0	0	510	510	0	0			
7	0	0	0	0	510	509	0	0			
8	0	0	0	0	515	512	0	0			
9	0	0	0	0	515	510	0	0			
10	0	0	0	0	515	510	0	0			
11	0	0	0	0	514	508	0	0			
12	0	0	0	0	516	508	0	0			
13	0	0	0	0	513	508	0	0			
14	0	0	0	0	511	507	0	0			
15	0	0	0	0	508	506	0	0			
0	0	0	0	0	509	507	0	0			
1	0	0	0	0	512	506	0	0			
2	0	0	0	0	508	504	0	0			
3	0	0	0	0	509	504	0	0			
4	0	0	0	0	508	505	0	0			
5	0	0	0	0	507	508	0	0			
6	0	0	0	0	505	508	0	0			
7	0	0	0	0	508	508	0	0			
8	0	0	0	0	510	510	0	0			
9	0	0	0	0	509	508	0	0			
10	0	0	0	0	511	510	0	0			
11	0	0	0	0	513	510	0	0			
12	0	0	0	0	511	510	0	0			
13	0	0	0	0	514	511	0	0			
14	0	0	0	0	513	508	0	0			
15	0	0	0	0	512	508	0	0			
0	0	0	0	0	511	508	0	0			
1	0	0	0	0	512	507	0	0			
2	0	0	0	0	512	505	0	0			
3	0	0	0	0	515	505	0	0			
4	0	0	0	0	510	505	0	0			
5	0	0	0	0	512	505	0	0			
6	0	0	0	0	511	504	0	0			
7	0	0	0	0	507	505	0	0			
8	0	0	0	0	508	506	0	0			
9	0	0	0	0	509	507	0	0			
10	0	0	0	0	506	508	0	0			
11	0	0	0	0	505	509	0	0			
12	0	0	0	0	508	510	0	0			
13	0	0	0	0	510	510	0	0			
14	0	0	0	0	511	511	0	0			
15	0	0	0	0	514	510	0	0			
0	0	0	0	0	513	512	0	0			
1	0	0	0	0	515	513	0	0			
2	0	0	0	0	515	508	0	0			
3	0	0	0	0	515	508	0	0			
4	0	0	0	0	514	510	0	0			
5	0	0	0	0	514	504	0	0			
6	0	0	0	0	511	506	0	0			
7	0	0	0	0	511	505	0	0			
8	0	0	0	0	510	507	0	0			
9	0	0	0	0	510	506	0	0			
10	0	0	0	0	509	504	0	0			
11	0	0	0	0	507	504	0	0			
12	0	0	0	0	504	504	0	0			
13	0	0	0	0	505	505	0	0			
14	0	0	0	0	511	507	0	0			
15	0	0	0	0	509	509	0	0			
0	0	0	0	0	508	508	0	0			
1	0	0	0	0	507	510	0	0			
2	0	0	0	0	507	511	0	0			
3	0	0	0	0	509	512	0	0			
4	0	0	0	0	512	512	0	0			
5	0	0	0	0	513	512	0	0			
6	0	0	0	0	514	510	0	0			
7	0	0	0	0	514	508	0	0			
8	0	0	0	0	513	507	0	0			
9	0	0	0	0	512	507	0	0			
10	0	0	0	0	514	505	0	0			
11	0	0	0	0	511	505	0	0			
12	0	0	0	0	510	507	0	0			
13	0	0	0	0	511	505	0	0			
14	0	0	0	0	508	505	0	0			
15	0	0	0	0	509	505	0	0			
0	0	0	0	0	507	504	0	0			
1	0	0	0	0	505	505	0	0			
2	0	0	0	0	509	510	0	0			
3	0	0	0	0	508	508	0	0			
4	0	0	0	0	507	510	0	0			
5	0	0	0	0	509	509	0	0			
6	0	0	0	0	510	510	0	0			
7	0	0	0	0	510	513	0	0			
8	0	0	0	0	511	513	0	0			
9	0	0	0	0	513	514	0	0			
10	0	0	0	0	514	510	0	0			
11	0	0	0	0	514	508	0	0			
12	0	0	0	0	512	506	0	0			
13	0	0	0	0	512	504	0	0			
14	0	0	0	0	510	506	0	0			
15	0	0	0	0	511	506	0	0			
0	0	0	0	0	513	506	0	0			
1	0	0	0	0	512	507	0	0			
2	0	0	0	0	511	503	0	0			
3	0	0	0	0	509	505	0	0			
4	0	0	0	0	507	505	0	0			
5	0	0	0	0	509	506	0	0			
6	0	0	0	0	508	508	0	0			
7	0	0	0	0	509	509	0	0			
8	0	0	0	0	508	510	0	0			
9	0	0	0	0	508	510	0	0			
10	0	0	0	0	509	511	0	0			
11	0	0	0	0	511	510	0	0			
12	0	0	0	0	513	513	0	0			
13	0	0	0	0	513	510	0	0			
14	0	0	0	0	515	509	0	0			
15	0	0	0	0	514	507	0	0			
0	0	0	0	0	515	508	0	0			
1	0	0	0	0	513	507	0	0			
2	0	0	0	0	512	505	0	0			
3	0	0	0	0	512	504	0	0			
4	0	0	0	0	510	507	0	0			
5	0	0	0	0	510	505	0	0			
6	0	0	0	0	509	505	0	0			
7	0	0	0	0	506	504	0	0			
8	0	0	0	0	507	506	0	0			
9	0	0	0	0	507	507	0	0			
10	0	0	0	0	507	511	0	0			
11	0	0	0	0	507	509	0	0			
12	0	0	0	0	509	511	0	0			
13	0	0	0	0	508	508	0	0			
14	0	0	0	0	508	509	0	0			
15	0	0	0	0	512	511	0	0			
0	0	0	0	0	515	513	0	0			
1	0	0	0	0	514	511	0	0			
2	0	0	0	0	513	510	0	0			
3	0	0	0	0	515	509	0	0			
4	0	0	0	0	515	505	0	0			
5	0	0	0	0	515	505	0	0			
6	0	0	0	0	514	507	0	0			
7	0	0	0	0	513	506	0	0			
8	0	0	0	0	512	504	0	0			
9	0	0	0	0	512	507	0	0			
10	0	0	0	0	511	505	0	0			
11	0	0	0	0	507	504	0	0			
12	0	0	0	0	505	508	0	0			
13	0	0	0	0	504	508	0	0			
14	0	0	0	0	504	510	0	0			
15	0	0	0	0	508	508	0	0			
0	0	0	0	0	508	510	0	0			
1	0	0	0	0	511	508	0	0			
2	0	0	0	0	512	509	0	0			
3	0	0	0	0	513	511	0	0			
4	0	0	0	0	518	511	0	0			
5	0	0	0	0	516	512	0	0			
6	0	0	0	0	514	510	0	0			
7	0	0	0	0	514	508	0	0			
8	0	0	0	0	513	508	0	0			
9	0	0	0	0	511	506	0	0			
10	0	0	0	0	514	507	0	0			
11	0	0	0	0	512	506	0	0			
12	0	0	0	0	510	507	0	0			
13	0	0	0	0	508	504	0	0			
14	0	0	0	0	508	505	0	0			
15	0	0	0	0	506	505	0	0			
0	0	0	0	0	505	508	0	0			
1	0	0	0	0	508	506	0	0			
2	0	0	0	0	506	507	0	0			
3	0	0	0	0	507	508	0	0			
4	0	0	0	0	508	509	0	0			
5	0	0	0	0	511	511	0	0			
6	0	0	0	0	511	511	0	0			
7	0	0	0	0	512	511	0	0			
8	0	0	0	0	514	513	0	0			
9	0	0	0	0	515	511	0	0			
10	0	0	0	0	515	508	0	0			
11	0	0	0	0	516	509	0	0			
12	0	0	0	0	514	506	0	0			
13	0	0	0	0	514	506	0	0			
14	0	0	0	0	513	507	0	0			
15	0	0	0	0	513	506	0	0			
0	0	0	0	0	511	506	0	0			
1	0	0	0	0	510	506	0	0			
2	0	0	0	0	509	504	0	0			
3	0	0	0	0	504	505	0	0			
4	0	0	0	0	504	506	0	0			
5	0	0	0	0	506	508	0	0			
6	0	0	0	0	507	509	0	0			
7	0	0	0	0	508	511	0	0			
8	0	0	0	0	512	508	0	0			
9	0	0	0	0	510	510	0	0			
10	0	0	0	0	510	509	0	0			
11	0	0	0	0	511	510	0	0			
12	0	0	0	0	511	513	0	0			
13	0	0	0	0	513	511	0	0			
14	0	0	0	0	516	510	0	0			
15	0	0	0	0	513	509	0	0			
0	0	0	0	0	512	508	0	0			
1	0	0	0	0	513	507	0	0			
2	0	0	0	0	512	507	0	0			
3	0	0	0	0	512	506	0	0			
4	0	0	0	0	512	508	0	0			
5	0	0	0	0	510	504	0	0			
6	0	0	0	0	508	504	0	0			
7	0	0	0	0	507	504	0	0			
8	0	0	0	0	508	507	0	0			
9	0	0	0	0	508	506	0	0			
10	0	0	0	0	508	507	0	0			
11	0	0	0	0	509	508	0	0			
12	0	0	0	0	510	508	0	0			
13	0	0	0	0	511	510	0	0			
14	0	0	0	0	513	511	0	0			
15	0	0	0	0	512	511	0	0			
0	0	0	0	0	513	513	0	0			
1	0	0	0	0	513	512	0	0			
2	0	0	0	0	513	509	0	0			
3	0	0	0	0	513	508	0	0			
4	0	0	0	0	514	507	0	0			
5	0	0	0	0	517	505	0	0			
6	0	0	0	0	511	505	0	0			
7	0	0	0	0	508	506	0	0			
8	0	0	0	0	511	507	0	0			
9	0	0	0	0	510	508	0	0			
10	0	0	0	0	507	504	0	0			
11	0	0	0	0	506	504	0	0			
12	0	0	0	0	506	505	0	0			
13	0	0	0	0	506	508	0	0			
14	0	0	0	0	505	510	0	0			
15	0	0	0	0	507	510	0	0			
0	0	0	0	0	508	509	0	0			
1	0	0	0	0	509	510	0	0			
2	0	0	0	0	510	512	0	0			
3	0	0	0	0	513	511	0	0			
4	0	0	0	0	513	510	0	0			
5	0	0	0	0	516	510	0	0			
6	0	0	0	0	513	508	0	0			
7	0	0	0	0	515	508	0	0			
8	0	0	0	0	513	508	0	0			
9	0	0	0	0	513	505	0	0			
10	0	0	0	0	512	506	0	0			
11	0	0	0	0	512	506	0	0			
12	0	0	0	0	512	506	0	0			
13	0	0	0	0	512	504	0	0			
14	0	0	0	0	512	503	0	0			
15	0	0	0	0	509	505	0	0			
0	0	0	0	0	506	507	0	0			
1	0	0	0	0	505	507	0	0			
2	0	0	0	0	507	512	0	0			
3	0	0	0	0	507	511	0	0			
4	0	0	0	0	508	509	0	0			
5	0	0	0	0	508	508	0	0			
6	0	0	0	0	511	510	0	0			
7	0	0	0	0	513	510	0	0			
8	0	0	0	0	514	512	0	0			
9	0	0	0	0	513	512	0	0			
10	0	0	0	0	515	510	0	0			
11	0	0	0	0	515	508	0	0			
12	0	0	0	0	513	508	0	0			
13	0	0	0	0	514	507	0	0			
14	0	0	0	0	511	507	0	0			
15	0	0	0	0	513	507	0	0			
0	0	0	0	0	512	507	0	0			
1	0	0	0	0	510	506	0	0			
2	0	0	0	0	508	505	0	0			
3	0	0	0	0	506	506	0	0			
4	0	0	0	0	505	505	0	0			
5	0	0	0	0	507	507	0	0			
6	0	0	0	0	506	504	0	0			
7	0	0	0	0	510	508	0	0			
8	0	0	0	0	509	509	0	0			
9	0	0	0	0	508	508	0	0			
10	0	0	0	0	510	508	0	0			
11	0	0	0	0	514	512	0	0			
12	0	0	0	0	514	513	0	0			
13	0	0	0	0	518	511	0	0			
14	0	0	0	0	516	513	0	0			
15	0	0	0	0	511	507	0	0			
0	0	0	0	0	512	508	0	0			
1	0	0	0	0	512	507	0	0			
2	0	0	0	0	512	505	0	0			
3	0	0	0	0	510	507	0	0			
4	0	0	0	0	509	505	0	0			
5	0	0	0	0	511	507	0	0			
6	0	0	0	0	508	503	0	0			
7	0	0	0	0	508	508	0	0			
8	0	0	0	0	506	505	0	0			
9	0	0	0	0	504	507	0	0			
10	0	0	0	0	505	509	0	0			
11	0	0	0	0	508	508	0	0			
12	0	0	0	0	510	510	0	0			
13	0	0	0	0	511	507	0	0			
14	0	0	0	0	510	509	0	0			
15	0	0	0	0	512	512	0	0			
0	0	0	0	0	515	510	0	0			
1	0	0	0	0	517	512	0	0			
2	0	0	0	0	512	509	0	0			
3	0	0	0	0	512	506	0	0			
4	0	0	0	0	515	509	0	0			
5	0	0	0	0	515	506	0	0			
6	0	0	0	0	511	506	0	0			
7	0	0	0	0	511	505	0	0			
8	0	0	0	0	508	508	0	0			
9	0	0	0	0	508	504	0	0			
10	0	0	0	0	510	504	0	0			
11	0	0	0	0	508	504	0	0			
12	0	0	0	0	505	505	0	0			
13	0	0	0	0	506	507	0	0			
14	0	0	0	0	507	505	0	0			
15	0	0	0	0	508	508	0	0			
0	0	0	0	0	508	509	0	0			
1	0	0	0	0	509	512	0	0			
2	0	0	0	0	510	513	0	0			
3	0	0	0	0	512	513	0	0			
4	0	0	0	0	513	511	0	0			
5	0	0	0	0	515	511	0	0			
6	0	0	0	0	515	511	0	0			
7	0	0	0	0	515	506	0	0			
8	0	0	0	0	517	508	0	0			
9	0	0	0	0	512	507	0	0			
10	0	0	0	0	515	505	0	0			
11	0	0	0	0	510	504	0	0			
12	0	0	0	0	511	505	0	0			
13	0	0	0	0	509	506	0	0			
14	0	0	0	0	507	503	0	0			
15	0	0	0	0	504	506	0	0			
0	0	0	0	0	505	507	0	0			
1	0	0	0	0	506	507	0	0			
2	0	0	0	0	506	509	0	0			
3	0	0	0	0	508	509	0	0			
4	0	0	0	0	508	511	0	0			
5	0	0	0	0	512	509	0	0			
6	0	0	0	0	511	511	0	0			
7	0	0	0	0	512	511	0	0			
8	0	0	0	0	515	512	0	0			
9	0	0	0	0	517	511	0	0			
10	0	0	0	0	515	510	0	0			
11	0	0	0	0	514	505	0	0			
12	0	0	0	0	515	507	0	0			
13	0	0	0	0	513	508	0	0			
14	0	0	0	0	514	506	0	0			
15	0	0	0	0	511	507	0	0			
0	0	0	0	0	510	505	0	0			
1	0	0	0	0	510	505	0	0			
2	0	0	0	0	507	503	0	0			
3	0	0	0	0	507	506	0	0			
4	0	0	0	0	504	506	0	0			
5	0	0	0	0	505	507	0	0			
6	0	0	0	0	504	509	0	0			
7	0	0	0	0	507	509	0	0			
8	0	0	0	0	508	508	0	0			
9	0	0	0	0	510	510	0	0			
10	0	0	0	0	511	511	0	0			
11	0	0	0	0	515	513	0	0			
12	0	0	0	0	515	510	0	0			
13	0	0	0	0	514	510	0	0			
14	0	0	0	0	515	511	0	0			
15	0	0	0	0	514	508	0	0			
0	0	0	0	0	515	507	0	0			
1	0	0	0	0	515	505	0	0			
2	0	0	0	0	511	505	0	0			
3	0	0	0	0	509	506	0	0			
4	0	0	0	0	512	506	0	0			
5	0	0	0	0	511	505	0	0			
6	0	0	0	0	508	505	0	0			
7	0	0	0	0	508	504	0	0			
8	0	0	0	0	504	507	0	0			
9	0	0	0	0	507	507	0	0			
10	0	0	0	0	507	509	0	0			
11	0	0	0	0	505	512	0	0			
12	0	0	0	0	508	508	0	0			
13	0	0	0	0	510	509	0	0			
14	0	0	0	0	513	510	0	0			
15	0	0	0	0	512	512	0	0			
0	0	0	0	0	515	515	0	0			
1	0	0	0	0	515	512	0	0			
2	0	0	0	0	515	508	0	0			
3	0	0	0	0	514	506	0	0			
4	0	0	0	0	511	507	0	0			
5	0	0	0	0	510	507	0	0			
6	0	0	0	0	512	505	0	0			
7	0	0	0	0	513	507	0	0			
8	0	0	0	0	510	505	0	0			
9	0	0	0	0	509	505	0	0			
10	0	0	0	0	512	504	0	0			
11	0	0	0	0	508	504	0	0			
12	0	0	0	0	507	506	0	0			
13	0	0	0	0	507	507	0	0			
14	0	0	0	0	506	507	0	0			
15	0	0	0	0	508	508	0	0			
0	0	0	0	0	507	509	0	0			
1	0	0	0	0	509	510	0	0			
2	0	0	0	0	510	510	0	0			
3	0	0	0	0	512	512	0	0			
4	0	0	0	0	514	512	0	0			
5	0	0	0	0	516	511	0	0			
6	0	0	0	0	515	508	0	0			
7	0	0	0	0	514	508	0	0			
8	0	0	0	0	511	508	0	0			
9	0	0	0	0	511	508	0	0			
10	0	0	0	0	511	507	0	0			
11	0	0	0	0	511	506	0	0			
12	0	0	0	0	511	506	0	0			
13	0	0	0	0	510	505	0	0			
14	0	0	0	0	509	504	0	0			
15	0	0	0	0	506	503	0	0			
0	0	0	0	0	508	507	0	0			
1	0	0	0	0	508	507	0	0			
2	0	0	0	0	510	508	0	0			
3	0	0	0	0	507	509	0	0			
4	0	0	0	0	508	509	0	0			
5	0	0	0	0	510	510	0	0			
6	0	0	0	0	509	510	0	0			
7	0	0	0	0	511	512	0	0			
8	0	0	0	0	510	514	0	0			
9	0	0	0	0	515	512	0	0			
10	0	0	0	0	515	509	0	0			
11	0	0	0	0	513	508	0	0			
12	0	0	0	0	515	508	0	0			
13	0	0	0	0	514	507	0	0			
14	0	0	0	0	515	505	0	0			
15	0	0	0	0	515	506	0	0			
0	0	0	0	0	511	504	0	0			
1	0	0	0	0	510	506	0	0			
2	0	0	0	0	509	504	0	0			
3	0	0	0	0	508	504	0	0			
4	0	0	0	0	504	506	0	0			
5	0	0	0	0	505	505	0	0			
6	0	0	0	0	506	508	0	0			
7	0	0	0	0	505	510	0	0			
8	0	0	0	0	509	509	0	0			
9	0	0	0	0	510	510	0	0			
10	0	0	0	0	513	509	0	0			
11	0	0	0	0	514	511	0	0			
12	0	0	0	0	514	514	0	0			
13	0	0	0	0	515	512	0	0			
14	0	0	0	0	514	510	0	0			
15	0	0	0	0	515	509	0	0			
0	0	0	0	0	515	508	0	0			
1	0	0	0	0	513	506	0	0			
2	0	0	0	0	513	506	0	0			
3	0	0	0	0	510	506	0	0			
4	0	0	0	0	509	505	0	0			
5	0	0	0	0	512	504	0	0			
6	0	0	0	0	510	504	0	0			
7	0	0	0	0	510	505	0	0			
8	0	0	0	0	506	508	0	0			
9	0	0	0	0	506	507	0	0			
10	0	0	0	0	505	508	0	0			
11	0	0	0	0	505	509	0	0			
12	0	0	0	0	508	511	0	0			
13	0	0	0	0	510	511	0	0			
14	0	0	0	0	512	510	0	0			
15	0	0	0	0	510	511	0	0			
0	0	0	0	0	513	510	0	0			
1	0	0	0	0	516	510	0	0			
2	0	0	0	0	515	509	0	0			
3	0	0	0	0	515	507	0	0			
4	0	0	0	0	514	507	0	0			
5	0	0	0	0	515	505	0	0			
6	0	0	0	0	511	504	0	0			
7	0	0	0	0	512	505	0	0			
8	0	0	0	0	509	507	0	0			
9	0	0	0	0	510	507	0	0			
10	0	0	0	0	509	503	0	0			
11	0	0	0	0	507	504	0	0			
12	0	0	0	0	506	504	0	0			
13	0	0	0	0	506	508	0	0			
14	0	0	0	0	507	508	0	0			
15	0	0	0	0	508	507	0	0			
0	0	0	0	0	510	510	0	0			
1	0	0	0	0	509	510	0	0			
2	0	0	0	0	510	509	0	0			
3	0	0	0	0	512	509	0	0			
4	0	0	0	0	513	513	0	0			
5	0	0	0	0	515	512	0	0			
6	0	0	0	0	517	510	0	0			
7	0	0	0	0	512	510	0	0			
8	0	0	0	0	514	507	0	0			
9	0	0	0	0	513	507	0	0			
10	0	0	0	0	513	505	0	0			
11	0	0	0	0	511	507	0	0			
12	0	0	0	0	512	506	0	0			
13	0	0	0	0	510	506	0	0			
14	0	0	0	0	508	505	0	0			
15	0	0	0	0	507	505	0	0			
0	0	0	0	0	508	507	0	0			
1	0	0	0	0	507	506	0	0			
2	0	0	0	0	507	507	0	0			
3	0	0	0	0	507	508	0	0			
4	0	0	0	0	507	510	0	0			
5	0	0	0	0	508	508	0	0			
6	0	0	0	0	512	510	0	0			
7	0	0	0	0	511	512	0	0			
8	0	0	0	0	512	510	0	0			
9	0	0	0	0	516	513	0	0			
10	0	0	0	0	515	510	0	0			
11	0	0	0	0	516	508	0	0			
12	0	0	0	0	516	507	0	0			
13	0	0	0	0	515	505	0	0			
14	0	0	0	0	512	505	0	0			
15	0	0	0	0	508	507	0	0			
0	0	0	0	0	505	505	0	0			
1	0	0	0	0	508	507	0	0			
2	0	0	0	0	506	507	0	0			
3	0	0	0	0	507	505	0	0			
4	0	0	0	0	507	507	0	0			
5	0	0	0	0	508	505	0	0			
6	0	0	0	0	508	508	0	0			
7	0	0	0	0	509	506	0	0			
8	0	0	0	0	508	508	0	0			
9	0	0	0	0	508	509	0	0			
10	0	0	0	0	510	512	0	0			
11	0	0	0	0	514	511	0	0			
12	0	0	0	0	514	512	0	0			
13	0	0	0	0	516	510	0	0			
14	0	0	0	0	518	509	0	0			
15	0	0	0	0	517	508	0	0			
0	0	0	0	0	515	506	0	0			
1	0	0	0	0	510	505	0	0			
2	0	0	0	0	510	507	0	0			
3	0	0	0	0	509	507	0	0			
4	0	0	0	0	511	507	0	0			
5	0	0	0	0	510	507	0	0			
6	0	0	0	0	508	504	0	0			
7	0	0	0	0	507	506	0	0			
8	0	0	0	0	507	506	0	0			
9	0	0	0	0	508	507	0	0			
10	0	0	0	0	506	506	0	0			
11	0	0	0	0	508	511	0	0			
12	0	0	0	0	508	509	0	0			
13	0	0	0	0	509	510	0	0			
14	0	0	0	0	510	509	0	0			
15	0	0	0	0	512	512	0	0			
0	0	0	0	0	514	512	0	0			
1	0	0	0	0	515	512	0	0			
2	0	0	0	0	516	512	0	0			
3	0	0	0	0	514	509	0	0			
4	0	0	0	0	515	509	0	0			
5	0	0	0	0	511	506	0	0			
6	0	0	0	0	511	506	0	0			
7	0	0	0	0	509	504	0	0			
8	0	0	0	0	508	505	0	0			
9	0	0	0	0	508	505	0	0			
10	0	0	0	0	508	504	0	0			
11	0	0	0	0	508	505	0	0			
12	0	0	0	0	507	506	0	0			
13	0	0	0	0	505	505	0	0			
14	0	0	0	0	508	508	0	0			
15	0	0	0	0	509	508	0	0			
0	0	0	0	0	509	509	0	0			
1	0	0	0	0	509	509	0	0			
2	0	0	0	0	510	511	0	0			
3	0	0	0	0	512	510	0	0			
4	0	0	0	0	514	510	0	0			
5	0	0	0	0	515	513	0	0			
6	0	0	0	0	515	511	0	0			
7	0	0	0	0	516	508	0	0			
8	0	0	0	0	515	507	0	0			
9	0	0	0	0	515	506	0	0			
10	0	0	0	0	513	507	0	0			
11	0	0	0	0	511	504	0	0			
12	0	0	0	0	509	507	0	0			
13	0	0	0	0	511	506	0	0			
14	0	0	0	0	508	506	0	0			
15	0	0	0	0	508	505	0	0			
0	0	0	0	0	506	504	0	0			
1	0	0	0	0	508	507	0	0			
2	0	0	0	0	507	507	0	0			
3	0	0	0	0	508	508	0	0			
4	0	0	0	0	508	511	0	0			
5	0	0	0	0	510	510	0	0			
6	0	0	0	0	510	512	0	0			
7	0	0	0	0	510	510	0	0			
8	0	0	0	0	514	513	0	0			
9	0	0	0	0	514	510	0	0			
10	0	0	0	0	515	510	0	0			
11	0	0	0	0	514	508	0	0			
12	0	0	0	0	512	505	0	0			
13	0	0	0	0	511	508	0	0			
14	0	0	0	0	512	508	0	0			
15	0	0	0	0	511	505	0	0			
0	0	0	0	0	510	507	0	0			
1	0	0	0	0	510	505	0	0			
2	0	0	0	0	511	505	0	0			
3	0	0	0	0	508	504	0	0			
4	0	0	0	0	505	507	0	0			
5	0	0	0	0	504	507	0	0			
6	0	0	0	0	508	508	0	0			
7	0	0	0	0	508	509	0	0			
8	0	0	0	0	510	510	0	0			
9	0	0	0	0	509	508	0	0			
10	0	0	0	0	511	512	0	0			
11	0	0	0	0	512	512	0	0			
12	0	0	0	0	513	511	0	0			
13	0	0	0	0	514	511	0	0			
14	0	0	0	0	515	508	0	0			
15	0	0	0	0	515	505	0	0			
0	0	0	0	0	515	508	0	0			
1	0	0	0	0	514	506	0	0			
2	0	0	0	0	512	506	0	0			
3	0	0	0	0	511	507	0	0			
4	0	0	0	0	510	507	0	0			
5	0	0	0	0	512	505	0	0			
6	0	0	0	0	511	504	0	0			
7	0	0	0	0	507	504	0	0			
8	0	0	0	0	507	505	0	0			
9	0	0	0	0	507	507	0	0			
10	0	0	0	0	508	508	0	0			
11	0	0	0	0	511	509	0	0			
12	0	0	0	0	508	510	0	0			
13	0	0	0	0	508	511	0	0			
14	0	0	0	0	510	512	0	0			
15	0	0	0	0	511	511	0	0			
0	0	0	0	0	511	512	0	0			
1	0	0	0	0	513	511	0	0			
2	0	0	0	0	514	510	0	0			
3	0	0	0	0	514	507	0	0			
4	0	0	0	0	513	507	0	0			
5	0	0	0	0	513	506	0	0			
6	0	0	0	0	514	505	0	0			
7	0	0	0	0	513	505	0	0			
8	0	0	0	0	512	507	0	0			
9	0	0	0	0	510	505	0	0			
10	0	0	0	0	511	504	0	0			
11	0	0	0	0	508	505	0	0			
12	0	0	0	0	508	506	0	0			
13	0	0	0	0	506	506	0	0			
14	0	0	0	0	505	508	0	0			
15	0	0	0	0	505	509	0	0			
0	0	0	0	0	506	510	0	0			
1	0	0	0	0	508	510	0	0			
2	0	0	0	0	511	510	0	0			
3	0	0	0	0	512	510	0	0			
4	0	0	0	0	513	512	0	0			
5	0	0	0	0	513	511	0	0			
6	0	0	0	0	516	508	0	0			
7	0	0	0	0	513	508	0	0			
8	0	0	0	0	509	508	0	0			
9	0	0	0	0	512	506	0	0			
10	0	0	0	0	514	507	0	0			
11	0	0	0	0	511	506	0	0			
12	0	0	0	0	511	506	0	0			
13	0	0	0	0	510	507	0	0			
14	0	0	0	0	510	505	0	0			
15	0	0	0	0	508	505	0	0			
0	0	0	0	0	506	506	0	0			
1	0	0	0	0	506	506	0	0			
2	0	0	0	0	505	509	0	0			
3	0	0	0	0	504	508	0	0			
4	0	0	0	0	510	509	0	0			
5	0	0	0	0	508	510	0	0			
6	0	0	0	0	512	510	0	0			
7	0	0	0	0	513	513	0	0			
8	0	0	0	0	515	511	0	0			
9	0	0	0	0	516	512	0	0			
10	0	0	0	0	514	509	0	0			
11	0	0	0	0	515	509	0	0			
12	0	0	0	0	512	508	0	0			
13	0	0	0	0	511	508	0	0			
14	0	0	0	0	513	506	0	0			
15	0	0	0	0	512	506	0	0			
0	0	0	0	0	511	508	0	0			
1	0	0	0	0	510	504	0	0			
2	0	0	0	0	511	504	0	0			
3	0	0	0	0	507	505	0	0			
4	0	0	0	0	504	505	0	0			
5	0	0	0	0	504	505	0	0			
6	0	0	0	0	506	508	0	0			
7	0	0	0	0	504	509	0	0			
8	0	0	0	0	509	509	0	0			
9	0	0	0	0	512	508	0	0			
10	0	0	0	0	512	508	0	0			
11	0	0	0	0	514	511	0	0			
12	0	0	0	0	514	512	0	0			
13	0	0	0	0	515	510	0	0			
14	0	0	0	0	517	510	0	0			
15	0	0	0	0	517	508	0	0			
0	0	0	0	0	515	508	0	0			
1	0	0	0	0	513	507	0	0			
2	0	0	0	0	515	505	0	0			
3	0	0	0	0	510	506	0	0			
4	0	0	0	0	508	506	0	0			
5	0	0	0	0	507	504	0	0			
6	0	0	0	0	505	504	0	0			
7	0	0	0	0	506	504	0	0			
8	0	0	0	0	506	506	0	0			
9	0	0	0	0	507	508	0	0			
10	0	0	0	0	504	508	0	0			
11	0	0	0	0	506	508	0	0			
12	0	0	0	0	507	510	0	0			
13	0	0	0	0	509	509	0	0			
14	0	0	0	0	512	511	0	0			
15	0	0	0	0	511	513	0	0			
0	0	0	0	0	512	513	0	0			
1	0	0	0	0	515	512	0	0			
2	0	0	0	0	515	508	0	0			
3	0	0	0	0	515	508	0	0			
4	0	0	0	0	515	507	0	0			
5	0	0	0	0	517	506	0	0			
6	0	0	0	0	512	507	0	0			
7	0	0	0	0	511	505	0	0			
8	0	0	0	0	511	506	0	0			
9	0	0	0	0	511	505	0	0			
10	0	0	0	0	510	503	0	0			
11	0	0	0	0	507	505	0	0			
12	0	0	0	0	506	504	0	0			
13	0	0	0	0	507	511	0	0			
14	0	0	0	0	509	509	0	0			
15	0	0	0	0	508	508	0	0			
0	0	0	0	0	508	507	0	0			
1	0	0	0	0	509	509	0	0			
2	0	0	0	0	512	510	0	0			
3	0	0	0	0	511	511	0	0			
4	0	0	0	0	514	512	0	0			
5	0	0	0	0	513	513	0	0			
6	0	0	0	0	513	511	0	0			
7	0	0	0	0	513	509	0	0			
8	0	0	0	0	512	508	0	0			
9	0	0	0	0	516	505	0	0			
10	0	0	0	0	513	505	0	0			
11	0	0	0	0	512	505	0	0			
12	0	0	0	0	511	505	0	0			
13	0	0	0	0	511	506	0	0			
14	0	0	0	0	509	504	0	0			
15	0	0	0	0	508	503	0	0			
0	0	0	0	0	508	507	0	0			
1	0	0	0	0	506	509	0	0			
2	0	0	0	0	507	508	0	0			
3	0	0	0	0	507	508	0	0			
4	0	0	0	0	508	511	0	0			
5	0	0	0	0	508	511	0	0			
6	0	0	0	0	509	511	0	0			
7	0	0	0	0	513	511	0	0			
8	0	0	0	0	513	514	0	0			
9	0	0	0	0	515	511	0	0			
10	0	0	0	0	512	507	0	0			
11	0	0	0	0	512	509	0	0			
12	0	0	0	0	512	505	0	0			
13	0	0	0	0	513	505	0	0			
14	0	0	0	0	513	505	0	0			
15	0	0	0	0	512	505	0	0			
0	0	0	0	0	509	505	0	0			
1	0	0	0	0	513	505	0	0			
2	0	0	0	0	509	504	0	0			
3	0	0	0	0	510	505	0	0			
4	0	0	0	0	506	505	0	0			
5	0	0	0	0	507	508	0	0			
6	0	0	0	0	508	510	0	0			
7	0	0	0	0	508	509	0	0			
8	0	0	0	0	509	509	0	0			
9	0	0	0	0	512	510	0	0			
10	0	0	0	0	511	510	0	0			
11	0	0	0	0	510	510	0	0			
12	0	0	0	0	512	512	0	0			
13	0	0	0	0	516	513	0	0			
14	0	0	0	0	515	510	0	0			
15	0	0	0	0	515	511	0	0			
0	0	0	0	0	514	506	0	0			
1	0	0	0	0	513	505	0	0			
2	0	0	0	0	512	505	0	0			
3	0	0	0	0	510	504	0	0			
4	0	0	0	0	512	506	0	0			
5	0	0	0	0	511	506	0	0			
6	0	0	0	0	509	504	0	0			
7	0	0	0	0	505	505	0	0			
8	0	0	0	0	505	506	0	0			
9	0	0	0	0	508	507	0	0			
10	0	0	0	0	506	507	0	0			
11	0	0	0	0	507	508	0	0			
12	0	0	0	0	507	509	0	0			
13	0	0	0	0	509	507	0	0			
14	0	0	0	0	511	509	0	0			
15	0	0	0	0	512	512	0	0			
0	0	0	0	0	513	511	0	0			
1	0	0	0	0	517	512	0	0			
2	0	0	0	0	516	509	0	0			
3	0	0	0	0	514	508	0	0			
4	0	0	0	0	515	508	0	0			
5	0	0	0	0	513	507	0	0			
6	0	0	0	0	513	508	0	0			
7	0	0	0	0	511	507	0	0			
8	0	0	0	0	510	506	0	0			
9	0	0	0	0	508	504	0	0			
10	0	0	0	0	509	504	0	0			
11	0	0	0	0	507	503	0	0			
12	0	0	0	0	507	505	0	0			
13	0	0	0	0	508	508	0	0			
14	0	0	0	0	506	507	0	0			
15	0	0	0	0	505	509	0	0			
0	0	0	0	0	506	510	0	0			
1	0	0	0	0	509	509	0	0			
2	0	0	0	0	509	510	0	0			
3	0	0	0	0	513	511	0	0			
4	0	0	0	0	513	512	0	0			
5	0	0	0	0	515	514	0	0			
6	0	0	0	0	514	511	0	0			
7	0	0	0	0	514	509	0	0			
8	0	0	0	0	515	508	0	0			
9	0	0	0	0	514	505	0	0			
10	0	0	0	0	513	507	0	0			
11	0	0	0	0	510	506	0	0			
12	0	0	0	0	513	505	0	0			
13	0	0	0	0	510	506	0	0			
14	0	0	0	0	507	504	0	0			
15	0	0	0	0	508	505	0	0			
0	0	0	0	0	505	507	0	0			
1	0	0	0	0	505	507	0	0			
2	0	0	0	0	507	507	0	0			
3	0	0	0	0	508	506	0	0			
4	0	0	0	0	508	510	0	0			
5	0	0	0	0	510	508	0	0			
6	0	0	0	0	512	511	0	0			
7	0	0	0	0	509	511	0	0			
8	0	0	0	0	512	512	0	0			
9	0	0	0	0	513	512	0	0			
10	0	0	0	0	515	509	0	0			
11	0	0	0	0	516	508	0	0			
12	0	0	0	0	515	508	0	0			
13	0	0	0	0	513	506	0	0			
14	0	0	0	0	510	505	0	0			
15	0	0	0	0	511	505	0	0			
0	0	0	0	0	511	506	0	0			
1	0	0	0	0	512	507	0	0			
2	0	0	0	0	511	505	0	0			
3	0	0	0	0	508	505	0	0			
4	0	0	0	0	507	507	0	0			
5	0	0	0	0	504	509	0	0			
6	0	0	0	0	507	507	0	0			
7	0	0	0	0	507	509	0	0			
8	0	0	0	0	507	510	0	0			
9	0	0	0	0	509	510	0	0			
10	0	0	0	0	510	510	0	0			
11	0	0	0	0	512	510	0	0			
12	0	0	0	0	512	510	0	0			
13	0	0	0	0	516	512	0	0			
14	0	0	0	0	514	509	0	0			
15	0	0	0	0	514	510	0	0			
0	0	0	0	0	515	507	0	0			
1	0	0	0	0	514	508	0	0			
2	0	0	0	0	515	506	0	0			
3	0	0	0	0	516	506	0	0			
4	0	0	0	0	510	505	0	0			
5	0	0	0	0	510	509	0	0			
6	0	0	0	0	510	505	0	0			
7	0	0	0	0	508	504	0	0			
8	0	0	0	0	508	506	0	0			
9	0	0	0	0	504	508	0	0			
10	0	0	0	0	504	508	0	0			
11	0	0	0	0	507	510	0	0			
12	0	0	0	0	508	509	0	0			
13	0	0	0	0	508	508	0	0			
14	0	0	0	0	509	510	0	0			
15	0	0	0	0	510	510	0	0			
0	0	0	0	0	512	512	0	0			
1	0	0	0	0	514	512	0	0			
2	0	0	0	0	515	510	0	0			
3	0	0	0	0	513	508	0	0			
4	0	0	0	0	514	507	0	0			
5	0	0	0	0	512	506	0	0			
6	0	0	0	0	514	505	0	0			
7	0	0	0	0	512	505	0	0			
8	0	0	0	0	511	504	0	0			
9	0	0	0	0	512	505	0	0			
10	0	0	0	0	510	505	0	0			
11	0	0	0	0	508	505	0	0			
12	0	0	0	0	507	505	0	0			
13	0	0	0	0	508	505	0	0			
14	0	0	0	0	508	509	0	0			
15	0	0	0	0	506	507	0	0			
0	0	0	0	0	508	510	0	0			
1	0	0	0	0	509	510	0	0			
2	0	0	0	0	511	511	0	0			
3	0	0	0	0	513	510	0	0			
4	0	0	0	0	512	511	0	0			
5	0	0	0	0	515	511	0	0			
6	0	0	0	0	515	508	0	0			
7	0	0	0	0	515	510	0	0			
8	0	0	0	0	515	508	0	0			
9	0	0	0	0	516	507	0	0			
10	0	0	0	0	513	507	0	0			
11	0	0	0	0	511	505	0	0			
12	0	0	0	0	510	506	0	0			
13	0	0	0	0	510	505	0	0			
14	0	0	0	0	507	502	0	0			
15	0	0	0	0	507	504	0	0			
0	0	0	0	0	505	505	0	0			
1	0	0	0	0	507	507	0	0			
2	0	0	0	0	507	508	0	0			
3	0	0	0	0	508	508	0	0			
4	0	0	0	0	509	510	0	0			
5	0	0	0	0	510	510	0	0			
6	0	0	0	0	510	510	0	0			
7	0	0	0	0	511	511	0	0			
8	0	0	0	0	512	512	0	0			
9	0	0	0	0	512	512	0	0			
10	0	0	0	0	513	513	0	0			
11	0	0	0	0	517	510	0	0			
12	0	0	0	0	515	508	0	0			
13	0	0	0	0	515	506	0	0			
14	0	0	0	0	514	506	0	0			
15	0	0	0	0	510	507	0	0			
0	0	0	0	0	512	505	0	0			
1	0	0	0	0	509	505	0	0			
2	0	0	0	0	507	504	0	0			
3	0	0	0	0	507	505	0	0			
4	0	0	0	0	505	505	0	0			
5	0	0	0	0	508	508	0	0			
6	0	0	0	0	508	507	0	0			
7	0	0	0	0	507	507	0	0			
8	0	0	0	0	507	510	0	0			
9	0	0	0	0	510	511	0	0			
10	0	0	0	0	512	510	0	0			
11	0	0	0	0	512	510	0	0			
12	0	0	0	0	513	513	0	0			
13	0	0	0	0	514	512	0	0			
14	0	0	0	0	515	509	0	0			
15	0	0	0	0	517	508	0	0			
0	0	0	0	0	514	507	0	0			
1	0	0	0	0	513	507	0	0			
2	0	0	0	0	514	504	0	0			
3	0	0	0	0	512	507	0	0			
4	0	0	0	0	512	507	0	0			
5	0	0	0	0	509	506	0	0			
6	0	0	0	0	509	504	0	0			
7	0	0	0	0	507	505	0	0			
8	0	0	0	0	508	505	0	0			
9	0	0	0	0	506	506	0	0			
10	0	0	0	0	509	508	0	0			
11	0	0	0	0	508	509	0	0			
12	0	0	0	0	510	509	0	0			
13	0	0	0	0	509	508	0	0			
14	0	0	0	0	509	510	0	0			
15	0	0	0	0	511	512	0	0			
0	0	0	0	0	510	513	0	0			
1	0	0	0	0	512	511	0	0			
2	0	0	0	0	512	508	0	0			
3	0	0	0	0	515	508	0	0			
4	0	0	0	0	514	507	0	0			
5	0	0	0	0	515	508	0	0			
6	0	0	0	0	511	506	0	0			
7	0	0	0	0	512	506	0	0			
8	0	0	0	0	512	508	0	0			
9	0	0	0	0	511	505	0	0			
10	0	0	0	0	508	505	0	0			
11	0	0	0	0	506	506	0	0			
12	0	0	0	0	506	506	0	0			
13	0	0	0	0	507	507	0	0			
14	0	0	0	0	506	507	0	0			
15	0	0	0	0	506	509	0	0			
0	0	0	0	0	508	508	0	0			
1	0	0	0	0	508	510	0	0			
2	0	0	0	0	512	509	0	0			
3	0	0	0	0	513	511	0	0			
4	0	0	0	0	513	511	0	0			
5	0	0	0	0	512	510	0	0			
6	0	0	0	0	516	510	0	0			
7	0	0	0	0	516	509	0	0			
8	0	0	0	0	517	508	0	0			
9	0	0	0	0	515	507	0	0			
10	0	0	0	0	512	505	0	0			
11	0	0	0	0	510	506	0	0			
12	0	0	0	0	512	506	0	0			
13	0	0	0	0	511	505	0	0			
14	0	0	0	0	509	507	0	0			
15	0	0	0	0	506	505	0	0			
0	0	0	0	0	507	506	0	0			
1	0	0	0	0	507	507	0	0			
2	0	0	0	0	509	508	0	0			
3	0	0	0	0	508	507	0	0			
4	0	0	0	0	510	509	0	0			
5	0	0	0	0	508	511	0	0			
6	0	0	0	0	510	510	0	0			
7	0	0	0	0	514	511	0	0			
8	0	0	0	0	513	513	0	0			
9	0	0	0	0	515	510	0	0			
10	0	0	0	0	513	511	0	0			
11	0	0	0	0	518	508	0	0			
12	0	0	0	0	514	506	0	0			
13	0	0	0	0	512	508	0	0			
14	0	0	0	0	513	509	0	0			
15	0	0	0	0	512	506	0	0			
0	0	0	0	0	510	506	0	0			
1	0	0	0	0	511	504	0	0			
2	0	0	0	0	511	504	0	0			
3	0	0	0	0	509	505	0	0			
4	0	0	0	0	509	504	0	0			
5	0	0	0	0	508	506	0	0			
6	0	0	0	0	504	508	0	0			
7	0	0	0	0	503	508	0	0			
8	0	0	0	0	508	509	0	0			
9	0	0	0	0	509	508	0	0			
10	0	0	0	0	509	510	0	0			
11	0	0	0	0	511	512	0	0			
12	0	0	0	0	515	513	0	0			
13	0	0	0	0	513	511	0	0			
14	0	0	0	0	514	509	0	0			
15	0	0	0	0	515	508	0	0			
0	0	0	0	0	515	509	0	0			
1	0	0	0	0	515	507	0	0			
2	0	0	0	0	512	505	0	0			
3	0	0	0	0	510	505	0	0			
4	0	0	0	0	509	506	0	0			
5	0	0	0	0	508	504	0	0			
6	0	0	0	0	508	504	0	0			
7	0	0	0	0	508	503	0	0			
8	0	0	0	0	507	505	0	0			
9	0	0	0	0	508	507	0	0			
10	0	0	0	0	507	510	0	0			
11	0	0	0	0	505	508	0	0			
12	0	0	0	0	508	510	0	0			
13	0	0	0	0	510	511	0	0			
14	0	0	0	0	512	509	0	0			
15	0	0	0	0	511	511	0	0			
0	0	0	0	0	515	512	0	0			
1	0	0	0	0	515	512	0	0			
2	0	0	0	0	514	509	0	0			
3	0	0	0	0	515	509	0	0			
4	0	0	0	0	516	508	0	0			
5	0	0	0	0	512	506	0	0			
6	0	0	0	0	515	505	0	0			
7	0	0	0	0	512	505	0	0			
8	0	0	0	0	509	505	0	0			
9	0	0	0	0	508	507	0	0			
10	0	0	0	0	507	505	0	0			
11	0	0	0	0	507	503	0	0			
12	0	0	0	0	508	505	0	0			
13	0	0	0	0	508	508	0	0			
14	0	0	0	0	506	508	0	0			
15	0	0	0	0	507	509	0	0			
0	0	0	0	0	509	509	0	0			
1	0	0	0	0	511	510	0	0			
2	0	0	0	0	512	509	0	0			
3	0	0	0	0	508	511	0	0			
4	0	0	0	0	512	512	0	0			
5	0	0	0	0	518	512	0	0			
6	0	0	0	0	515	509	0	0			
7	0	0	0	0	515	506	0	0			
8	0	0	0	0	513	508	0	0			
9	0	0	0	0	514	508	0	0			
10	0	0	0	0	513	506	0	0			
11	0	0	0	0	514	505	0	0			
12	0	0	0	0	512	506	0	0			
13	0	0	0	0	510	505	0	0			
14	0	0	0	0	508	505	0	0			
15	0	0	0	0	507	504	0	0			
0	0	0	0	0	507	507	0	0			
1	0	0	0	0	507	508	0	0			
2	0	0	0	0	507	508	0	0			
3	0	0	0	0	508	509	0	0			
4	0	0	0	0	507	510	0	0			
5	0	0	0	0	509	511	0	0			
6	0	0	0	0	510	511	0	0			
7	0	0	0	0	512	511	0	0			
8	0	0	0	0	516	512	0	0			
9	0	0	0	0	514	512	0	0			
10	0	0	0	0	514	510	0	0			
11	0	0	0	0	515	508	0	0			
12	0	0	0	0	515	507	0	0			
13	0	0	0	0	510	507	0	0			
14	0	0	0	0	513	506	0	0			
15	0	0	0	0	512	504	0	0			
0	0	0	0	0	509	505	0	0			
1	0	0	0	0	508	506	0	0			
2	0	0	0	0	508	505	0	0			
3	0	0	0	0	508	503	0	0			
4	0	0	0	0	508	507	0	0			
5	0	0	0	0	506	509	0	0			
6	0	0	0	0	506	508	0	0			
7	0	0	0	0	504	510	0	0			
8	0	0	0	0	508	509	0	0			
9	0	0	0	0	512	508	0	0			
10	0	0	0	0	510	509	0	0			
11	0	0	0	0	511	512	0	0			
12	0	0	0	0	512	512	0	0			
13	0	0	0	0	514	512	0	0			
14	0	0	0	0	515	511	0	0			
15	0	0	0	0	519	509	0	0			
0	0	0	0	0	514	508	0	0			
1	0	0	0	0	511	508	0	0			
2	0	0	0	0	510	505	0	0			
3	0	0	0	0	510	504	0	0			
4	0	0	0	0	508	507	0	0			
5	0	0	0	0	505	507	0	0			
6	0	0	0	0	508	505	0	0			
7	0	0	0	0	507	506	0	0			
8	0	0	0	0	510	506	0	0			
9	0	0	0	0	508	506	0	0			
10	0	0	0	0	508	508	0	0			
11	0	0	0	0	507	510	0	0			
12	0	0	0	0	510	508	0	0			
13	0	0	0	0	509	510	0	0			
14	0	0	0	0	510	511	0	0			
15	0	0	0	0	511	512	0	0			
0	0	0	0	0	515	512	0	0			
1	0	0	0	0	516	511	0	0			
2	0	0	0	0	515	510	0	0			
3	0	0	0	0	513	509	0	0			
4	0	0	0	0	512	506	0	0			
5	0	0	0	0	514	505	0	0			
6	0	0	0	0	511	507	0	0			
7	0	0	0	0	514	505	0	0			
8	0	0	0	0	510	506	0	0			
9	0	0	0	0	510	506	0	0			
10	0	0	0	0	508	504	0	0			
11	0	0	0	0	509	504	0	0			
12	0	0	0	0	506	506	0	0			
13	0	0	0	0	506	508	0	0			
14	0	0	0	0	504	507	0	0			
15	0	0	0	0	507	509	0	0			
0	0	0	0	0	508	510	0	0			
1	0	0	0	0	510	510	0	0			
2	0	0	0	0	512	510	0	0			
3	0	0	0	0	514	510	0	0			
4	0	0	0	0	515	511	0	0			
5	0	0	0	0	517	511	0	0			
6	0	0	0	0	515	509	0	0			
7	0	0	0	0	514	507	0	0			
8	0	0	0	0	514	509	0	0			
9	0	0	0	0	514	508	0	0			
10	0	0	0	0	515	506	0	0			
11	0	0	0	0	513	506	0	0			
12	0	0	0	0	510	507	0	0			
13	0	0	0	0	508	506	0	0			
14	0	0	0	0	506	504	0	0			
15	0	0	0	0	505	506	0	0			
0	0	0	0	0	505	507	0	0			
1	0	0	0	0	505	506	0	0			
2	0	0	0	0	510	508	0	0			
3	0	0	0	0	509	508	0	0			
4	0	0	0	0	508	509	0	0			
5	0	0	0	0	511	512	0	0			
6	0	0	0	0	510	510	0	0			
7	0	0	0	0	511	510	0	0			
8	0	0	0	0	513	510	0	0			
9	0	0	0	0	517	510	0	0			
10	0	0	0	0	518	508	0	0			
11	0	0	0	0	515	508	0	0			
12	0	0	0	0	515	508	0	0			
13	0	0	0	0	511	507	0	0			
14	0	0	0	0	508	508	0	0			
15	0	0	0	0	507	507	0	0			
0	0	0	0	0	508	506	0	0			
1	0	0	0	0	511	504	0	0			
2	0	0	0	0	509	502	0	0			
3	0	0	0	0	507	503	0	0			
4	0	0	0	0	509	507	0	0			
5	0	0	0	0	507	506	0	0			
6	0	0	0	0	509	506	0	0			
7	0	0	0	0	508	509	0	0			
8	0	0	0	0	510	510	0	0			
9	0	0	0	0	510	509	0	0			
10	0	0	0	0	511	510	0	0			
11	0	0	0	0	513	512	0	0			
12	0	0	0	0	513	514	0	0			
13	0	0	0	0	514	512	0	0			
14	0	0	0	0	515	511	0	0			
15	0	0	0	0	514	510	0	0			
0	0	0	0	0	515	508	0	0			
1	0	0	0	0	512	507	0	0			
2	0	0	0	0	513	504	0	0			
3	0	0	0	0	511	506	0	0			
4	0	0	0	0	509	505	0	0			
5	0	0	0	0	508	505	0	0			
6	0	0	0	0	507	505	0	0			
7	0	0	0	0	505	504	0	0			
8	0	0	0	0	507	505	0	0			
9	0	0	0	0	504	508	0	0			
10	0	0	0	0	504	510	0	0			
11	0	0	0	0	505	510	0	0			
12	0	0	0	0	509	509	0	0			
13	0	0	0	0	509	509	0	0			
14	0	0	0	0	511	511	0	0			
15	0	0	0	0	512	512	0	0			
0	0	0	0	0	514	512	0	0			
1	0	0	0	0	520	512	0	0			
2	0	0	0	0	514	510	0	0			
3	0	0	0	0	513	508	0	0			
4	0	0	0	0	513	508	0	0			
5	0	0	0	0	510	507	0	0			
6	0	0	0	0	510	507	0	0			
7	0	0	0	0	510	504	0	0			
8	0	0	0	0	512	508	0	0			
9	0	0	0	0	511	505	0	0			
10	0	0	0	0	508	504	0	0			
11	0	0	0	0	510	504	0	0			
12	0	0	0	0	506	505	0	0			
13	0	0	0	0	508	508	0	0			
14	0	0	0	0	508	509	0	0			
15	0	0	0	0	508	509	0	0			
0	0	0	0	0	508	509	0	0			
1	0	0	0	0	510	512	0	0			
2	0	0	0	0	510	511	0	0			
3	0	0	0	0	513	510	0	0			
4	0	0	0	0	513	512	0	0			
5	0	0	0	0	512	512	0	0			
6	0	0	0	0	514	510	0	0			
7	0	0	0	0	515	507	0	0			
8	0	0	0	0	515	506	0	0			
9	0	0	0	0	514	506	0	0			
10	0	0	0	0	511	506	0	0			
11	0	0	0	0	513	505	0	0			
12	0	0	0	0	511	507	0	0			
13	0	0	0	0	512	507	0	0			
14	0	0	0	0	507	506	0	0			
15	0	0	0	0	508	505	0	0			
0	0	0	0	0	506	505	0	0			
1	0	0	0	0	506	507	0	0			
2	0	0	0	0	504	508	0	0			
3	0	0	0	0	506	507	0	0			
4	0	0	0	0	510	510	0	0			
5	0	0	0	0	511	511	0	0			
6	0	0	0	0	512	511	0	0			
7	0	0	0	0	514	511	0	0			
8	0	0	0	0	513	512	0	0			
9	0	0	0	0	515	512	0	0			
10	0	0	0	0	515	512	0	0			
11	0	0	0	0	515	509	0	0			
12	0	0	0	0	515	507	0	0			
13	0	0	0	0	512	508	0	0			
14	0	0	0	0	512	507	0	0			
15	0	0	0	0	507	505	0	0			
0	0	0	0	0	507	504	0	0			
1	0	0	0	0	507	505	0	0			
2	0	0	0	0	505	504	0	0			
3	0	0	0	0	508	504	0	0			
4	0	0	0	0	507	505	0	0			
5	0	0	0	0	508	508	0	0			
6	0	0	0	0	508	508	0	0			
7	0	0	0	0	508	508	0	0			
8	0	0	0	0	511	510	0	0			
9	0	0	0	0	511	509	0	0			
10	0	0	0	0	514	510	0	0			
11	0	0	0	0	515	511	0	0			
12	0	0	0	0	518	513	0	0			
13	0	0	0	0	515	512	0	0			
14	0	0	0	0	515	512	0	0			
15	0	0	0	0	513	509	0	0			
0	0	0	0	0	514	506	0	0			
1	0	0	0	0	510	507	0	0			
2	0	0	0	0	510	506	0	0			
3	0	0	0	0	512	506	0	0			
4	0	0	0	0	511	504	0	0			
5	0	0	0	0	509	505	0	0			
6	0	0	0	0	511	505	0	0			
7	0	0	0	0	509	504	0	0			
8	0	0	0	0	509	506	0	0			
9	0	0	0	0	508	508	0	0			
10	0	0	0	0	507	508	0	0			
11	0	0	0	0	506	508	0	0			
12	0	0	0	0	502	509	0	0			
13	0	0	0	0	508	509	0	0			
14	0	0	0	0	511	509	0	0			
15	0	0	0	0	514	512	0	0			
0	0	0	0	0	513	512	0	0			
1	0	0	0	0	515	511	0	0			
2	0	0	0	0	515	508	0	0			
3	0	0	0	0	515	508	0	0			
4	0	0	0	0	514	508	0	0			
5	0	0	0	0	512	507	0	0			
6	0	0	0	0	510	505	0	0			
7	0	0	0	0	512	503	0	0			
8	0	0	0	0	511	505	0	0			
9	0	0	0	0	509	507	0	0			
10	0	0	0	0	508	505	0	0			
11	0	0	0	0	504	506	0	0			
12	0	0	0	0	507	506	0	0			
13	0	0	0	0	507	508	0	0			
14	0	0	0	0	505	508	0	0			
15	0	0	0	0	506	509	0	0			
0	0	0	0	0	507	509	0	0			
1	0	0	0	0	511	509	0	0			
2	0	0	0	0	513	510	0	0			
3	0	0	0	0	511	510	0	0			
4	0	0	0	0	515	513	0	0			
5	0	0	0	0	518	512	0	0			
6	0	0	0	0	517	511	0	0			
7	0	0	0	0	517	508	0	0			
8	0	0	0	0	514	508	0	0			
9	0	0	0	0	512	506	0	0			
10	0	0	0	0	510	508	0	0			
11	0	0	0	0	505	505	0	0			
12	0	0	0	0	508	507	0	0			
13	0	0	0	0	511	505	0	0			
14	0	0	0	0	507	506	0	0			
15	0	0	0	0	504	504	0	0			
0	0	0	0	0	507	506	0	0			
1	0	0	0	0	505	509	0	0			
2	0	0	0	0	507	508	0	0			
3	0	0	0	0	508	507	0	0			
4	0	0	0	0	508	508	0	0			
5	0	0	0	0	510	509	0	0			
6	0	0	0	0	513	513	0	0			
7	0	0	0	0	513	512	0	0			
8	0	0	0	0	515	514	0	0			
9	0	0	0	0	516	511	0	0			
10	0	0	0	0	518	509	0	0			
11	0	0	0	0	517	508	0	0			
12	0	0	0	0	515	508	0	0			
13	0	0	0	0	514	505	0	0			
14	0	0	0	0	513	504	0	0			
15	0	0	0	0	514	506	0	0			
0	0	0	0	0	511	506	0	0			
1	0	0	0	0	511	505	0	0			
2	0	0	0	0	508	504	0	0			
3	0	0	0	0	504	504	0	0			
4	0	0	0	0	504	506	0	0			
5	0	0	0	0	504	507	0	0			
6	0	0	0	0	507	508	0	0			
7	0	0	0	0	509	508	0	0			
8	0	0	0	0	508	510	0	0			
9	0	0	0	0	512	511	0	0			
10	0	0	0	0	510	511	0	0			
11	0	0	0	0	509	512	0	0			
12	0	0	0	0	514	513	0	0			
13	0	0	0	0	516	511	0	0			
14	0	0	0	0	515	509	0	0			
15	0	0	0	0	515	507	0	0			
0	0	0	0	0	516	508	0	0			
1	0	0	0	0	512	506	0	0			
2	0	0	0	0	510	506	0	0			
3	0	0	0	0	510	504	0	0			
4	0	0	0	0	510	505	0	0			
5	0	0	0	0	507	507	0	0			
6	0	0	0	0	505	507	0	0			
7	0	0	0	0	504	502	0	0			
8	0	0	0	0	500	505	0	0			
9	0	0	0	0	504	507	0	0			
10	0	0	0	0	504	508	0	0			
11	0	0	0	0	510	511	0	0			
12	0	0	0	0	512	510	0	0			
13	0	0	0	0	509	508	0	0			
14	0	0	0	0	511	511	0	0			
15	0	0	0	0	518	513	0	0			
0	0	0	0	0	519	513	0	0			
1	0	0	0	0	516	513	0	0			
2	0	0	0	0	517	509	0	0			
3	0	0	0	0	512	508	0	0			
4	0	0	0	0	511	505	0	0			
5	0	0	0	0	508	505	0	0			
6	0	0	0	0	511	504	0	0			
7	0	0	0	0	512	507	0	0			
8	0	0	0	0	510	504	0	0			
9	0	0	0	0	503	504	0	0			
10	0	0	0	0	513	506	0	0			
11	0	0	0	0	513	505	0	0			
12	0	0	0	0	503	507	0	0			
13	0	0	0	0	506	507	0	0			
14	0	0	0	0	515	508	0	0			
15	0	0	0	0	509	509	0	0			
0	0	0	0	0	505	509	0	0			
1	0	0	0	0	508	507	0	0			
2	0	0	0	0	510	509	0	0			
3	0	0	0	0	507	508	0	0			
4	0	0	0	0	509	511	0	0			
5	0	0	0	0	516	511	0	0			
6	0	0	0	0	519	510	0	0			
7	0	0	0	0	524	509	0	0			
8	0	0	0	0	527	511	0	0			
9	0	0	0	0	518	513	0	0			
10	0	0	0	0	507	511	0	0			
11	0	0	0	0	502	509	0	0			
12	0	0	0	0	497	508	0	0			
13	0	0	0	0	497	503	0	0			
14	0	0	0	0	505	505	0	0			
15	0	0	0	0	507	505	0	0			
0	0	0	0	0	507	507	0	0			
1	0	0	0	0	508	505	0	0			
2	0	0	0	0	507	505	0	0			
3	0	0	0	0	512	506	0	0			
4	0	0	0	0	512	507	0	0			
5	0	0	0	0	510	507	0	0			
6	0	0	0	0	516	511	0	0			
7	0	0	0	0	516	509	0	0			
8	0	0	0	0	514	512	0	0			
9	0	0	0	0	515	512	0	0			
10	0	0	0	0	517	510	0	0			
11	0	0	0	0	512	508	0	0			
12	0	0	0	0	514	506	0	0			
13	0	0	0	0	514	506	0	0			
14	0	0	0	0	512	504	0	0			
15	0	0	0	0	513	506	0	0			
0	0	0	0	0	506	506	0	0			
1	0	0	0	0	497	504	0	0			
2	0	0	0	0	504	505	0	0			
3	0	0	0	0	510	504	0	0			
4	0	0	0	0	511	506	0	0			
5	0	0	0	0	509	507	0	0			
6	0	0	0	0	508	507	0	0			
7	0	0	0	0	512	508	0	0			
8	0	0	0	0	515	507	0	0			
9	0	0	0	0	514	509	0	0			
10	0	0	0	0	510	511	0	0			
11	0	0	0	0	504	514	0	0			
12	0	0	0	0	505	513	0	0			
13	0	0	0	0	509	515	0	0			
14	0	0	0	0	515	508	0	0			
15	0	0	0	0	519	505	0	0			
0	0	0	0	0	517	504	0	0			
1	0	0	0	0	516	505	0	0			
2	0	0	0	0	516	508	0	0			
3	0	0	0	0	511	506	0	0			
4	0	0	0	0	509	507	0	0			
5	0	0	0	0	509	504	0	0			
6	0	0	0	0	512	504	0	0			
7	0	0	0	0	508	507	0	0			
8	0	0	0	0	502	507	0	0			
9	0	0	0	0	504	506	0	0			
10	0	0	0	0	512	509	0	0			
11	0	0	0	0	512	509	0	0			
12	0	0	0	0	510	509	0	0			
13	0	0	0	0	511	512	0	0			
14	0	0	0	0	510	513	0	0			
15	0	0	0	0	511	515	0	0			
0	0	0	0	0	507	511	0	0			
1	0	0	0	0	510	509	0	0			
2	0	0	0	0	516	506	0	0			
3	0	0	0	0	517	507	0	0			
4	0	0	0	0	511	507	0	0			
5	0	0	0	0	507	507	0	0			
6	0	0	0	0	521	507	0	0			
7	0	0	0	0	525	507	0	0			
8	0	0	0	0	519	507	0	0			
9	0	0	0	0	517	509	0	0			
10	0	0	0	0	512	508	0	0			
11	0	0	0	0	516	510	0	0			
12	0	0	0	0	499	515	0	0			
13	0	0	0	0	475	505	0	0			
14	0	0	0	0	479	501	0	0			
15	0	0	0	0	495	502	0	0			
0	0	0	0	0	508	507	0	0			
1	0	0	0	0	504	510	0	0			
2	0	0	0	0	507	511	0	0			
3	0	0	0	0	513	510	0	0			
4	0	0	0	0	515	511	0	0			
5	0	0	0	0	513	513	0	0			
6	0	0	0	0	516	514	0	0			
7	0	0	0	0	516	506	0	0			
8	0	0	0	0	518	505	0	0			
9	0	0	0	0	525	505	0	0			
10	0	0	0	0	525	505	0	0			
11	0	0	0	0	523	504	0	0			
12	0	0	0	0	522	506	0	0			
13	0	0	0	0	517	511	0	0			
14	0	0	0	0	510	505	0	0			
15	0	0	0	0	503	503	0	0			
0	0	0	0	0	502	502	0	0			
1	0	0	0	0	496	506	0	0			
2	0	0	0	0	501	507	0	0			
3	0	0	0	0	505	509	0	0			
4	0	0	0	0	511	514	0	0			
5	0	0	0	0	509	510	0	0			
6	0	0	0	0	508	510	0	0			
7	0	0	0	0	512	513	0	0			
8	0	0	0	0	510	512	0	0			
9	0	0	0	0	509	511	0	0			
10	0	0	0	0	511	508	0	0			
11	0	0	0	0	512	508	0	0			
12	0	0	0	0	519	506	0	0			
13	0	0	0	0	517	505	0	0			
14	0	0	0	0	514	505	0	0			
15	0	0	0	0	514	506	0	0			
0	0	0	0	0	514	508	0	0			
1	0	0	0	0	519	505	0	0			
2	0	0	0	0	519	507	0	0			
3	0	0	0	0	511	507	0	0			
4	0	0	0	0	512	507	0	0			
5	0	0	0	0	517	507	0	0			
6	0	0	0	0	513	508	0	0			
7	0	0	0	0	503	508	0	0			
8	0	0	0	0	496	511	0	0			
9	0	0	0	0	493	509	0	0			
10	0	0	0	0	502	507	0	0			
11	0	0	0	0	516	510	0	0			
12	0	0	0	0	517	513	0	0			
13	0	0	0	0	513	517	0	0			
14	0	0	0	0	508	512	0	0			
15	0	0	0	0	504	506	0	0			
0	0	0	0	0	510	506	0	0			
1	0	0	0	0	509	506	0	0			
2	0	0	0	0	504	502	0	0			
3	0	0	0	0	502	503	0	0			
4	0	0	0	0	517	504	0	0			
5	0	0	0	0	527	506	0	0			
6	0	0	0	0	524	506	0	0			
7	0	0	0	0	510	507	0	0			
8	0	0	0	0	501	506	0	0			
9	0	0	0	0	499	510	0	0			
10	0	0	0	0	503	510	0	0			
11	0	0	0	0	502	512	0	0			
12	0	0	0	0	508	511	0	0			
13	0	0	0	0	512	507	0	0			
14	0	0	0	0	516	508	0	0			
15	0	0	0	0	518	508	0	0			
0	0	0	0	0	517	509	0	0			
1	0	0	0	0	518	510	0	0			
2	0	0	0	0	517	510	0	0			
3	0	0	0	0	516	509	0	0			
4	0	0	0	0	513	507	0	0			
5	0	0	0	0	515	507	0	0			
6	0	0	0	0	516	508	0	0			
7	0	0	0	0	517	508	0	0			
8	0	0	0	0	514	509	0	0			
9	0	0	0	0	502	505	0	0			
10	0	0	0	0	505	503	0	0			
11	0	0	0	0	507	504	0	0			
12	0	0	0	0	492	504	0	0			
13	0	0	0	0	495	505	0	0			
14	0	0	0	0	497	512	0	0			
15	0	0	0	0	499	512	0	0			
0	0	0	0	0	513	509	0	0			
1	0	0	0	0	523	508	0	0			
2	0	0	0	0	526	508	0	0			
3	0	0	0	0	521	508	0	0			
4	0	0	0	0	519	512	0	0			
5	0	0	0	0	530	515	0	0			
6	0	0	0	0	520	512	0	0			
7	0	0	0	0	503	511	0	0			
8	0	0	0	0	493	504	0	0			
9	0	0	0	0	496	503	0	0			
10	0	0	0	0	505	504	0	0			
11	0	0	0	0	506	504	0	0			
12	0	0	0	0	514	501	0	0			
13	0	0	0	0	511	504	0	0			
14	0	0	0	0	505	505	0	0			
15	0	0	0	0	505	504	0	0			
0	0	0	0	0	507	503	0	0			
1	0	0	0	0	511	506	0	0			
2	0	0	0	0	508	509	0	0			
3	0	0	0	0	495	516	0	0			
4	0	0	0	0	508	519	0	0			
5	0	0	0	0	532	514	0	0			
6	0	0	0	0	519	508	0	0			
7	0	0	0	0	504	505	0	0			
8	0	0	0	0	509	512	0	0			
9	0	0	0	0	510	518	0	0			
10	0	0	0	0	509	516	0	0			
11	0	0	0	0	508	511	0	0			
12	0	0	0	0	513	506	0	0			
13	0	0	0	0	526	504	0	0			
14	0	0	0	0	536	508	0	0			
15	0	0	0	0	520	502	0	0			
0	0	0	0	0	503	500	0	0			
1	0	0	0	0	495	499	0	0			
2	0	0	0	0	487	500	0	0			
3	0	0	0	0	501	502	0	0			
4	0	0	0	0	504	509	0	0			
5	0	0	0	0	505	508	0	0			
6	0	0	0	0	520	508	0	0			
7	0	0	0	0	521	505	0	0			
8	0	0	0	0	518	511	0	0			
9	0	0	0	0	517	512	0	0			
10	0	0	0	0	516	514	0	0			
11	0	0	0	0	504	511	0	0			
12	0	0	0	0	501	511	0	0			
13	0	0	0	0	508	513	0	0			
14	0	0	0	0	511	511	0	0			
15	0	0	0	0	509	507	0	0			
0	0	0	0	0	505	505	0	0			
1	0	0	0	0	514	505	0	0			
2	0	0	0	0	532	504	0	0			
3	0	0	0	0	528	506	0	0			
4	0	0	0	0	521	504	0	0			
5	0	0	0	0	535	505	0	0			
6	0	0	0	0	524	506	0	0			
7	0	0	0	0	511	504	0	0			
8	0	0	0	0	501	508	0	0			
9	0	0	0	0	492	509	0	0			
10	0	0	0	0	497	512	0	0			
11	0	0	0	0	490	511	0	0			
12	0	0	0	0	489	510	0	0			
13	0	0	0	0	502	508	0	0			
14	0	0	0	0	515	511	0	0			
15	0	0	0	0	523	507	0	0			
0	0	0	0	0	525	509	0	0			
1	0	0	0	0	525	509	0	0			
2	0	0	0	0	516	507	0	0			
3	0	0	0	0	503	508	0	0			
4	0	0	0	0	492	506	0	0			
5	0	0	0	0	492	509	0	0			
6	0	0	0	0	507	511	0	0			
7	0	0	0	0	515	513	0	0			
8	0	0	0	0	516	512	0	0			
9	0	0	0	0	506	508	0	0			
10	0	0	0	0	507	503	0	0			
11	0	0	0	0	515	503	0	0			
12	0	0	0	0	518	503	0	0			
13	0	0	0	0	508	504	0	0			
14	0	0	0	0	501	508	0	0			
15	0	0	0	0	517	510	0	0			
0	0	0	0	0	518	512	0	0			
1	0	0	0	0	498	510	0	0			
2	0	0	0	0	509	506	0	0			
3	0	0	0	0	515	510	0	0			
4	0	0	0	0	513	514	0	0			
5	0	0	0	0	508	513	0	0			
6	0	0	0	0	509	506	0	0			
7	0	0	0	0	511	507	0	0			
8	0	0	0	0	513	507	0	0			
9	0	0	0	0	515	505	0	0			
10	0	0	0	0	521	505	0	0			
11	0	0	0	0	520	506	0	0			
12	0	0	0	0	513	506	0	0			
13	0	0	0	0	513	505	0	0			
14	0	0	0	0	510	509	0	0			
15	0	0	0	0	511	507	0	0			
0	0	0	0	0	507	504	0	0			
1	0	0	0	0	503	503	0	0			
2	0	0	0	0	501	505	0	0			
3	0	0	0	0	499	507	0	0			
4	0	0	0	0	508	507	0	0			
5	0	0	0	0	517	507	0	0			
6	0	0	0	0	521	508	0	0			
7	0	0	0	0	518	512	0	0			
8	0	0	0	0	522	518	0	0			
9	0	0	0	0	517	519	0	0			
10	0	0	0	0	519	511	0	0			
11	0	0	0	0	513	512	0	0			
12	0	0	0	0	500	512	0	0			
13	0	0	0	0	498	505	0	0			
14	0	0	0	0	504	502	0	0			
15	0	0	0	0	508	504	0	0			
0	0	0	0	0	504	510	0	0			
1	0	0	0	0	505	507	0	0			
2	0	0	0	0	519	505	0	0			
3	0	0	0	0	523	505	0	0			
4	0	0	0	0	515	505	0	0			
5	0	0	0	0	510	505	0	0			
6	0	0	0	0	505	506	0	0			
7	0	0	0	0	499	505	0	0			
8	0	0	0	0	498	508	0	0			
9	0	0	0	0	500	508	0	0			
10	0	0	0	0	511	508	0	0			
11	0	0	0	0	507	507	0	0			
12	0	0	0	0	506	511	0	0			
13	0	0	0	0	533	511	0	0			
14	0	0	0	0	519	507	0	0			
15	0	0	0	0	514	504	0	0			
0	0	0	0	0	529	505	0	0			
1	0	0	0	0	524	506	0	0			
2	0	0	0	0	509	507	0	0			
3	0	0	0	0	515	503	0	0			
4	0	0	0	0	505	508	0	0			
5	0	0	0	0	511	514	0	0			
6	0	0	0	0	499	516	0	0			
7	0	0	0	0	491	512	1	0			
8	0	0	0	0	486	507	1	0			
9	0	0	0	0	495	508	1	0			
10	0	0	0	0	508	518	1	0			
11	0	0	0	0	524	516	1	0			
12	0	0	0	0	534	504	2	0			
13	0	0	0	0	544	501	3	0			
14	0	0	0	0	536	504	4	0			
15	0	0	0	0	521	508	5	0			
0	0	0	0	0	519	508	5	0			
1	0	0	0	0	496	504	6	0			
2	0	0	0	0	470	510	6	0			
3	0	0	0	0	484	509	7	0			
4	0	0	0	0	513	509	8	0			
5	0	0	0	0	520	504	7	0			
6	0	0	0	0	507	506	9	0			
7	0	0	0	0	509	505	11	0			
8	0	0	0	0	517	505	13	0			
9	0	0	0	0	531	509	13	0			
10	0	0	0	0	516	508	15	0			
11	0	0	0	0	504	501	16	0			
12	0	0	0	0	500	501	15	0			
13	0	0	0	0	504	504	14	0			
14	0	0	0	0	500	508	15	0			
15	0	0	0	0	499	505	15	0			
0	0	0	0	0	498	505	15	0			
1	0	0	0	0	483	505	16	0			
2	0	0	0	0	499	512	17	0			
3	0	0	0	0	495	515	18	0			
4	0	0	0	0	517	525	19	0			
5	0	0	0	0	520	522	19	0			
6	0	0	0	0	527	512	25	0			
7	0	0	0	0	524	511	34	0			
8	0	0	0	0	522	509	31	0			
9	0	0	0	0	513	497	32	0			
10	0	0	0	0	520	495	31	0			
11	0	0	0	0	544	498	34	0			
12	0	0	0	0	544	511	35	0			
13	0	0	0	0	528	519	37	0			
14	0	0	0	0	518	516	38	0			
15	0	0	0	0	507	519	39	0			
0	0	0	0	0	508	511	35	0			
1	0	0	0	0	509	515	38	0			
2	0	0	0	0	473	501	49	0			
3	0	0	0	0	486	502	56	0			
4	0	0	0	0	495	500	59	0			
5	0	0	0	0	502	502	62	0			
6	0	0	0	0	516	504	63	0			
7	0	0	0	0	511	505	64	0			
8	0	0	0	0	514	510	65	0			
9	0	0	0	0	526	510	65	0			
10	0	0	0	0	516	507	67	0			
11	0	0	0	0	521	508	63	0			
12	0	0	0	0	536	507	63	0			
13	0	0	0	0	526	503	69	0			
14	0	0	0	0	514	508	69	0			
15	0	0	0	0	503	511	70	0			
0	0	0	0	0	499	509	65	0			
1	0	0	0	0	506	504	73	0			
2	0	0	0	0	502	500	78	0			
3	0	0	0	0	502	501	79	0			
4	0	0	0	0	496	502	71	0			
5	0	0	0	0	482	511	67	0			
6	0	0	0	0	481	509	79	0			
7	0	0	0	0	495	504	86	0			
8	0	0	0	0	500	508	112	0			
9	0	0	0	0	506	511	99	0			
10	0	0	0	0	517	512	110	0			
11	0	0	0	0	526	520	112	0			
12	0	0	0	0	540	518	116	0			
13	0	0	0	0	535	513	114	0			
14	0	0	0	0	524	509	122	0			
15	0	0	0	0	524	515	121	0			
0	0	0	0	0	512	518	121	0			
1	0	0	0	0	512	507	122	0			
2	0	0	0	0	506	502	126	0			
3	0	0	0	0	516	503	135	0			
4	0	0	0	0	520	496	135	0			
5	0	0	0	0	516	495	140	0			
6	0	0	0	0	516	503	141	0			
7	0	0	0	0	507	504	153	0			
8	0	0	0	0	486	507	158	0			
9	0	0	0	0	497	506	160	0			
10	0	0	0	0	500	510	167	0			
11	0	0	0	0	488	517	170	0			
12	0	0	0	0	478	509	170	0			
13	0	0	0	0	480	504	174	0			
14	0	0	0	0	505	513	178	0			
15	0	0	0	0	491	513	184	0			
0	0	0	0	0	480	510	183	0			
1	0	0	0	0	531	515	170	0			
2	0	0	0	0	552	512	174	0			
3	0	0	0	0	546	510	176	0			
4	0	0	0	0	537	508	174	0			
5	0	0	0	0	533	506	175	0			
6	0	0	0	0	540	512	181	0			
7	0	0	0	0	543	507	183	0			
8	0	0	0	0	527	505	189	0			
9	0	0	0	0	497	509	194	0			
10	0	0	0	0	486	514	199	0			
11	0	0	0	0	490	504	204	0			
12	0	0	0	0	492	505	206	0			
13	0	0	0	0	493	501	207	0			
14	0	0	0	0	505	505	209	0			
15	0	0	0	0	532	496	209	0			
0	0	0	0	0	522	498	208	0			
1	0	0	0	0	519	504	212	0			
2	0	0	0	0	519	508	212	0			
3	0	0	0	0	507	516	218	0			
4	0	0	0	0	491	519	220	0			
5	0	0	0	0	499	511	219	0			
6	0	0	0	0	516	509	221	0			
7	0	0	0	0	524	506	224	0			
8	0	0	0	0	543	508	222	0			
9	0	0	0	0	519	508	221	0			
10	0	0	0	0	479	505	223	0			
11	0	0	0	0	468	501	225	0			
12	0	0	0	0	470	502	222	0			
13	0	0	0	0	490	516	224	0			
14	0	0	0	0	521	524	225	0			
15	0	0	0	0	551	514	227	0			
0	0	0	0	0	586	514	229	0			
1	0	0	0	0	569	513	232	0			
2	0	0	0	0	526	513	233	0			
3	0	0	0	0	500	505	235	0			
4	0	0	0	0	466	496	237	0			
5	0	0	0	0	483	497	238	0			
6	0	0	0	0	485	501	240	0			
7	0	0	0	0	490	512	244	0			
8	0	0	0	0	532	516	246	0			
9	0	0	0	0	535	508	248	0			
10	0	0	0	0	507	506	249	0			
11	0	0	0	0	493	515	250	0			
12	0	0	0	0	472	514	258	0			
13	0	0	0	0	477	507	258	0			
14	0	0	0	0	508	495	263	0			
15	0	0	0	0	512	503	267	0			
0	0	0	0	0	528	514	270	0			
1	0	0	0	0	530	499	269	0			
2	0	0	0	0	525	502	272	0			
3	0	0	0	0	491	515	276	0			
4	0	0	0	0	471	511	283	0			
5	0	0	0	0	483	506	283	0			
6	0	0	0	0	493	494	284	0			
7	0	0	0	0	504	510	287	0			
8	0	0	0	0	560	510	289	0			
9	0	0	0	0	549	507	295	0			
10	0	0	0	0	549	510	295	0			
11	0	0	0	0	573	519	297	0			
12	0	0	0	0	551	512	298	0			
13	0	0	0	0	505	507	324	0			
14	0	0	0	0	500	509	331	0			
15	0	0	0	0	503	518	333	0			
0	0	0	0	0	492	510	339	0			
1	0	0	0	0	504	503	334	0			
2	0	0	0	0	513	491	337	0			
3	0	0	0	0	520	502	345	0			
4	0	0	0	0	491	506	345	0			
5	0	0	0	0	496	510	348	0			
6	0	0	0	0	510	522	351	0			
7	0	0	0	0	515	524	352	0			
8	0	0	0	0	513	506	355	0			
9	0	0	0	0	511	497	357	0			
10	0	0	0	0	510	494	359	0			
11	0	0	0	0	502	496	361	0			
12	0	0	0	0	482	520	361	0			
13	0	0	0	0	500	524	361	0			
14	0	0	0	0	504	502	363	0			
15	0	0	0	0	505	482	368	0			
0	0	0	0	0	520	507	373	0			
1	0	0	0	0	543	529	372	0			
2	0	0	0	0	513	509	374	0			
3	0	0	0	0	507	505	376	0			
4	0	0	0	0	491	508	380	0			
5	0	0	0	0	495	513	383	0			
6	0	0	0	0	504	520	383	0			
7	0	0	0	0	508	515	384	0			
8	0	0	0	0	495	496	389	0			
9	0	0	0	0	490	504	391	0			
10	0	0	0	0	509	520	391	0			
11	0	0	0	0	545	507	391	0			
12	0	0	0	0	562	486	394	0			
13	0	0	0	0	547	495	396	0			
14	0	0	0	0	535	516	396	0			
15	0	0	0	0	484	529	399	0			
0	0	0	0	0	483	524	403	0			
1	0	0	0	0	469	498	407	0			
2	0	0	0	0	478	492	405	0			
3	0	0	0	0	486	498	403	0			
4	0	0	0	0	526	513	404	0			
5	0	0	0	0	532	509	403	0			
6	0	0	0	0	525	497	399	0			
7	0	0	0	0	522	507	403	0			
8	0	0	0	0	498	520	403	0			
9	0	0	0	0	484	516	406	0			
10	0	0	0	0	493	512	408	0			
11	0	0	0	0	551	516	405	0			
12	0	0	0	0	563	497	413	0			
13	0	0	0	0	527	502	415	0			
14	0	0	0	0	519	534	414	0			
15	0	0	0	0	516	511	415	0			
0	0	0	0	0	515	487	412	0			
1	0	0	0	0	517	487	417	0			
2	0	0	0	0	525	508	420	0			
3	0	0	0	0	538	517	424	0			
4	0	0	0	0	540	519	425	0			
5	0	0	0	0	492	519	427	0			
6	0	0	0	0	457	514	424	0			
7	0	0	0	0	475	508	429	0			
8	0	0	0	0	486	504	428	0			
9	0	0	0	0	465	510	427	0			
10	0	0	0	0	482	498	426	0			
11	0	0	0	0	507	489	428	0			
12	0	0	0	0	501	488	431	0			
13	0	0	0	0	500	497	432	0			
14	0	0	0	0	534	514	433	0			
15	0	0	0	0	575	532	433	0			
0	0	0	0	0	569	525	432	0			
1	0	0	0	0	527	510	434	0			
2	0	0	0	0	514	490	435	0			
3	0	0	0	0	506	487	438	0			
4	0	0	0	0	507	508	439	0			
5	0	0	0	0	513	522	439	0			
6	0	0	0	0	518	520	441	0			
7	0	0	0	0	494	519	440	0			
8	0	0	0	0	486	512	440	0			
9	0	0	0	0	481	511	438	0			
10	0	0	0	0	484	519	438	0			
11	0	0	0	0	518	531	440	0			
12	0	0	0	0	514	519	441	0			
13	0	0	0	0	512	486	444	0			
14	0	0	0	0	508	507	443	0			
15	0	0	0	0	513	504	441	0			
0	0	0	0	0	513	474	440	0			
1	0	0	0	0	526	470	441	0			
2	0	0	0	0	526	484	447	0			
3	0	0	0	0	522	511	444	0			
4	0	0	0	0	502	513	450	0			
5	0	0	0	0	471	530	449	0			
6	0	0	0	0	483	546	446	0			
7	0	0	0	0	496	547	447	0			
8	0	0	0	0	512	528	447	0			
9	0	0	0	0	529	539	448	0			
10	0	0	0	0	528	492	451	0			
11	0	0	0	0	521	471	450	0			
12	0	0	0	0	514	464	450	0			
13	0	0	0	0	522	477	447	0			
14	0	0	0	0	531	474	448	0			
15	0	0	0	0	524	497	448	0			
0	0	0	0	0	539	531	455	0			
1	0	0	0	0	511	543	458	0			
2	0	0	0	0	509	540	458	0			
3	0	0	0	0	496	522	461	0			
4	0	0	0	0	499	510	459	0			
5	0	0	0	0	504	505	458	0			
6	0	0	0	0	496	508	457	0			
7	0	0	0	0	512	507	460	0			
8	0	0	0	0	518	498	459	0			
9	0	0	0	0	507	488	461	0			
10	0	0	0	0	487	503	460	0			
11	0	0	0	0	483	522	460	0			
12	0	0	0	0	494	526	458	0			
13	0	0	0	0	503	511	458	0			
14	0	0	0	0	488	499	458	0			
15	0	0	0	0	551	492	460	0			
0	0	0	0	0	554	505	460	0			
1	0	0	0	0	559	504	462	0			
2	0	0	0	0	528	499	463	0			
3	0	0	0	0	534	510	462	0			
4	0	0	0	0	516	522	463	0			
5	0	0	0	0	484	529	463	0			
6	0	0	0	0	477	513	463	0			
7	0	0	0	0	484	512	462	0			
8	0	0	0	0	496	498	463	0			
9	0	0	0	0	474	501	463	0			
10	0	0	0	0	481	495	462	0			
11	0	0	0	0	522	502	465	0			
12	0	0	0	0	526	505	464	0			
13	0	0	0	0	516	501	463	0			
14	0	0	0	0	526	505	465	0			
15	0	0	0	0	539	510	467	0			
0	0	0	0	0	497	501	468	0			
1	0	0	0	0	483	498	471	0			
2	0	0	0	0	526	519	472	0			
3	0	0	0	0	543	533	478	0			
4	0	0	0	0	513	528	481	0			
5	0	0	0	0	514	500	478	0			
6	0	0	0	0	525	492	476	0			
7	0	0	0	0	519	489	474	0			
8	0	0	0	0	519	513	477	0			
9	0	0	0	0	510	532	480	0			
10	0	0	0	0	495	526	478	0			
11	0	0	0	0	487	510	477	0			
12	0	0	0	0	487	492	478	0			
13	0	0	0	0	510	501	476	0			
14	0	0	0	0	510	511	476	0			
15	0	0	0	0	513	502	474	0			
0	0	0	0	0	536	504	476	0			
1	0	0	0	0	537	522	477	0			
2	0	0	0	0	516	508	483	0			
3	0	0	0	0	492	488	480	0			
4	0	0	0	0	484	492	480	0			
5	0	0	0	0	496	501	481	0			
6	0	0	0	0	502	503	481	0			
7	0	0	0	0	529	520	480	0			
8	0	0	0	0	545	517	482	0			
9	0	0	0	0	535	502	482	0			
10	0	0	0	0	515	493	481	0			
11	0	0	0	0	511	505	485	0			
12	0	0	0	0	494	523	486	0			
13	0	0	0	0	483	521	486	0			
14	0	0	0	0	503	509	487	0			
15	0	0	0	0	503	509	486	0			
0	0	0	0	0	501	535	486	6			
1	0	0	0	0	498	524	486	6			
2	0	0	0	0	508	504	487	7			
3	0	0	0	0	515	498	487	15			
4	0	0	0	0	527	493	488	13			
5	0	0	0	0	524	500	489	20			
6	0	0	0	0	508	504	489	23			
7	0	0	0	0	505	513	492	25			
8	0	0	0	0	503	502	492	23			
9	0	0	0	0	499	496	495	21			
10	0	0	0	0	492	503	498	21			
11	0	0	0	0	495	503	494	22			
12	0	0	0	0	498	507	493	22			
13	0	0	0	0	507	506	494	21			
14	0	0	0	0	523	507	498	20			
15	0	0	0	0	560	532	495	21			
0	0	0	0	0	586	533	496	20			
1	0	0	0	0	568	512	495	19			
2	0	0	0	0	516	493	495	21			
3	0	0	0	0	494	491	496	21			
4	0	0	0	0	479	495	497	22			
5	0	0	0	0	487	507	495	21			
6	0	0	0	0	503	519	498	22			
7	0	0	0	0	504	520	498	21			
8	0	0	0	0	496	524	498	30			
9	0	0	0	0	499	508	497	31			
10	0	0	0	0	499	501	497	27			
11	0	0	0	0	498	506	496	31			
12	0	0	0	0	504	504	496	31			
13	0	0	0	0	513	504	496	32			
14	0	0	0	0	507	501	497	31			
15	0	0	0	0	496	505	495	34			
0	0	0	0	0	512	515	493	34			
1	0	0	0	0	521	511	495	33			
2	0	0	0	0	516	500	497	30			
3	0	0	0	0	518	504	496	31			
4	0	0	0	0	510	513	498	29			
5	0	0	0	0	503	513	499	31			
6	0	0	0	0	495	500	500	30			
7	0	0	0	0	489	504	500	31			
8	0	0	0	0	490	525	502	32			
9	0	0	0	0	506	509	503	32			
10	0	0	0	0	532	492	504	33			
11	0	0	0	0	536	500	504	35			
12	0	0	0	0	547	507	503	33			
13	0	0	0	0	526	507	504	34			
14	0	0	0	0	527	508	504	34			
15	0	0	0	0	509	501	504	34			
0	0	0	0	0	472	492	504	35			
1	0	0	0	0	484	502	504	32			
2	0	0	0	0	500	517	504	32			
3	0	0	0	0	501	526	504	33			
4	0	0	0	0	524	514	505	32			
5	0	0	0	0	568	524	505	32			
6	0	0	0	0	545	512	504	32			
7	0	0	0	0	504	502	504	34			
8	0	0	0	0	503	505	505	33			
9	0	0	0	0	492	515	504	33			
10	0	0	0	0	505	527	505	34			
11	0	0	0	0	489	506	507	33			
12	0	0	0	0	483	504	507	34			
13	0	0	0	0	510	504	507	36			
14	0	0	0	0	559	513	507	35			
15	0	0	0	0	542	510	507	36			
0	0	0	0	0	516	495	507	36			
1	0	0	0	0	523	503	508	34			
2	0	0	0	0	509	494	508	36			
3	0	0	0	0	499	475	506	36			
4	0	0	0	0	489	487	506	38			
5	0	0	0	0	483	510	505	38			
6	0	0	0	0	492	519	504	37			
7	0	0	0	0	477	522	504	38			
8	0	0	0	0	488	537	503	38			
9	0	0	0	0	507	531	503	39			
10	0	0	0	0	530	523	501	38			
11	0	0	0	0	536	506	502	38			
12	0	0	0	0	526	506	503	38			
13	0	0	0	0	538	501	503	38			
14	0	0	0	0	529	500	502	38			
15	0	0	0	0	508	493	501	39			
0	0	0	0	0	513	509	501	39			
1	0	0	0	0	510	514	500	39			
2	0	0	0	0	512	501	500	39			
3	0	0	0	0	512	512	503	39			
4	0	0	0	0	513	509	502	39			
5	0	0	0	0	492	500	503	39			
6	0	0	0	0	475	495	503	39			
7	0	0	0	0	475	506	503	39			
8	0	0	0	0	485	516	504	39			
9	0	0	0	0	504	514	507	40			
10	0	0	0	0	515	500	506	42			
11	0	0	0	0	539	503	507	42			
12	0	0	0	0	537	517	505	40			
13	0	0	0	0	563	513	504	39			
14	0	0	0	0	539	497	502	41			
15	0	0	0	0	537	520	502	40			
0	0	0	0	0	504	519	503	41			
1	0	0	0	0	503	529	504	39			
2	0	0	0	0	496	502	504	40			
3	0	0	0	0	496	482	505	39			
4	0	0	0	0	487	487	504	40			
5	0	0	0	0	494	497	504	39			
6	0	0	0	0	528	512	503	41			
7	0	0	0	0	525	519	503	43			
8	0	0	0	0	517	527	501	42			
9	0	0	0	0	517	526	498	42			
10	0	0	0	0	506	513	496	42			
11	0	0	0	0	489	487	496	44			
12	0	0	0	0	489	479	495	44			
13	0	0	0	0	489	496	493	44			
14	0	0	0	0	495	515	493	43			
15	0	0	0	0	518	520	492	43			
0	0	0	0	0	539	527	493	42			
1	0	0	0	0	529	511	493	43			
2	0	0	0	0	523	509	492	41			
3	0	0	0	0	510	514	494	41			
4	0	0	0	0	499	511	492	43			
5	0	0	0	0	497	498	493	43			
6	0	0	0	0	492	503	496	44			
7	0	0	0	0	451	516	496	41			
8	0	0	0	0	473	519	496	41			
9	0	0	0	0	496	505	497	42			
10	0	0	0	0	523	495	496	43			
11	0	0	0	0	533	499	495	42			
12	0	0	0	0	568	509	494	42			
13	0	0	0	0	557	509	495	43			
14	0	0	0	0	564	503	494	42			
15	0	0	0	0	543	507	495	42			
0	0	0	0	0	519	501	495	41			
1	0	0	0	0	508	504	493	42			
2	0	0	0	0	511	508	495	42			
3	0	0	0	0	505	501	495	43			
4	0	0	0	0	486	499	495	43			
5	0	0	0	0	490	502	494	42			
6	0	0	0	0	487	514	493	43			
7	0	0	0	0	507	524	494	43			
8	0	0	0	0	518	523	495	43			
9	0	0	0	0	508	530	495	42			
10	0	0	0	0	488	514	494	43			
11	0	0	0	0	504	508	495	43			
12	0	0	0	0	499	499	493	41			
13	0	0	0	0	508	508	496	40			
14	0	0	0	0	511	510	498	43			
15	0	0	0	0	507	512	497	43			
0	0	0	0	0	518	506	496	42			
1	0	0	0	0	522	507	498	42			
2	0	0	0	0	525	497	497	41			
3	0	0	0	0	524	497	498	41			
4	0	0	0	0	515	499	499	41			
5	0	0	0	0	504	504	498	40			
6	0	0	0	0	511	505	499	39			
7	0	0	0	0	514	502	499	42			
8	0	0	0	0	509	500	500	42			
9	0	0	0	0	504	509	500	42			
10	0	0	0	0	493	513	500	42			
11	0	0	0	0	490	507	500	40			
12	0	0	0	0	491	520	500	39			
13	0	0	0	0	513	520	503	39			
14	0	0	0	0	540	515	501	37			
15	0	0	0	0	545	518	503	36			
0	0	0	0	0	510	515	504	35			
1	0	0	0	0	500	513	505	36			
2	0	0	0	0	495	506	504	34			
3	0	0	0	0	503	502	503	35			
4	0	0	0	0	531	501	504	35			
5	0	0	0	0	541	502	503	35			
6	0	0	0	0	509	500	504	35			
7	0	0	0	0	489	500	504	32			
8	0	0	0	0	489	492	503	32			
9	0	0	0	0	502	503	502	33			
10	0	0	0	0	530	522	502	34			
11	0	0	0	0	523	509	506	31			
12	0	0	0	0	519	500	507	33			
13	0	0	0	0	495	506	506	33			
14	0	0	0	0	483	508	505	32			
15	0	0	0	0	499	507	505	31			
0	0	0	0	0	502	510	507	30			
1	0	0	0	0	535	522	507	29			
2	0	0	0	0	545	516	507	30			
3	0	0	0	0	533	516	507	30			
4	0	0	0	0	496	518	505	31			
5	0	0	0	0	504	516	505	28			
6	0	0	0	0	526	511	504	28			
7	0	0	0	0	521	504	505	27			
8	0	0	0	0	512	504	505	27			
9	0	0	0	0	514	491	505	27			
10	0	0	0	0	515	486	506	23			
11	0	0	0	0	510	493	505	24			
12	0	0	0	0	491	509	505	20			
13	0	0	0	0	504	520	507	24			
14	0	0	0	0	504	514	507	24			
15	0	0	0	0	501	507	508	24			
0	0	0	0	0	488	505	507	23			
1	0	0	0	0	480	507	507	22			
2	0	0	0	0	511	512	507	23			
3	0	0	0	0	518	506	507	22			
4	0	0	0	0	526	512	505	21			
5	0	0	0	0	534	516	505	22			
6	0	0	0	0	526	500	504	23			
7	0	0	0	0	505	504	504	20			
8	0	0	0	0	508	519	504	17			
9	0	0	0	0	501	521	504	17			
10	0	0	0	0	513	509	505	14			
11	0	0	0	0	537	500	505	15			
12	0	0	0	0	532	511	504	15			
13	0	0	0	0	508	516	504	10			
14	0	0	0	0	512	520	506	10			
15	0	0	0	0	510	507	509	10			
0	0	0	0	0	518	502	508	9			
1	0	0	0	0	507	494	508	8			
2	0	0	0	0	483	489	508	8			
3	0	0	0	0	475	490	508	7			
4	0	0	0	0	484	501	509	9			
5	0	0	0	0	502	509	508	7			
6	0	0	0	0	523	505	507	7			
7	0	0	0	0	534	515	505	8			
8	0	0	0	0	502	523	507	8			
9	0	0	0	0	496	529	505	9			
10	0	0	0	0	524	528	507	10			
11	0	0	0	0	524	512	507	9			
12	0	0	0	0	536	507	507	7			
13	0	0	0	0	540	489	507	8			
14	0	0	0	0	523	500	508	8			
15	0	0	0	0	506	519	507	10			
0	0	0	0	0	496	508	507	10			
1	0	0	0	0	509	506	508	11			
2	0	0	0	0	515	507	506	10			
3	0	0	0	0	508	500	507	5			
4	0	0	0	0	495	503	506	5			
5	0	0	0	0	483	502	505	4			
6	0	0	0	0	491	504	506	6			
7	0	0	0	0	489	508	505	6			
8	0	0	0	0	496	504	506	6			
9	0	0	0	0	504	502	507	6			
10	0	0	0	0	516	504	508	6			
11	0	0	0	0	531	509	508	3			
12	0	0	0	0	526	523	509	3			
13	0	0	0	0	527	527	506	3			
14	0	0	0	0	520	515	507	3			
15	0	0	0	0	512	516	505	3			
0	0	0	0	0	506	501	507	4			
1	0	0	0	0	514	498	506	4			
2	0	0	0	0	515	499	504	5			
3	0	0	0	0	520	500	504	4			
4	0	0	0	0	528	512	510	4			
5	0	0	0	0	493	514	508	5			
6	0	0	0	0	475	507	508	0			
7	0	0	0	0	492	508	507	0			
8	0	0	0	0	511	508	507	0			
9	0	0	0	0	510	503	504	0			
10	0	0	0	0	527	504	505	0			
11	0	0	0	0	559	510	505	0			
12	0	0	0	0	528	508	504	0			
13	0	0	0	0	512	511	504	0			
14	0	0	0	0	504	514	504	0			
15	0	0	0	0	506	511	503	0			
0	0	0	0	0	511	512	505	0			
1	0	0	0	0	525	511	505	0			
2	0	0	0	0	509	513	504	0			
3	0	0	0	0	493	504	504	0			
4	0	0	0	0	491	509	504	0			
5	0	0	0	0	486	500	504	0			
6	0	0	0	0	468	496	504	0			
7	0	0	0	0	495	501	504	0			
8	0	0	0	0	527	502	503	0			
9	0	0	0	0	547	510	503	0			
10	0	0	0	0	548	524	501	0			
11	0	0	0	0	539	515	500	0			
12	0	0	0	0	506	514	500	0			
13	0	0	0	0	484	500	500	0			
14	0	0	0	0	500	504	500	0			
15	0	0	0	0	508	502	499	0			
0	0	0	0	0	508	504	499	0			
1	0	0	0	0	531	523	500	0			
2	0	0	0	0	521	522	500	0			
3	0	0	0	0	511	507	500	0			
4	0	0	0	0	506	506	501	0			
5	0	0	0	0	492	507	501	0			
6	0	0	0	0	485	511	501	0			
7	0	0	0	0	485	507	501	0			
8	0	0	0	0	497	496	502	0			
9	0	0	0	0	511	498	502	0			
10	0	0	0	0	510	511	501	0			
11	0	0	0	0	509	511	502	0			
12	0	0	0	0	535	506	500	0			
13	0	0	0	0	533	507	500	0			
14	0	0	0	0	541	506	500	0			
15	0	0	0	0	530	506	500	0			
0	0	0	0	0	519	501	500	0			
1	0	0	0	0	502	505	499	0			
2	0	0	0	0	496	529	499	0			
3	0	0	0	0	498	514	498	0			
4	0	0	0	0	506	500	499	0			
5	0	0	0	0	532	507	498	0			
6	0	0	0	0	532	513	497	0			
7	0	0	0	0	520	507	498	0			
8	0	0	0	0	510	497	498	0			
9	0	0	0	0	488	503	497	0			
10	0	0	0	0	472	507	497	0			
11	0	0	0	0	479	510	497	0			
12	0	0	0	0	497	512	499	0			
13	0	0	0	0	513	523	499	0			
14	0	0	0	0	523	520	500	0			
15	0	0	0	0	517	504	499	0			
0	0	0	0	0	520	504	499	0			
1	0	0	0	0	513	496	501	0			
2	0	0	0	0	519	494	499	0			
3	0	0	0	0	524	511	501	0			
4	0	0	0	0	494	505	500	0			
5	0	0	0	0	500	497	500	0			
6	0	0	0	0	516	500	500	0			
7	0	0	0	0	513	508	500	0			
8	0	0	0	0	490	513	500	0			
9	0	0	0	0	497	515	500	0			
10	0	0	0	0	496	518	501	0			
11	0	0	0	0	505	512	500	0			
12	0	0	0	0	532	513	499	0			
13	0	0	0	0	559	517	498	0			
14	0	0	0	0	550	516	498	0			
15	0	0	0	0	530	521	499	0			
0	0	0	0	0	524	500	498	0			
1	0	0	0	0	524	504	499	0			
2	0	0	0	0	504	507	499	0			
3	0	0	0	0	505	499	499	0			
4	0	0	0	0	472	500	503	0			
5	0	0	0	0	455	507	503	0			
6	0	0	0	0	476	511	502	0			
7	0	0	0	0	511	512	501	0			
8	0	0	0	0	533	493	502	0			
9	0	0	0	0	543	497	501	0			
10	0	0	0	0	542	510	496	0			
11	0	0	0	0	527	521	496	0			
12	0	0	0	0	530	516	498	0			
13	0	0	0	0	514	513	497	0			
14	0	0	0	0	501	514	495	0			
15	0	0	0	0	495	498	495	0			
0	0	0	0	0	476	489	496	0			
1	0	0	0	0	480	501	495	0			
2	0	0	0	0	498	511	495	0			
3	0	0	0	0	507	510	494	0			
4	0	0	0	0	507	511	494	0			
5	0	0	0	0	509	516	494	0			
6	0	0	0	0	520	519	494	0			
7	0	0	0	0	526	504	494	0			
8	0	0	0	0	526	507	489	0			
9	0	0	0	0	516	508	490	0			
10	0	0	0	0	507	505	491	0			
11	0	0	0	0	492	497	490	0			
12	0	0	0	0	497	504	490	0			
13	0	0	0	0	516	504	490	0			
14	0	0	0	0	523	505	489	0			
15	0	0	0	0	527	505	490	0			
0	0	0	0	0	516	512	490	0			
1	0	0	0	0	513	512	489	0			
2	0	0	0	0	499	507	490	0			
3	0	0	0	0	480	511	490	0			
4	0	0	0	0	479	513	489	0			
5	0	0	0	0	493	511	491	0			
6	0	0	0	0	508	507	491	0			
7	0	0	0	0	545	507	491	0			
8	0	0	0	0	568	511	491	0			
9	0	0	0	0	556	508	491	0			
10	0	0	0	0	544	505	491	0			
11	0	0	0	0	523	515	491	0			
12	0	0	0	0	501	505	490	0			
13	0	0	0	0	492	505	491	0			
14	0	0	0	0	505	504	491	0			
15	0	0	0	0	508	503	490	0			
0	0	0	0	0	505	504	490	0			
1	0	0	0	0	519	506	490	0			
2	0	0	0	0	514	510	489	0			
3	0	0	0	0	499	515	491	0			
4	0	0	0	0	479	501	490	0			
5	0	0	0	0	499	504	489	0			
6	0	0	0	0	511	511	490	0			
7	0	0	0	0	505	512	490	0			
8	0	0	0	0	496	511	491	0			
9	0	0	0	0	502	505	491	0			
10	0	0	0	0	517	508	491	0			
11	0	0	0	0	525	504	490	0			
12	0	0	0	0	531	508	490	0			
13	0	0	0	0	501	517	490	0			
14	0	0	0	0	494	508	490	0			
15	0	0	0	0	489	506	489	0			
0	0	0	0	0	493	512	488	0			
1	0	0	0	0	510	511	488	0			
2	0	0	0	0	523	508	488	0			
3	0	0	0	0	537	507	489	0			
4	0	0	0	0	539	502	488	0			
5	0	0	0	0	521	492	490	0			
6	0	0	0	0	520	493	490	0			
7	0	0	0	0	513	499	489	0			
8	0	0	0	0	515	505	489	0			
9	0	0	0	0	503	513	487	0			
10	0	0	0	0	512	525	487	0			
11	0	0	0	0	507	518	488	0			
12	0	0	0	0	499	512	488	0			
13	0	0	0	0	503	503	488	0			
14	0	0	0	0	520	500	488	0			
15	0	0	0	0	517	518	488	0			
0	0	0	0	0	507	529	489	0			
1	0	0	0	0	508	519	488	0			
2	0	0	0	0	504	516	488	0			
3	0	0	0	0	507	509	489	0			
4	0	0	0	0	494	496	489	0			
5	0	0	0	0	497	494	489	0			
6	0	0	0	0	492	489	488	0			
7	0	0	0	0	500	491	488	0			
8	0	0	0	0	505	509	488	0			
9	0	0	0	0	505	506	488	0			
10	0	0	0	0	521	495	487	0			
11	0	0	0	0	514	510	487	0			
12	0	0	0	0	517	528	487	0			
13	0	0	0	0	520	536	488	0			
14	0	0	0	0	499	521	487	0			
15	0	0	0	0	510	510	487	0			
0	0	0	0	0	527	500	487	0			
1	0	0	0	0	522	497	486	0			
2	0	0	0	0	530	500	486	0			
3	0	0	0	0	511	504	484	0			
4	0	0	0	0	504	512	481	0			
5	0	0	0	0	503	513	480	0			
6	0	0	0	0	489	506	481	0			
7	0	0	0	0	488	513	482	0			
8	0	0	0	0	499	519	482	0			
9	0	0	0	0	529	512	481	0			
10	0	0	0	0	533	502	482	0			
11	0	0	0	0	535	495	480	0			
12	0	0	0	0	539	499	479	0			
13	0	0	0	0	505	503	479	0			
14	0	0	0	0	502	501	480	0			
15	0	0	0	0	496	505	479	0			
0	0	0	0	0	486	503	478	0			
1	0	0	0	0	503	507	478	0			
2	0	0	0	0	521	517	478	0			
3	0	0	0	0	517	524	477	0			
4	0	0	0	0	509	516	476	0			
5	0	0	0	0	505	512	476	0			
6	0	0	0	0	500	509	476	0			
7	0	0	0	0	504	512	476	0			
8	0	0	0	0	501	510	477	0			
9	0	0	0	0	481	505	476	0			
10	0	0	0	0	524	506	476	0			
11	0	0	0	0	527	508	477	0			
12	0	0	0	0	499	501	476	0			
13	0	0	0	0	542	500	476	0			
14	0	0	0	0	606	508	475	0			
15	0	0	0	0	561	498	475	0			
0	0	0	0	0	513	500	476	0			
1	0	0	0	0	492	504	475	0			
2	0	0	0	0	481	517	475	0			
3	0	0	0	0	488	522	474	0			
4	0	0	0	0	496	514	474	0			
5	0	0	0	0	501	499	475	0			
6	0	0	0	0	497	501	474	0			
7	0	0	0	0	502	505	475	0			
8	0	0	0	0	511	512	475	0			
9	0	0	0	0	517	523	476	0			
10	0	0	0	0	522	525	476	0			
11	0	0	0	0	512	511	476	0			
12	0	0	0	0	508	502	475	0			
13	0	0	0	0	493	508	475	0			
14	0	0	0	0	492	506	475	0			
15	0	0	0	0	500	501	475	0			
0	0	0	0	0	509	498	474	0			
1	0	0	0	0	519	502	472	0			
2	0	0	0	0	531	506	473	0			
3	0	0	0	0	531	515	472	0			
4	0	0	0	0	519	506	472	0			
5	0	0	0	0	513	499	472	0			
6	0	0	0	0	481	503	475	0			
7	0	0	0	0	470	512	474	0			
8	0	0	0	0	483	511	474	0			
9	0	0	0	0	498	514	473	0			
10	0	0	0	0	523	512	473	0			
11	0	0	0	0	523	507	473	0			
12	0	0	0	0	532	511	473	0			
13	0	0	0	0	512	510	473	0			
14	0	0	0	0	495	508	473	0			
15	0	0	0	0	489	512	472	0			
0	0	0	0	0	495	500	473	0			
1	0	0	0	0	517	499	473	0			
2	0	0	0	0	548	501	473	0			
3	0	0	0	0	543	506	473	0			
4	0	0	0	0	523	509	473	0			
5	0	0	0	0	519	508	472	0			
6	0	0	0	0	513	515	471	0			
7	0	0	0	0	518	508	472	0			
8	0	0	0	0	525	498	472	0			
9	0	0	0	0	499	503	472	0			
10	0	0	0	0	494	502	472	0			
11	0	0	0	0	518	509	473	0			
12	0	0	0	0	526	508	472	0			
13	0	0	0	0	519	518	472	0			
14	0	0	0	0	540	514	473	0			
15	0	0	0	0	514	511	474	0			
0	0	0	0	0	454	510	475	0			
1	0	0	0	0	456	507	473	0			
2	0	0	0	0	498	513	473	0			
3	0	0	0	0	514	517	474	0			
4	0	0	0	0	511	505	474	0			
5	0	0	0	0	522	507	475	0			
6	0	0	0	0	524	504	476	0			
7	0	0	0	0	519	498	475	0			
8	0	0	0	0	524	512	475	0			
9	0	0	0	0	521	522	476	0			
10	0	0	0	0	517	522	475	0			
11	0	0	0	0	514	505	474	0			
12	0	0	0	0	522	500	473	0			
13	0	0	0	0	515	494	473	0			
14	0	0	0	0	498	481	473	0			
15	0	0	0	0	500	486	473	0			
0	0	0	0	0	506	504	474	0			
1	0	0	0	0	508	513	474	0			
2	0	0	0	0	497	513	474	0			
3	0	0	0	0	500	521	473	0			
4	0	0	0	0	503	534	474	0			
5	0	0	0	0	498	516	472	0			
6	0	0	0	0	508	508	472	0			
7	0	0	0	0	518	515	470	0			
8	0	0	0	0	519	517	470	0			
9	0	0	0	0	513	511	471	0			
10	0	0	0	0	519	504	471	0			
11	0	0	0	0	523	502	471	0			
12	0	0	0	0	520	501	470	0			
13	0	0	0	0	519	505	471	0			
14	0	0	0	0	512	505	472	0			
15	0	0	0	0	498	499	473	0			
0	0	0	0	0	497	497	473	0			
1	0	0	0	0	501	502	473	0			
2	0	0	0	0	521	513	472	0			
3	0	0	0	0	517	509	472	0			
4	0	0	0	0	527	508	472	0			
5	0	0	0	0	511	510	473	0			
6	0	0	0	0	522	509	472	0			
7	0	0	0	0	515	505	473	0			
8	0	0	0	0	480	510	472	0			
9	0	0	0	0	481	516	472	0			
10	0	0	0	0	502	511	473	0			
11	0	0	0	0	522	504	473	0			
12	0	0	0	0	530	502	473	0			
13	0	0	0	0	525	506	473	0			
14	0	0	0	0	521	505	473	0			
15	0	0	0	0	520	513	473	0			
0	0	0	0	0	495	513	472	0			
1	0	0	0	0	482	512	472	0			
2	0	0	0	0	471	504	471	0			
3	0	0	0	0	490	506	471	0			
4	0	0	0	0	506	503	469	0			
5	0	0	0	0	505	506	470	0			
6	0	0	0	0	492	508	470	0			
7	0	0	0	0	506	506	471	0			
8	0	0	0	0	538	509	469	0			
9	0	0	0	0	543	510	469	0			
10	0	0	0	0	572	514	468	0			
11	0	0	0	0	551	507	468	0			
12	0	0	0	0	523	505	469	0			
13	0	0	0	0	505	506	468	0			
14	0	0	0	0	518	512	468	0			
15	0	0	0	0	516	513	469	0			
0	0	0	0	0	515	505	469	0			
1	0	0	0	0	498	499	469	0			
2	0	0	0	0	499	510	470	0			
3	0	0	0	0	513	518	469	0			
4	0	0	0	0	514	506	469	0			
5	0	0	0	0	500	505	470	0			
6	0	0	0	0	514	504	469	0			
7	0	0	0	0	521	505	469	0			
8	0	0	0	0	507	502	471	0			
9	0	0	0	0	495	515	469	0			
10	0	0	0	0	492	513	468	0			
11	0	0	0	0	477	510	468	0			
12	0	0	0	0	486	511	469	0			
13	0	0	0	0	501	512	468	0			
14	0	0	0	0	508	502	469	0			
15	0	0	0	0	514	508	468	0			
0	0	0	0	0	526	507	468	0			
1	0	0	0	0	524	509	469	0			
2	0	0	0	0	506	507	469	0			
3	0	0	0	0	511	508	468	0			
4	0	0	0	0	527	503	468	0			
5	0	0	0	0	560	505	467	0			
6	0	0	0	0	558	512	467	0			
7	0	0	0	0	536	511	467	0			
8	0	0	0	0	513	508	467	0			
9	0	0	0	0	481	510	467	0			
10	0	0	0	0	446	504	467	0			
11	0	0	0	0	439	501	468	0			
12	0	0	0	0	484	504	467	0			
13	0	0	0	0	506	511	468	0			
14	0	0	0	0	513	507	468	0			
15	0	0	0	0	512	506	468	0			
0	0	0	0	0	512	506	468	0			
1	0	0	0	0	519	505	467	0			
2	0	0	0	0	515	511	467	0			
3	0	0	0	0	502	515	467	0			
4	0	0	0	0	502	504	466	0			
5	0	0	0	0	502	508	467	0			
6	0	0	0	0	517	514	467	0			
7	0	0	0	0	525	514	467	0			
8	0	0	0	0	539	504	467	0			
9	0	0	0	0	553	503	467	0			
10	0	0	0	0	546	508	466	0			
11	0	0	0	0	532	508	466	0			
12	0	0	0	0	516	511	466	0			
13	0	0	0	0	503	504	467	0			
14	0	0	0	0	505	513	467	0			
15	0	0	0	0	501	518	466	0			
0	0	0	0	0	498	506	467	0			
1	0	0	0	0	508	506	467	0			
2	0	0	0	0	514	504	467	0			
3	0	0	0	0	515	508	467	0			
4	0	0	0	0	504	505	465	0			
5	0	0	0	0	499	500	466	0			
6	0	0	0	0	510	501	466	0			
7	0	0	0	0	506	502	467	0			
8	0	0	0	0	510	511	467	0			
9	0	0	0	0	501	514	467	0			
10	0	0	0	0	496	515	467	0			
11	0	0	0	0	481	519	467	0			
12	0	0	0	0	480	516	467	0			
13	0	0	0	0	491	515	468	0			
14	0	0	0	0	499	505	467	0			
15	0	0	0	0	545	498	467	0			
0	0	0	0	0	566	507	469	0			
1	0	0	0	0	558	507	468	0			
2	0	0	0	0	531	505	468	0			
3	0	0	0	0	494	510	468	0			
4	0	0	0	0	496	499	467	0			
5	0	0	0	0	496	499	467	0			
6	0	0	0	0	503	508	467	0			
7	0	0	0	0	511	510	466	0			
8	0	0	0	0	511	510	466	0			
9	0	0	0	0	507	509	466	0			
10	0	0	0	0	514	509	464	0			
11	0	0	0	0	512	508	464	0			
12	0	0	0	0	508	510	465	0			
13	0	0	0	0	493	510	465	0			
14	0	0	0	0	503	513	464	0			
15	0	0	0	0	516	506	463	0			
0	0	0	0	0	529	504	464	0			
1	0	0	0	0	540	507	464	0			
2	0	0	0	0	538	507	464	0			
3	0	0	0	0	512	506	465	0			
4	0	0	0	0	497	510	464	0			
5	0	0	0	0	490	505	463	0			
6	0	0	0	0	480	499	463	0			
7	0	0	0	0	501	499	463	0			
8	0	0	0	0	512	504	464	0			
9	0	0	0	0	509	514	464	0			
10	0	0	0	0	510	516	465	0			
11	0	0	0	0	516	513	465	0			
12	0	0	0	0	505	504	465	0			
13	0	0	0	0	510	502	465	0			
14	0	0	0	0	511	514	465	0			
15	0	0	0	0	512	518	465	0			
0	0	0	0	0	508	513	466	0			
1	0	0	0	0	515	514	466	0			
2	0	0	0	0	523	511	466	0			
3	0	0	0	0	521	511	465	0			
4	0	0	0	0	516	511	465	0			
5	0	0	0	0	502	499	466	0			
6	0	0	0	0	499	494	466	0			
7	0	0	0	0	502	501	465	0			
8	0	0	0	0	490	507	465	0			
9	0	0	0	0	505	511	465	0			
10	0	0	0	0	533	507	466	0			
11	0	0	0	0	553	509	465	0			
12	0	0	0	0	532	507	466	0			
13	0	0	0	0	501	502	465	0			
14	0	0	0	0	500	504	465	0			
15	0	0	0	0	507	506	464	0			
0	0	0	0	0	505	508	465	0			
1	0	0	0	0	499	510	466	0			
2	0	0	0	0	502	509	466	0			
3	0	0	0	0	505	511	465	0			
4	0	0	0	0	510	515	466	0			
5	0	0	0	0	507	512	465	0			
6	0	0	0	0	513	506	463	0			
7	0	0	0	0	507	505	463	0			
8	0	0	0	0	514	504	464	0			
9	0	0	0	0	522	510	462	0			
10	0	0	0	0	531	508	461	0			
11	0	0	0	0	519	506	460	0			
12	0	0	0	0	519	506	460	0			
13	0	0	0	0	508	507	461	0			
14	0	0	0	0	521	513	460	0			
15	0	0	0	0	511	516	459	0			
0	0	0	0	0	492	514	459	0			
1	0	0	0	0	482	508	459	0			
2	0	0	0	0	500	504	459	0			
3	0	0	0	0	505	499	458	0			
4	0	0	0	0	507	500	458	0			
5	0	0	0	0	512	501	458	0			
6	0	0	0	0	515	504	457	0			
7	0	0	0	0	516	506	456	0			
8	0	0	0	0	514	515	456	0			
9	0	0	0	0	520	519	456	0			
10	0	0	0	0	517	516	456	0			
11	0	0	0	0	529	511	455	0			
12	0	0	0	0	528	510	455	0			
13	0	0	0	0	530	505	455	0			
14	0	0	0	0	534	505	455	0			
15	0	0	0	0	511	504	455	0			
0	0	0	0	0	503	500	455	0			
1	0	0	0	0	491	502	455	0			
2	0	0	0	0	476	506	455	0			
3	0	0	0	0	461	511	454	0			
4	0	0	0	0	449	506	455	0			
5	0	0	0	0	480	505	453	0			
6	0	0	0	0	516	509	454	0			
7	0	0	0	0	522	512	454	0			
8	0	0	0	0	528	517	453	0			
9	0	0	0	0	518	512	453	0			
10	0	0	0	0	527	507	453	0			
11	0	0	0	0	543	505	454	0			
12	0	0	0	0	531	507	454	2			
13	0	0	0	0	524	513	455	3			
14	0	0	0	0	501	512	454	6			
15	0	0	0	0	510	510	455	7			
0	0	0	0	0	512	503	455	7			
1	0	0	0	0	515	501	455	9			
2	0	0	0	0	490	503	455	10			
3	0	0	0	0	499	505	455	13			
4	0	0	0	0	520	510	455	14			
5	0	0	0	0	513	507	455	14			
6	0	0	0	0	513	507	455	15			
7	0	0	0	0	520	507	455	15			
8	0	0	0	0	525	503	455	15			
9	0	0	0	0	505	506	455	15			
10	0	0	0	0	514	514	454	15			
11	0	0	0	0	524	511	454	18			
12	0	0	0	0	509	507	454	19			
13	0	0	0	0	528	504	454	17			
14	0	0	0	0	535	506	453	17			
15	0	0	0	0	525	504	453	19			
0	0	0	0	0	510	511	454	18			
1	0	0	0	0	501	513	453	20			
2	0	0	0	0	490	509	453	20			
3	0	0	0	0	487	512	452	18			
4	0	0	0	0	480	514	452	16			
5	0	0	0	0	477	513	452	19			
6	0	0	0	0	487	505	450	22			
7	0	0	0	0	515	499	449	23			
8	0	0	0	0	532	500	450	23			
9	0	0	0	0	540	498	448	24			
10	0	0	0	0	530	505	447	25			
11	0	0	0	0	513	511	446	27			
12	0	0	0	0	495	507	447	27			
13	0	0	0	0	495	506	449	27			
14	0	0	0	0	512	507	449	27			
15	0	0	0	0	514	511	450	31			
0	0	0	0	0	520	516	444	28			
1	0	0	0	0	494	511	444	32			
2	0	0	0	0	488	511	447	30			
3	0	0	0	0	494	509	444	31			
4	0	0	0	0	502	516	447	33			
5	0	0	0	0	517	518	447	34			
6	0	0	0	0	517	513	447	36			
7	0	0	0	0	521	505	448	34			
8	0	0	0	0	516	501	448	33			
9	0	0	0	0	508	497	449	34			
10	0	0	0	0	509	497	449	35			
11	0	0	0	0	522	500	449	33			
12	0	0	0	0	527	502	450	35			
13	0	0	0	0	515	511	449	35			
14	0	0	0	0	516	520	451	35			
15	0	0	0	0	509	517	451	35			
0	0	0	0	0	514	516	452	37			
1	0	0	0	0	504	512	453	41			
2	0	0	0	0	519	504	451	39			
3	0	0	0	0	521	502	451	37			
4	0	0	0	0	519	505	451	36			
5	0	0	0	0	515	504	451	33			
6	0	0	0	0	527	511	445	35			
7	0	0	0	0	517	516	447	33			
8	0	0	0	0	505	517	446	34			
9	0	0	0	0	509	511	448	36			
10	0	0	0	0	504	505	446	39			
11	0	0	0	0	513	503	446	41			
12	0	0	0	0	525	504	444	39			
13	0	0	0	0	525	505	445	35			
14	0	0	0	0	516	504	444	39			
15	0	0	0	0	506	503	443	39			
0	0	0	0	0	513	507	444	36			
1	0	0	0	0	500	505	447	38			
2	0	0	0	0	501	502	447	41			
3	0	0	0	0	501	506	448	44			
4	0	0	0	0	504	508	451	39			
5	0	0	0	0	497	510	450	39			
6	0	0	0	0	477	509	450	38			
7	0	0	0	0	482	507	450	35			
8	0	0	0	0	491	510	449	37			
9	0	0	0	0	497	507	448	34			
10	0	0	0	0	511	511	448	36			
11	0	0	0	0	511	508	447	39			
12	0	0	0	0	532	513	444	36			
13	0	0	0	0	533	512	445	37			
14	0	0	0	0	529	509	444	34			
15	0	0	0	0	535	507	442	33			
0	0	0	0	0	527	509	443	32			
1	0	0	0	0	513	504	443	30			
2	0	0	0	0	500	507	442	28			
3	0	0	0	0	503	506	440	28			
4	0	0	0	0	522	504	439	31			
5	0	0	0	0	525	506	438	27			
6	0	0	0	0	518	506	440	23			
7	0	0	0	0	512	505	440	22			
8	0	0	0	0	503	504	437	26			
9	0	0	0	0	496	506	434	27			
10	0	0	0	0	492	508	427	23			
11	0	0	0	0	502	511	418	18			
12	0	0	0	0	508	508	415	17			
13	0	0	0	0	507	505	405	15			
14	0	0	0	0	504	509	402	14			
15	0	0	0	0	502	511	398	9			
0	0	0	0	0	512	513	393	6			
1	0	0	0	0	529	516	391	4			
2	0	0	0	0	533	510	390	4			
3	0	0	0	0	516	509	384	4			
4	0	0	0	0	520	511	373	1			
5	0	0	0	0	513	508	359	4			
6	0	0	0	0	509	502	354	1			
7	0	0	0	0	508	504	352	0			
8	0	0	0	0	506	507	347	0			
9	0	0	0	0	504	505	344	0			
10	0	0	0	0	512	503	340	0			
11	0	0	0	0	510	505	339	0			
12	0	0	0	0	511	510	331	0			
13	0	0	0	0	508	511	328	0			
14	0	0	0	0	502	510	329	0			
15	0	0	0	0	504	505	326	0			
0	0	0	0	0	503	507	322	0			
1	0	0	0	0	506	507	321	0			
2	0	0	0	0	519	507	324	0			
3	0	0	0	0	526	508	323	0			
4	0	0	0	0	514	509	322	0			
5	0	0	0	0	508	514	322	0			
6	0	0	0	0	515	514	323	0			
7	0	0	0	0	519	509	324	0			
8	0	0	0	0	515	508	323	0			
9	0	0	0	0	507	508	323	0			
10	0	0	0	0	507	508	325	0			
11	0	0	0	0	508	504	325	0			
12	0	0	0	0	515	504	325	0			
13	0	0	0	0	512	502	324	0			
14	0	0	0	0	507	505	323	0			
15	0	0	0	0	512	506	323	0			
0	0	0	0	0	509	505	324	0			
1	0	0	0	0	515	504	325	0			
2	0	0	0	0	510	505	324	0			
3	0	0	0	0	507	508	324	0			
4	0	0	0	0	517	509	323	0			
5	0	0	0	0	499	512	321	0			
6	0	0	0	0	494	510	321	0			
7	0	0	0	0	500	510	320	0			
8	0	0	0	0	514	515	320	0			
9	0	0	0	0	514	512	320	0			
10	0	0	0	0	512	508	321	0			
11	0	0	0	0	522	510	321	0			
12	0	0	0	0	523	506	322	0			
13	0	0	0	0	519	505	321	0			
14	0	0	0	0	518	508	322	0			
15	0	0	0	0	518	509	323	0			
0	0	0	0	0	513	507	325	0			
1	0	0	0	0	509	505	328	0			
2	0	0	0	0	509	505	329	0			
3	0	0	0	0	496	505	330	0			
4	0	0	0	0	482	502	331	0			
5	0	0	0	0	498	505	331	0			
6	0	0	0	0	492	508	332	0			
7	0	0	0	0	501	510	330	0			
8	0	0	0	0	524	510	330	0			
9	0	0	0	0	523	506	329	0			
10	0	0	0	0	517	509	329	0			
11	0	0	0	0	514	511	329	0			
12	0	0	0	0	521	510	330	0			
13	0	0	0	0	530	510	328	0			
14	0	0	0	0	527	511	328	0			
15	0	0	0	0	525	510	328	0			
0	0	0	0	0	513	507	328	0			
1	0	0	0	0	497	510	327	0			
2	0	0	0	0	494	508	328	0			
3	0	0	0	0	516	512	329	0			
4	0	0	0	0	526	511	331	0			
5	0	0	0	0	508	508	331	0			
6	0	0	0	0	515	504	331	0			
7	0	0	0	0	515	501	331	0			
8	0	0	0	0	515	503	330	0			
9	0	0	0	0	502	508	330	0			
10	0	0	0	0	476	509	329	0			
11	0	0	0	0	472	506	328	0			
12	0	0	0	0	482	505	328	0			
13	0	0	0	0	502	503	328	0			
14	0	0	0	0	509	506	328	0			
15	0	0	0	0	504	510	327	0			
0	0	0	0	0	516	512	325	0			
1	0	0	0	0	528	513	323	0			
2	0	0	0	0	536	515	324	0			
3	0	0	0	0	541	511	323	0			
4	0	0	0	0	542	508	322	0			
5	0	0	0	0	531	507	321	0			
6	0	0	0	0	532	510	320	0			
7	0	0	0	0	525	505	319	0			
8	0	0	0	0	512	504	318	0			
9	0	0	0	0	495	509	318	0			
10	0	0	0	0	476	509	316	0			
11	0	0	0	0	495	507	313	0			
12	0	0	0	0	494	505	312	0			
13	0	0	0	0	473	504	312	0			
14	0	0	0	0	488	500	307	0			
15	0	0	0	0	529	504	305	0			
0	0	0	0	0	530	507	307	0			
1	0	0	0	0	498	506	305	0			
2	0	0	0	0	504	515	304	0			
3	0	0	0	0	525	513	303	0			
4	0	0	0	0	522	516	299	0			
5	0	0	0	0	507	513	299	0			
6	0	0	0	0	497	512	298	0			
7	0	0	0	0	515	514	299	0			
8	0	0	0	0	525	510	297	0			
9	0	0	0	0	531	505	299	0			
10	0	0	0	0	536	507	298	0			
11	0	0	0	0	501	508	299	0			
12	0	0	0	0	483	504	298	0			
13	0	0	0	0	497	507	298	0			
14	0	0	0	0	539	506	297	0			
15	0	0	0	0	535	507	293	0			
0	0	0	0	0	534	503	291	0			
1	0	0	0	0	528	506	282	0			
2	0	0	0	0	503	505	279	0			
3	0	0	0	0	479	505	279	0			
4	0	0	0	0	482	509	276	0			
5	0	0	0	0	461	508	274	0			
6	0	0	0	0	489	504	270	0			
7	0	0	0	0	516	509	267	0			
8	0	0	0	0	515	511	262	0			
9	0	0	0	0	514	512	265	0			
10	0	0	0	0	517	515	260	0			
11	0	0	0	0	500	519	244	0			
12	0	0	0	0	508	512	234	0			
13	0	0	0	0	522	510	223	0			
14	0	0	0	0	528	508	218	0			
15	0	0	0	0	523	505	207	0			
0	0	0	0	0	509	502	208	0			
1	0	0	0	0	502	506	215	0			
2	0	0	0	0	506	504	207	0			
3	0	0	0	0	514	504	201	0			
4	0	0	0	0	517	504	182	0			
5	0	0	0	0	530	507	178	0			
6	0	0	0	0	540	505	166	0			
7	0	0	0	0	551	504	165	0			
8	0	0	0	0	541	506	150	0			
9	0	0	0	0	524	511	131	0			
10	0	0	0	0	512	510	121	0			
11	0	0	0	0	499	509	111	0			
12	0	0	0	0	459	511	128	0			
13	0	0	0	0	455	512	138	0			
14	0	0	0	0	473	512	112	0			
15	0	0	0	0	490	508	109	0			
0	0	0	0	0	525	508	117	0			
1	0	0	0	0	536	506	120	0			
2	0	0	0	0	534	505	103	0			
3	0	0	0	0	539	510	101	0			
4	0	0	0	0	534	509	95	0			
5	0	0	0	0	507	509	94	0			
6	0	0	0	0	481	508	82	0			
7	0	0	0	0	496	504	99	0			
8	0	0	0	0	506	503	86	0			
9	0	0	0	0	513	506	74	0			
10	0	0	0	0	526	507	66	0			
11	0	0	0	0	513	509	67	0			
12	0	0	0	0	493	508	70	0			
13	0	0	0	0	491	507	89	0			
14	0	0	0	0	495	506	81	0			
15	0	0	0	0	498	510	58	0			
0	0	0	0	0	524	509	90	0			
1	0	0	0	0	543	511	76	0			
2	0	0	0	0	540	511	63	0			
3	0	0	0	0	526	510	71	0			
4	0	0	0	0	504	508	61	0			
5	0	0	0	0	509	507	64	0			
6	0	0	0	0	507	509	51	0			
7	0	0	0	0	489	510	50	0			
8	0	0	0	0	480	508	51	0			
9	0	0	0	0	504	507	51	0			
10	0	0	0	0	509	508	49	0			
11	0	0	0	0	510	509	46	0			
12	0	0	0	0	525	501	22	0			
13	0	0	0	0	515	504	21	0			
14	0	0	0	0	506	507	22	0			
15	0	0	0	0	505	509	22	0			
0	0	0	0	0	517	509	23	0			
1	0	0	0	0	509	508	21	0			
2	0	0	0	0	516	511	20	0			
3	0	0	0	0	526	509	9	0			
4	0	0	0	0	522	513	18	0			
5	0	0	0	0	509	513	15	0			
6	0	0	0	0	512	508	11	0			
7	0	0	0	0	520	509	12	0			
8	0	0	0	0	504	508	7	0			
9	0	0	0	0	493	508	14	0			
10	0	0	0	0	494	508	19	0			
11	0	0	0	0	516	507	9	0			
12	0	0	0	0	519	508	0	0			
13	0	0	0	0	511	507	0	0			
14	0	0	0	0	501	505	0	0			
15	0	0	0	0	496	510	0	0			
0	0	0	0	0	493	511	0	0			
1	0	0	0	0	510	506	0	0			
2	0	0	0	0	526	505	0	0			
3	0	0	0	0	530	505	0	0			
4	0	0	0	0	519	504	0	0			
5	0	0	0	0	514	508	0	0			
6	0	0	0	0	512	510	0	0			
7	0	0	0	0	507	506	0	0			
8	0	0	0	0	509	509	0	0			
9	0	0	0	0	522	512	0	0			
10	0	0	0	0	520	512	0	0			
11	0	0	0	0	508	510	0	0			
12	0	0	0	0	511	508	0	0			
13	0	0	0	0	508	508	0	0			
14	0	0	0	0	508	506	0	0			
15	0	0	0	0	515	506	0	0			
0	0	0	0	0	510	506	0	0			
1	0	0	0	0	515	505	0	0			
2	0	0	0	0	505	507	0	0			
3	0	0	0	0	526	504	0	0			
4	0	0	0	0	523	505	0	0			
5	0	0	0	0	515	507	0	0			
6	0	0	0	0	517	512	0	0			
7	0	0	0	0	508	508	0	0			
8	0	0	0	0	497	509	0	0			
9	0	0	0	0	490	507	0	0			
10	0	0	0	0	500	509	0	0			
11	0	0	0	0	502	509	0	0			
12	0	0	0	0	484	512	0	0			
13	0	0	0	0	490	511	0	0			
14	0	0	0	0	500	511	0	0			
15	0	0	0	0	505	508	0	0			
0	0	0	0	0	518	508	0	0			
1	0	0	0	0	528	507	0	0			
2	0	0	0	0	531	505	0	0			
3	0	0	0	0	533	508	0	0			
4	0	0	0	0	531	506	0	0			
5	0	0	0	0	519	507	0	0			
6	0	0	0	0	511	508	0	0			
7	0	0	0	0	504	505	0	0			
8	0	0	0	0	504	505	0	0			
9	0	0	0	0	505	507	0	0			
10	0	0	0	0	507	508	0	0			
11	0	0	0	0	513	507	0	0			
12	0	0	0	0	512	507	0	0			
13	0	0	0	0	516	509	0	0			
14	0	0	0	0	523	511	0	0			
15	0	0	0	0	523	509	0	0			
0	0	0	0	0	512	508	0	0			
1	0	0	0	0	492	510	0	0			
2	0	0	0	0	491	511	0	0			
3	0	0	0	0	492	510	0	0			
4	0	0	0	0	509	508	0	0			
5	0	0	0	0	526	507	0	0			
6	0	0	0	0	526	504	0	0			
7	0	0	0	0	519	506	0	0			
8	0	0	0	0	515	508	0	0			
9	0	0	0	0	520	507	0	0			
10	0	0	0	0	517	507	0	0			
11	0	0	0	0	508	508	0	0			
12	0	0	0	0	501	507	0	0			
13	0	0	0	0	493	504	0	0			
14	0	0	0	0	486	507	0	0			
15	0	0	0	0	489	506	0	0			
0	0	0	0	0	499	507	0	0			
1	0	0	0	0	505	510	0	0			
2	0	0	0	0	524	511	0	0			
3	0	0	0	0	520	509	0	0			
4	0	0	0	0	519	513	0	0			
5	0	0	0	0	519	509	0	0			
6	0	0	0	0	522	509	0	0			
7	0	0	0	0	516	508	0	0			
8	0	0	0	0	510	511	0	0			
9	0	0	0	0	507	506	0	0			
10	0	0	0	0	512	505	0	0			
11	0	0	0	0	542	504	0	0			
12	0	0	0	0	525	506	0	0			
13	0	0	0	0	505	509	0	0			
14	0	0	0	0	510	507	0	0			
15	0	0	0	0	519	506	0	0			
0	0	0	0	0	503	505	0	0			
1	0	0	0	0	497	506	0	0			
2	0	0	0	0	512	510	0	0			
3	0	0	0	0	508	508	0	0			
4	0	0	0	0	486	508	0	0			
5	0	0	0	0	481	507	0	0			
6	0	0	0	0	501	510	0	0			
7	0	0	0	0	503	508	0	0			
8	0	0	0	0	516	510	0	0			
9	0	0	0	0	523	512	0	0			
10	0	0	0	0	520	510	0	0			
11	0	0	0	0	520	511	0	0			
12	0	0	0	0	511	509	0	0			
13	0	0	0	0	508	508	0	0			
14	0	0	0	0	510	507	0	0			
15	0	0	0	0	512	507	0	0			
0	0	0	0	0	516	505	0	0			
1	0	0	0	0	521	508	0	0			
2	0	0	0	0	519	505	0	0			
3	0	0	0	0	518	505	0	0			
4	0	0	0	0	513	504	0	0			
5	0	0	0	0	511	505	0	0			
6	0	0	0	0	502	506	0	0			
7	0	0	0	0	507	507	0	0			
8	0	0	0	0	499	508	0	0			
9	0	0	0	0	491	508	0	0			
10	0	0	0	0	506	508	0	0			
11	0	0	0	0	515	511	0	0			
12	0	0	0	0	523	513	0	0			
13	0	0	0	0	518	512	0	0			
14	0	0	0	0	509	510	0	0			
15	0	0	0	0	510	507	0	0			
0	0	0	0	0	519	508	0	0			
1	0	0	0	0	520	508	0	0			
2	0	0	0	0	523	506	0	0			
3	0	0	0	0	523	507	0	0			
4	0	0	0	0	512	508	0	0			
5	0	0	0	0	495	507	0	0			
6	0	0	0	0	496	507	0	0			
7	0	0	0	0	487	506	0	0			
8	0	0	0	0	493	504	0	0			
9	0	0	0	0	507	507	0	0			
10	0	0	0	0	510	507	0	0			
11	0	0	0	0	519	508	0	0			
12	0	0	0	0	514	508	0	0			
13	0	0	0	0	515	507	0	0			
14	0	0	0	0	516	509	0	0			
15	0	0	0	0	510	510	0	0			
0	0	0	0	0	505	511	0	0			
1	0	0	0	0	515	514	0	0			
2	0	0	0	0	515	512	0	0			
3	0	0	0	0	518	511	0	0			
4	0	0	0	0	515	508	0	0			
5	0	0	0	0	511	507	0	0			
6	0	0	0	0	504	507	0	0			
7	0	0	0	0	513	505	0	0			
8	0	0	0	0	511	505	0	0			
9	0	0	0	0	519	507	0	0			
10	0	0	0	0	528	505	0	0			
11	0	0	0	0	521	504	0	0			
12	0	0	0	0	503	506	0	0			
13	0	0	0	0	479	506	0	0			
14	0	0	0	0	487	507	0	0			
15	0	0	0	0	503	507	0	0			
0	0	0	0	0	512	509	0	0			
1	0	0	0	0	512	508	0	0			
2	0	0	0	0	513	508	0	0			
3	0	0	0	0	505	508	0	0			
4	0	0	0	0	514	509	0	0			
5	0	0	0	0	521	513	0	0			
6	0	0	0	0	521	511	0	0			
7	0	0	0	0	512	510	0	0			
8	0	0	0	0	507	508	0	0			
9	0	0	0	0	514	508	0	0			
10	0	0	0	0	523	507	0	0			
11	0	0	0	0	520	506	0	0			
12	0	0	0	0	530	507	0	0			
13	0	0	0	0	519	506	0	0			
14	0	0	0	0	511	505	0	0			
15	0	0	0	0	498	506	0	0			
0	0	0	0	0	504	505	0	0			
1	0	0	0	0	497	507	0	0			
2	0	0	0	0	489	505	0	0			
3	0	0	0	0	498	506	0	0			
4	0	0	0	0	513	510	0	0			
5	0	0	0	0	520	509	0	0			
6	0	0	0	0	519	510	0	0			
7	0	0	0	0	518	510	0	0			
8	0	0	0	0	515	513	0	0			
9	0	0	0	0	509	513	0	0			
10	0	0	0	0	499	512	0	0			
11	0	0	0	0	507	509	0	0			
12	0	0	0	0	515	508	0	0			
13	0	0	0	0	526	507	0	0			
14	0	0	0	0	524	508	0	0			
15	0	0	0	0	522	504	0	0			
0	0	0	0	0	518	506	0	0			
1	0	0	0	0	500	507	0	0			
2	0	0	0	0	489	506	0	0			
3	0	0	0	0	489	505	0	0			
4	0	0	0	0	495	505	0	0			
5	0	0	0	0	513	506	0	0			
6	0	0	0	0	521	508	0	0			
7	0	0	0	0	515	508	0	0			
8	0	0	0	0	505	507	0	0			
9	0	0	0	0	501	508	0	0			
10	0	0	0	0	501	508	0	0			
11	0	0	0	0	499	508	0	0			
12	0	0	0	0	515	509	0	0			
13	0	0	0	0	522	511	0	0			
14	0	0	0	0	521	511	0	0			
15	0	0	0	0	512	513	0	0			
0	0	0	0	0	516	510	0	0			
1	0	0	0	0	519	507	0	0			
2	0	0	0	0	520	506	0	0			
3	0	0	0	0	512	508	0	0			
4	0	0	0	0	506	509	0	0			
5	0	0	0	0	512	508	0	0			
6	0	0	0	0	515	507	0	0			
7	0	0	0	0	516	504	0	0			
8	0	0	0	0	511	504	0	0			
9	0	0	0	0	512	505	0	0			
10	0	0	0	0	517	507	0	0			
11	0	0	0	0	515	508	0	0			
12	0	0	0	0	504	508	0	0			
13	0	0	0	0	492	508	0	0			
14	0	0	0	0	492	508	0	0			
15	0	0	0	0	505	510	0	0			
0	0	0	0	0	507	512	0	0			
1	0	0	0	0	515	513	0	0			
2	0	0	0	0	524	512	0	0			
3	0	0	0	0	519	509	0	0			
4	0	0	0	0	512	509	0	0			
5	0	0	0	0	521	509	0	0			
6	0	0	0	0	517	506	0	0			
7	0	0	0	0	523	505	0	0			
8	0	0	0	0	517	504	0	0			
9	0	0	0	0	515	508	0	0			
10	0	0	0	0	511	507	0	0			
11	0	0	0	0	504	505	0	0			
12	0	0	0	0	502	505	0	0			
13	0	0	0	0	489	507	0	0			
14	0	0	0	0	486	506	0	0			
15	0	0	0	0	496	506	0	0			
0	0	0	0	0	502	507	0	0			
1	0	0	0	0	516	508	0	0			
2	0	0	0	0	519	510	0	0			
3	0	0	0	0	521	508	0	0			
4	0	0	0	0	518	510	0	0			
5	0	0	0	0	512	514	0	0			
6	0	0	0	0	507	512	0	0			
7	0	0	0	0	518	508	0	0			
8	0	0	0	0	531	505	0	0			
9	0	0	0	0	519	505	0	0			
10	0	0	0	0	508	507	0	0			
11	0	0	0	0	509	509	0	0			
12	0	0	0	0	507	509	0	0			
13	0	0	0	0	501	509	0	0			
14	0	0	0	0	505	504	0	0			
15	0	0	0	0	498	507	0	0			
0	0	0	0	0	500	506	0	0			
1	0	0	0	0	510	507	0	0			
2	0	0	0	0	508	504	0	0			
3	0	0	0	0	511	507	0	0			
4	0	0	0	0	531	508	0	0			
5	0	0	0	0	510	510	0	0			
6	0	0	0	0	501	508	0	0			
7	0	0	0	0	507	511	0	0			
8	0	0	0	0	494	512	0	0			
9	0	0	0	0	508	509	0	0			
10	0	0	0	0	520	508	0	0			
11	0	0	0	0	533	507	0	0			
12	0	0	0	0	546	508	0	0			
13	0	0	0	0	530	510	0	0			
14	0	0	0	0	513	508	0	0			
15	0	0	0	0	505	508	0	0			
0	0	0	0	0	496	508	0	0			
1	0	0	0	0	457	506	0	0			
2	0	0	0	0	483	505	0	0			
3	0	0	0	0	511	503	0	0			
4	0	0	0	0	518	505	0	0			
5	0	0	0	0	519	508	0	0			
6	0	0	0	0	517	508	0	0			
7	0	0	0	0	517	508	0	0			
8	0	0	0	0	515	507	0	0			
9	0	0	0	0	522	506	0	0			
10	0	0	0	0	531	507	0	0			
11	0	0	0	0	522	508	0	0			
12	0	0	0	0	503	514	0	0			
13	0	0	0	0	503	514	0	0			
14	0	0	0	0	519	514	0	0			
15	0	0	0	0	507	508	0	0			
0	0	0	0	0	506	506	0	0			
1	0	0	0	0	508	508	0	0			
2	0	0	0	0	511	506	0	0			
3	0	0	0	0	517	507	0	0			
4	0	0	0	0	509	507	0	0			
5	0	0	0	0	508	507	0	0			
6	0	0	0	0	498	504	0	0			
7	0	0	0	0	496	507	0	0			
8	0	0	0	0	499	506	0	0			
9	0	0	0	0	504	509	0	0			
10	0	0	0	0	518	509	0	0			
11	0	0	0	0	519	509	0	0			
12	0	0	0	0	531	508	0	0			
13	0	0	0	0	526	506	0	0			
14	0	0	0	0	525	506	0	0			
15	0	0	0	0	512	507	0	0			
0	0	0	0	0	506	512	0	0			
1	0	0	0	0	493	511	0	0			
2	0	0	0	0	478	508	0	0			
3	0	0	0	0	493	508	0	0			
4	0	0	0	0	496	509	0	0			
5	0	0	0	0	509	510	0	0			
6	0	0	0	0	521	509	0	0			
7	0	0	0	0	522	508	0	0			
8	0	0	0	0	518	508	0	0			
9	0	0	0	0	523	505	0	0			
10	0	0	0	0	524	504	0	0			
11	0	0	0	0	520	506	0	0			
12	0	0	0	0	510	505	0	0			
13	0	0	0	0	511	505	0	0			
14	0	0	0	0	510	510	0	0			
15	0	0	0	0	508	509	0	0			
0	0	0	0	0	521	510	0	0			
1	0	0	0	0	513	508	0	0			
2	0	0	0	0	499	509	0	0			
3	0	0	0	0	487	508	0	0			
4	0	0	0	0	491	511	0	0			
5	0	0	0	0	510	512	0	0			
6	0	0	0	0	527	512	0	0			
7	0	0	0	0	523	506	0	0			
8	0	0	0	0	517	509	0	0			
9	0	0	0	0	508	509	0	0			
10	0	0	0	0	510	508	0	0			
11	0	0	0	0	515	506	0	0			
12	0	0	0	0	505	507	0	0			
13	0	0	0	0	506	505	0	0			
14	0	0	0	0	520	504	0	0			
15	0	0	0	0	507	505	0	0			
0	0	0	0	0	495	505	0	0			
1	0	0	0	0	508	507	0	0			
2	0	0	0	0	519	506	0	0			
3	0	0	0	0	515	508	0	0			
4	0	0	0	0	516	508	0	0			
5	0	0	0	0	510	511	0	0			
6	0	0	0	0	497	510	0	0			
7	0	0	0	0	491	507	0	0			
8	0	0	0	0	502	511	0	0			
9	0	0	0	0	518	512	0	0			
10	0	0	0	0	531	510	0	0			
11	0	0	0	0	541	507	0	0			
12	0	0	0	0	530	508	0	0			
13	0	0	0	0	521	509	0	0			
14	0	0	0	0	515	509	0	0			
15	0	0	0	0	512	507	0	0			
0	0	0	0	0	498	507	0	0			
1	0	0	0	0	500	505	0	0			
2	0	0	0	0	496	506	0	0			
3	0	0	0	0	478	505	0	0			
4	0	0	0	0	487	506	0	0			
5	0	0	0	0	494	507	0	0			
6	0	0	0	0	500	506	0	0			
7	0	0	0	0	516	509	0	0			
8	0	0	0	0	529	510	0	0			
9	0	0	0	0	527	508	0	0			
10	0	0	0	0	525	511	0	0			
11	0	0	0	0	525	510	0	0			
12	0	0	0	0	513	512	0	0			
13	0	0	0	0	489	511	0	0			
14	0	0	0	0	496	507	0	0			
15	0	0	0	0	518	510	0	0			
0	0	0	0	0	527	507	0	0			
1	0	0	0	0	515	504	0	0			
2	0	0	0	0	502	504	0	0			
3	0	0	0	0	507	508	0	0			
4	0	0	0	0	516	507	0	0			
5	0	0	0	0	514	506	0	0			
6	0	0	0	0	518	505	0	0			
7	0	0	0	0	511	505	0	0			
8	0	0	0	0	512	508	0	0			
9	0	0	0	0	514	507	0	0			
10	0	0	0	0	510	507	0	0			
11	0	0	0	0	508	506	0	0			
12	0	0	0	0	512	509	0	0			
13	0	0	0	0	508	508	0	0			
14	0	0	0	0	506	512	0	0			
15	0	0	0	0	509	508	0	0			
0	0	0	0	0	513	510	0	0			
1	0	0	0	0	516	511	0	0			
2	0	0	0	0	510	508	0	0			
3	0	0	0	0	512	509	0	0			
4	0	0	0	0	502	509	0	0			
5	0	0	0	0	508	508	0	0			
6	0	0	0	0	515	508	0	0			
7	0	0	0	0	511	506	0	0			
8	0	0	0	0	504	506	0	0			
9	0	0	0	0	508	508	0	0			
10	0	0	0	0	513	504	0	0			
11	0	0	0	0	509	505	0	0			
12	0	0	0	0	515	507	0	0			
13	0	0	0	0	510	507	0	0			
14	0	0	0	0	509	506	0	0			
15	0	0	0	0	511	505	0	0			
0	0	0	0	0	514	509	0	0			
1	0	0	0	0	510	507	0	0			
2	0	0	0	0	516	509	0	0			
3	0	0	0	0	514	511	0	0			
4	0	0	0	0	512	511	0	0			
5	0	0	0	0	514	511	0	0			
6	0	0	0	0	512	510	0	0			
7	0	0	0	0	517	512	0	0			
8	0	0	0	0	518	511	0	0			
9	0	0	0	0	519	508	0	0			
10	0	0	0	0	520	507	0	0			
11	0	0	0	0	496	505	0	0			
12	0	0	0	0	497	505	0	0			
13	0	0	0	0	515	506	0	0			
14	0	0	0	0	513	503	0	0			
15	0	0	0	0	491	505	0	0			
0	0	0	0	0	494	506	0	0			
1	0	0	0	0	502	508	0	0			
2	0	0	0	0	492	508	0	0			
3	0	0	0	0	502	506	0	0			
4	0	0	0	0	518	508	0	0			
5	0	0	0	0	516	507	0	0			
6	0	0	0	0	512	509	0	0			
7	0	0	0	0	514	509	0	0			
8	0	0	0	0	519	511	0	0			
9	0	0	0	0	519	513	0	0			
10	0	0	0	0	517	512	0	0			
11	0	0	0	0	517	510	0	0			
12	0	0	0	0	518	508	0	0			
13	0	0	0	0	510	507	0	0			
14	0	0	0	0	505	506	0	0			
15	0	0	0	0	510	506	0	0			
0	0	0	0	0	500	505	0	0			
1	0	0	0	0	507	505	0	0			
2	0	0	0	0	513	504	0	0			
3	0	0	0	0	515	506	0	0			
4	0	0	0	0	514	506	0	0			
5	0	0	0	0	512	506	0	0			
6	0	0	0	0	505	508	0	0			
7	0	0	0	0	502	508	0	0			
8	0	0	0	0	509	509	0	0			
9	0	0	0	0	509	508	0	0			
10	0	0	0	0	513	508	0	0			
11	0	0	0	0	511	509	0	0			
12	0	0	0	0	514	514	0	0			
13	0	0	0	0	519	513	0	0			
14	0	0	0	0	516	511	0	0			
15	0	0	0	0	515	510	0	0			
0	0	0	0	0	510	508	0	0			
1	0	0	0	0	511	507	0	0			
2	0	0	0	0	513	506	0	0			
3	0	0	0	0	509	504	0	0			
4	0	0	0	0	509	507	0	0			
5	0	0	0	0	510	505	0	0			
6	0	0	0	0	509	504	0	0			
7	0	0	0	0	506	506	0	0			
8	0	0	0	0	506	508	0	0			
9	0	0	0	0	500	507	0	0			
10	0	0	0	0	495	509	0	0			
11	0	0	0	0	502	508	0	0			
12	0	0	0	0	508	508	0	0			
13	0	0	0	0	505	508	0	0			
14	0	0	0	0	513	509	0	0			
15	0	0	0	0	515	509	0	0			
0	0	0	0	0	515	511	0	0			
1	0	0	0	0	515	513	0	0			
2	0	0	0	0	519	511	0	0			
3	0	0	0	0	524	509	0	0			
4	0	0	0	0	513	508	0	0			
5	0	0	0	0	509	508	0	0			
6	0	0	0	0	516	507	0	0			
7	0	0	0	0	522	506	0	0			
8	0	0	0	0	521	506	0	0			
9	0	0	0	0	512	509	0	0			
10	0	0	0	0	508	505	0	0			
11	0	0	0	0	505	504	0	0			
12	0	0	0	0	497	504	0	0			
13	0	0	0	0	489	507	0	0			
14	0	0	0	0	499	508	0	0			
15	0	0	0	0	498	508	0	0			
0	0	0	0	0	509	507	0	0			
1	0	0	0	0	512	507	0	0			
2	0	0	0	0	517	509	0	0			
3	0	0	0	0	515	508	0	0			
4	0	0	0	0	516	513	0	0			
5	0	0	0	0	513	515	0	0			
6	0	0	0	0	512	512	0	0			
7	0	0	0	0	506	510	0	0			
8	0	0	0	0	514	505	0	0			
9	0	0	0	0	516	504	0	0			
10	0	0	0	0	516	506	0	0			
11	0	0	0	0	515	508	0	0			
12	0	0	0	0	510	505	0	0			
13	0	0	0	0	505	504	0	0			
14	0	0	0	0	512	506	0	0			
15	0	0	0	0	512	505	0	0			
0	0	0	0	0	509	505	0	0			
1	0	0	0	0	508	506	0	0			
2	0	0	0	0	504	508	0	0			
3	0	0	0	0	503	509	0	0			
4	0	0	0	0	512	512	0	0			
5	0	0	0	0	514	509	0	0			
6	0	0	0	0	511	508	0	0			
7	0	0	0	0	507	510	0	0			
8	0	0	0	0	513	513	0	0			
9	0	0	0	0	512	512	0	0			
10	0	0	0	0	518	510	0	0			
11	0	0	0	0	520	508	0	0			
12	0	0	0	0	512	508	0	0			
13	0	0	0	0	502	507	0	0			
14	0	0	0	0	512	507	0	0			
15	0	0	0	0	514	508	0	0			
0	0	0	0	0	510	506	0	0			
1	0	0	0	0	511	505	0	0			
2	0	0	0	0	511	504	0	0			
3	0	0	0	0	512	504	0	0			
4	0	0	0	0	514	504	0	0			
5	0	0	0	0	502	507	0	0			
6	0	0	0	0	501	508	0	0			
7	0	0	0	0	506	510	0	0			
8	0	0	0	0	510	510	0	0			
9	0	0	0	0	511	509	0	0			
10	0	0	0	0	512	508	0	0			
11	0	0	0	0	513	509	0	0			
12	0	0	0	0	509	512	0	0			
13	0	0	0	0	507	513	0	0			
14	0	0	0	0	510	513	0	0			
15	0	0	0	0	515	511	0	0			
0	0	0	0	0	516	507	0	0			
1	0	0	0	0	518	507	0	0			
2	0	0	0	0	520	505	0	0			
3	0	0	0	0	521	505	0	0			
4	0	0	0	0	515	506	0	0			
5	0	0	0	0	502	504	0	0			
6	0	0	0	0	513	505	0	0			
7	0	0	0	0	517	504	0	0			
8	0	0	0	0	515	506	0	0			
9	0	0	0	0	507	507	0	0			
10	0	0	0	0	504	508	0	0			
11	0	0	0	0	492	508	0	0			
12	0	0	0	0	494	510	0	0			
13	0	0	0	0	499	510	0	0			
14	0	0	0	0	511	510	0	0			
15	0	0	0	0	513	511	0	0			
0	0	0	0	0	511	513	0	0			
1	0	0	0	0	514	510	0	0			
2	0	0	0	0	512	508	0	0			
3	0	0	0	0	515	510	0	0			
4	0	0	0	0	519	506	0	0			
5	0	0	0	0	517	503	0	0			
6	0	0	0	0	517	506	0	0			
7	0	0	0	0	513	507	0	0			
8	0	0	0	0	511	508	0	0			
9	0	0	0	0	512	508	0	0			
10	0	0	0	0	516	505	0	0			
11	0	0	0	0	516	504	0	0			
12	0	0	0	0	512	504	0	0			
13	0	0	0	0	503	505	0	0			
14	0	0	0	0	492	505	0	0			
15	0	0	0	0	493	507	0	0			
