# OpenSignals Text File Format. Version 1
# {"20:18:06:13:21:78": {"position": 0, "device": "bitalino_rev", "device name": "20:18:06:13:21:78", "device connection": "BTH20:18:06:13:21:78", "sampling rate": 1000, "resolution": [4, 1, 1, 1, 1, 10, 10, 10, 10], "firmware version": 1281, "comments": "", "keywords": "", "mode": 0, "sync interval": 2, "date": "2023-6-5", "time": "19:53:59.448", "channels": [1, 2, 3, 4], "sensor": ["EMGBITREV", "EMGBITREV", "RAW", "RAW"], "label": ["A1", "A2", "A3", "A4"], "column": ["nSeq", "I1", "I2", "O1", "O2", "A1", "A2", "A3", "A4"], "special": [{}, {}, {}, {}], "digital IO": [0, 0, 1, 1]}}
# EndOfHeader
0	0	0	0	0	508	508	0	0	
1	0	0	0	0	512	509	0	0	
2	0	0	0	0	511	509	0	0	
3	0	0	0	0	514	509	0	0	
4	0	0	0	0	516	510	0	0	
5	0	0	0	0	517	511	0	0	
6	0	0	0	0	513	508	0	0	
7	0	0	0	0	511	510	0	0	
8	0	0	0	0	513	510	0	0	
9	0	0	0	0	511	507	0	0	
10	0	0	0	0	510	507	0	0	
11	0	0	0	0	509	508	0	0	
12	0	0	0	0	508	508	0	0	
13	0	0	0	0	510	506	0	0	
14	0	0	0	0	508	508	0	0	
15	0	0	0	0	508	505	0	0	
0	0	0	0	0	508	510	0	0	
1	0	0	0	0	509	508	0	0	
2	0	0	0	0	510	507	0	0	
3	0	0	0	0	511	508	0	0	
4	0	0	0	0	509	509	0	0	
5	0	0	0	0	511	511	0	0	
6	0	0	0	0	515	507	0	0	
7	0	0	0	0	512	508	0	0	
8	0	0	0	0	513	508	0	0	
9	0	0	0	0	513	508	0	0	
10	0	0	0	0	514	509	0	0	
11	0	0	0	0	514	509	0	0	
12	0	0	0	0	510	508	0	0	
13	0	0	0	0	512	509	0	0	
14	0	0	0	0	512	508	0	0	
15	0	0	0	0	509	510	0	0	
0	0	0	0	0	509	508	0	0	
1	0	0	0	0	511	509	0	0	
2	0	0	0	0	508	508	0	0	
3	0	0	0	0	509	507	0	0	
4	0	0	0	0	510	505	0	0	
5	0	0	0	0	511	509	0	0	
6	0	0	0	0	508	507	0	0	
7	0	0	0	0	509	509	0	0	
8	0	0	0	0	510	507	0	0	
9	0	0	0	0	513	509	0	0	
10	0	0	0	0	513	507	0	0	
11	0	0	0	0	515	508	0	0	
12	0	0	0	0	513	508	0	0	
13	0	0	0	0	514	508	0	0	
14	0	0	0	0	514	508	0	0	
15	0	0	0	0	511	507	0	0	
0	0	0	0	0	511	508	0	0	
1	0	0	0	0	511	507	0	0	
2	0	0	0	0	508	508	0	0	
3	0	0	0	0	509	511	0	0	
4	0	0	0	0	510	507	0	0	
5	0	0	0	0	508	508	0	0	
6	0	0	0	0	510	505	0	0	
7	0	0	0	0	508	508	0	0	
8	0	0	0	0	507	505	0	0	
9	0	0	0	0	511	508	0	0	
10	0	0	0	0	511	508	0	0	
11	0	0	0	0	512	508	0	0	
12	0	0	0	0	511	510	0	0	
13	0	0	0	0	510	509	0	0	
14	0	0	0	0	515	509	0	0	
15	0	0	0	0	515	509	0	0	
0	0	0	0	0	514	507	0	0	
1	0	0	0	0	513	508	0	0	
2	0	0	0	0	515	509	0	0	
3	0	0	0	0	511	508	0	0	
4	0	0	0	0	510	507	0	0	
5	0	0	0	0	511	506	0	0	
6	0	0	0	0	510	508	0	0	
7	0	0	0	0	509	508	0	0	
8	0	0	0	0	508	508	0	0	
9	0	0	0	0	507	508	0	0	
10	0	0	0	0	508	507	0	0	
11	0	0	0	0	509	505	0	0	
12	0	0	0	0	510	507	0	0	
13	0	0	0	0	511	508	0	0	
14	0	0	0	0	510	508	0	0	
15	0	0	0	0	513	510	0	0	
0	0	0	0	0	511	508	0	0	
1	0	0	0	0	513	509	0	0	
2	0	0	0	0	511	509	0	0	
3	0	0	0	0	512	508	0	0	
4	0	0	0	0	512	506	0	0	
5	0	0	0	0	514	509	0	0	
6	0	0	0	0	515	509	0	0	
7	0	0	0	0	511	508	0	0	
8	0	0	0	0	511	509	0	0	
9	0	0	0	0	511	508	0	0	
10	0	0	0	0	510	508	0	0	
11	0	0	0	0	511	507	0	0	
12	0	0	0	0	511	509	0	0	
13	0	0	0	0	508	506	0	0	
14	0	0	0	0	510	508	0	0	
15	0	0	0	0	508	508	0	0	
0	0	0	0	0	509	508	0	0	
1	0	0	0	0	510	507	0	0	
2	0	0	0	0	510	508	0	0	
3	0	0	0	0	512	507	0	0	
4	0	0	0	0	511	509	0	0	
5	0	0	0	0	511	508	0	0	
6	0	0	0	0	513	507	0	0	
7	0	0	0	0	514	508	0	0	
8	0	0	0	0	515	508	0	0	
9	0	0	0	0	513	510	0	0	
10	0	0	0	0	515	508	0	0	
11	0	0	0	0	512	509	0	0	
12	0	0	0	0	512	510	0	0	
13	0	0	0	0	511	508	0	0	
14	0	0	0	0	509	507	0	0	
15	0	0	0	0	511	508	0	0	
0	0	0	0	0	508	507	0	0	
1	0	0	0	0	507	508	0	0	
2	0	0	0	0	510	507	0	0	
3	0	0	0	0	508	507	0	0	
4	0	0	0	0	508	507	0	0	
5	0	0	0	0	509	508	0	0	
6	0	0	0	0	511	508	0	0	
7	0	0	0	0	511	508	0	0	
8	0	0	0	0	513	508	0	0	
9	0	0	0	0	512	510	0	0	
10	0	0	0	0	515	508	0	0	
11	0	0	0	0	512	509	0	0	
12	0	0	0	0	513	507	0	0	
13	0	0	0	0	510	509	0	0	
14	0	0	0	0	513	507	0	0	
15	0	0	0	0	511	508	0	0	
0	0	0	0	0	511	507	0	0	
1	0	0	0	0	511	509	0	0	
2	0	0	0	0	510	509	0	0	
3	0	0	0	0	512	508	0	0	
4	0	0	0	0	507	507	0	0	
5	0	0	0	0	508	508	0	0	
6	0	0	0	0	507	508	0	0	
7	0	0	0	0	508	506	0	0	
8	0	0	0	0	508	506	0	0	
9	0	0	0	0	510	508	0	0	
10	0	0	0	0	511	510	0	0	
11	0	0	0	0	513	505	0	0	
12	0	0	0	0	514	508	0	0	
13	0	0	0	0	513	509	0	0	
14	0	0	0	0	513	510	0	0	
15	0	0	0	0	511	509	0	0	
0	0	0	0	0	513	511	0	0	
1	0	0	0	0	513	507	0	0	
2	0	0	0	0	513	508	0	0	
3	0	0	0	0	512	508	0	0	
4	0	0	0	0	511	508	0	0	
5	0	0	0	0	513	508	0	0	
6	0	0	0	0	510	507	0	0	
7	0	0	0	0	509	507	0	0	
8	0	0	0	0	510	509	0	0	
9	0	0	0	0	508	508	0	0	
10	0	0	0	0	510	508	0	0	
11	0	0	0	0	509	508	0	0	
12	0	0	0	0	510	504	0	0	
13	0	0	0	0	509	508	0	0	
14	0	0	0	0	510	509	0	0	
15	0	0	0	0	509	511	0	0	
0	0	0	0	0	512	508	0	0	
1	0	0	0	0	513	508	0	0	
2	0	0	0	0	513	509	0	0	
3	0	0	0	0	513	508	0	0	
4	0	0	0	0	515	508	0	0	
5	0	0	0	0	513	508	0	0	
6	0	0	0	0	514	506	0	0	
7	0	0	0	0	512	508	0	0	
8	0	0	0	0	513	508	0	0	
9	0	0	0	0	512	508	0	0	
10	0	0	0	0	510	508	0	0	
11	0	0	0	0	510	507	0	0	
12	0	0	0	0	508	509	0	0	
13	0	0	0	0	511	510	0	0	
14	0	0	0	0	509	508	0	0	
15	0	0	0	0	510	507	0	0	
0	0	0	0	0	512	508	0	0	
1	0	0	0	0	509	508	0	0	
2	0	0	0	0	508	507	0	0	
3	0	0	0	0	510	508	0	0	
4	0	0	0	0	511	508	0	0	
5	0	0	0	0	512	508	0	0	
6	0	0	0	0	514	508	0	0	
7	0	0	0	0	513	508	0	0	
8	0	0	0	0	513	508	0	0	
9	0	0	0	0	511	510	0	0	
10	0	0	0	0	512	507	0	0	
11	0	0	0	0	513	508	0	0	
12	0	0	0	0	512	508	0	0	
13	0	0	0	0	511	507	0	0	
14	0	0	0	0	509	508	0	0	
15	0	0	0	0	510	508	0	0	
0	0	0	0	0	507	506	0	0	
1	0	0	0	0	509	507	0	0	
2	0	0	0	0	511	508	0	0	
3	0	0	0	0	510	508	0	0	
4	0	0	0	0	509	508	0	0	
5	0	0	0	0	509	508	0	0	
6	0	0	0	0	511	508	0	0	
7	0	0	0	0	511	509	0	0	
8	0	0	0	0	510	507	0	0	
9	0	0	0	0	511	509	0	0	
10	0	0	0	0	512	507	0	0	
11	0	0	0	0	515	511	0	0	
12	0	0	0	0	512	509	0	0	
13	0	0	0	0	513	512	0	0	
14	0	0	0	0	514	506	0	0	
15	0	0	0	0	514	508	0	0	
0	0	0	0	0	514	507	0	0	
1	0	0	0	0	511	506	0	0	
2	0	0	0	0	512	508	0	0	
3	0	0	0	0	512	507	0	0	
4	0	0	0	0	508	506	0	0	
5	0	0	0	0	508	509	0	0	
6	0	0	0	0	507	509	0	0	
7	0	0	0	0	507	507	0	0	
8	0	0	0	0	507	506	0	0	
9	0	0	0	0	509	509	0	0	
10	0	0	0	0	513	506	0	0	
11	0	0	0	0	510	511	0	0	
12	0	0	0	0	512	508	0	0	
13	0	0	0	0	512	507	0	0	
14	0	0	0	0	512	509	0	0	
15	0	0	0	0	513	507	0	0	
0	0	0	0	0	512	506	0	0	
1	0	0	0	0	513	508	0	0	
2	0	0	0	0	515	508	0	0	
3	0	0	0	0	513	509	0	0	
4	0	0	0	0	512	508	0	0	
5	0	0	0	0	510	507	0	0	
6	0	0	0	0	511	506	0	0	
7	0	0	0	0	509	508	0	0	
8	0	0	0	0	507	507	0	0	
9	0	0	0	0	508	507	0	0	
10	0	0	0	0	509	508	0	0	
11	0	0	0	0	509	508	0	0	
12	0	0	0	0	511	508	0	0	
13	0	0	0	0	510	508	0	0	
14	0	0	0	0	511	508	0	0	
15	0	0	0	0	510	508	0	0	
0	0	0	0	0	511	507	0	0	
1	0	0	0	0	513	507	0	0	
2	0	0	0	0	512	509	0	0	
3	0	0	0	0	512	512	0	0	
4	0	0	0	0	513	508	0	0	
5	0	0	0	0	513	508	0	0	
6	0	0	0	0	513	508	0	0	
7	0	0	0	0	512	508	0	0	
8	0	0	0	0	511	510	0	0	
9	0	0	0	0	510	508	0	0	
10	0	0	0	0	512	506	0	0	
11	0	0	0	0	510	507	0	0	
12	0	0	0	0	510	508	0	0	
13	0	0	0	0	510	507	0	0	
14	0	0	0	0	510	508	0	0	
15	0	0	0	0	508	507	0	0	
0	0	0	0	0	509	506	0	0	
1	0	0	0	0	510	510	0	0	
2	0	0	0	0	508	510	0	0	
3	0	0	0	0	509	508	0	0	
4	0	0	0	0	512	508	0	0	
5	0	0	0	0	512	506	0	0	
6	0	0	0	0	513	508	0	0	
7	0	0	0	0	513	509	0	0	
8	0	0	0	0	513	509	0	0	
9	0	0	0	0	513	509	0	0	
10	0	0	0	0	514	508	0	0	
11	0	0	0	0	512	507	0	0	
12	0	0	0	0	511	508	0	0	
13	0	0	0	0	511	509	0	0	
14	0	0	0	0	511	507	0	0	
15	0	0	0	0	511	510	0	0	
0	0	0	0	0	510	505	0	0	
1	0	0	0	0	508	506	0	0	
2	0	0	0	0	507	508	0	0	
3	0	0	0	0	509	509	0	0	
4	0	0	0	0	508	508	0	0	
5	0	0	0	0	508	510	0	0	
6	0	0	0	0	511	507	0	0	
7	0	0	0	0	510	508	0	0	
8	0	0	0	0	511	509	0	0	
9	0	0	0	0	511	506	0	0	
10	0	0	0	0	512	507	0	0	
11	0	0	0	0	515	510	0	0	
12	0	0	0	0	513	507	0	0	
13	0	0	0	0	513	507	0	0	
14	0	0	0	0	514	508	0	0	
15	0	0	0	0	512	506	0	0	
0	0	0	0	0	511	508	0	0	
1	0	0	0	0	511	509	0	0	
2	0	0	0	0	511	507	0	0	
3	0	0	0	0	510	507	0	0	
4	0	0	0	0	509	508	0	0	
5	0	0	0	0	508	509	0	0	
6	0	0	0	0	508	508	0	0	
7	0	0	0	0	508	509	0	0	
8	0	0	0	0	509	507	0	0	
9	0	0	0	0	509	509	0	0	
10	0	0	0	0	509	508	0	0	
11	0	0	0	0	512	509	0	0	
12	0	0	0	0	512	506	0	0	
13	0	0	0	0	512	510	0	0	
14	0	0	0	0	512	510	0	0	
15	0	0	0	0	513	507	0	0	
0	0	0	0	0	513	507	0	0	
1	0	0	0	0	512	507	0	0	
2	0	0	0	0	515	509	0	0	
3	0	0	0	0	514	508	0	0	
4	0	0	0	0	513	509	0	0	
5	0	0	0	0	511	508	0	0	
6	0	0	0	0	511	507	0	0	
7	0	0	0	0	511	509	0	0	
8	0	0	0	0	509	508	0	0	
9	0	0	0	0	508	506	0	0	
10	0	0	0	0	510	507	0	0	
11	0	0	0	0	510	507	0	0	
12	0	0	0	0	510	508	0	0	
13	0	0	0	0	511	506	0	0	
14	0	0	0	0	512	508	0	0	
15	0	0	0	0	509	508	0	0	
0	0	0	0	0	512	508	0	0	
1	0	0	0	0	512	510	0	0	
2	0	0	0	0	511	509	0	0	
3	0	0	0	0	513	509	0	0	
4	0	0	0	0	513	508	0	0	
5	0	0	0	0	513	507	0	0	
6	0	0	0	0	515	509	0	0	
7	0	0	0	0	514	506	0	0	
8	0	0	0	0	512	508	0	0	
9	0	0	0	0	511	507	0	0	
10	0	0	0	0	509	508	0	0	
11	0	0	0	0	510	507	0	0	
12	0	0	0	0	507	508	0	0	
13	0	0	0	0	507	507	0	0	
14	0	0	0	0	509	508	0	0	
15	0	0	0	0	510	508	0	0	
0	0	0	0	0	510	508	0	0	
1	0	0	0	0	509	508	0	0	
2	0	0	0	0	508	507	0	0	
3	0	0	0	0	511	507	0	0	
4	0	0	0	0	511	510	0	0	
5	0	0	0	0	511	510	0	0	
6	0	0	0	0	513	508	0	0	
7	0	0	0	0	512	507	0	0	
8	0	0	0	0	513	510	0	0	
9	0	0	0	0	515	507	0	0	
10	0	0	0	0	513	507	0	0	
11	0	0	0	0	513	508	0	0	
12	0	0	0	0	513	508	0	0	
13	0	0	0	0	511	508	0	0	
14	0	0	0	0	508	507	0	0	
15	0	0	0	0	510	507	0	0	
0	0	0	0	0	510	508	0	0	
1	0	0	0	0	509	508	0	0	
2	0	0	0	0	508	508	0	0	
3	0	0	0	0	509	508	0	0	
4	0	0	0	0	508	508	0	0	
5	0	0	0	0	509	508	0	0	
6	0	0	0	0	511	509	0	0	
7	0	0	0	0	511	508	0	0	
8	0	0	0	0	512	507	0	0	
9	0	0	0	0	513	510	0	0	
10	0	0	0	0	512	507	0	0	
11	0	0	0	0	512	509	0	0	
12	0	0	0	0	512	508	0	0	
13	0	0	0	0	514	509	0	0	
14	0	0	0	0	514	510	0	0	
15	0	0	0	0	513	508	0	0	
0	0	0	0	0	512	508	0	0	
1	0	0	0	0	513	509	0	0	
2	0	0	0	0	512	508	0	0	
3	0	0	0	0	511	507	0	0	
4	0	0	0	0	510	507	0	0	
5	0	0	0	0	507	506	0	0	
6	0	0	0	0	508	508	0	0	
7	0	0	0	0	511	507	0	0	
8	0	0	0	0	507	508	0	0	
9	0	0	0	0	510	508	0	0	
10	0	0	0	0	511	507	0	0	
11	0	0	0	0	511	508	0	0	
12	0	0	0	0	511	508	0	0	
13	0	0	0	0	511	505	0	0	
14	0	0	0	0	510	509	0	0	
15	0	0	0	0	512	511	0	0	
0	0	0	0	0	513	510	0	0	
1	0	0	0	0	515	511	0	0	
2	0	0	0	0	513	508	0	0	
3	0	0	0	0	514	507	0	0	
4	0	0	0	0	513	507	0	0	
5	0	0	0	0	512	508	0	0	
6	0	0	0	0	510	508	0	0	
7	0	0	0	0	510	509	0	0	
8	0	0	0	0	510	507	0	0	
9	0	0	0	0	507	509	0	0	
10	0	0	0	0	509	510	0	0	
11	0	0	0	0	512	507	0	0	
12	0	0	0	0	509	507	0	0	
13	0	0	0	0	510	508	0	0	
14	0	0	0	0	510	508	0	0	
15	0	0	0	0	511	509	0	0	
0	0	0	0	0	513	508	0	0	
1	0	0	0	0	511	506	0	0	
2	0	0	0	0	513	509	0	0	
3	0	0	0	0	514	510	0	0	
4	0	0	0	0	515	508	0	0	
5	0	0	0	0	513	509	0	0	
6	0	0	0	0	511	507	0	0	
7	0	0	0	0	511	508	0	0	
8	0	0	0	0	513	509	0	0	
9	0	0	0	0	513	507	0	0	
10	0	0	0	0	512	509	0	0	
11	0	0	0	0	510	508	0	0	
12	0	0	0	0	509	508	0	0	
13	0	0	0	0	507	507	0	0	
14	0	0	0	0	507	508	0	0	
15	0	0	0	0	508	508	0	0	
0	0	0	0	0	510	508	0	0	
1	0	0	0	0	509	509	0	0	
2	0	0	0	0	510	507	0	0	
3	0	0	0	0	511	508	0	0	
4	0	0	0	0	511	508	0	0	
5	0	0	0	0	513	509	0	0	
6	0	0	0	0	512	508	0	0	
7	0	0	0	0	512	508	0	0	
8	0	0	0	0	513	506	0	0	
9	0	0	0	0	513	509	0	0	
10	0	0	0	0	515	509	0	0	
11	0	0	0	0	514	508	0	0	
12	0	0	0	0	512	508	0	0	
13	0	0	0	0	512	510	0	0	
14	0	0	0	0	512	507	0	0	
15	0	0	0	0	510	507	0	0	
0	0	0	0	0	510	508	0	0	
1	0	0	0	0	508	508	0	0	
2	0	0	0	0	509	507	0	0	
3	0	0	0	0	508	505	0	0	
4	0	0	0	0	508	508	0	0	
5	0	0	0	0	509	509	0	0	
6	0	0	0	0	509	509	0	0	
7	0	0	0	0	511	506	0	0	
8	0	0	0	0	511	505	0	0	
9	0	0	0	0	512	510	0	0	
10	0	0	0	0	512	508	0	0	
11	0	0	0	0	511	507	0	0	
12	0	0	0	0	512	508	0	0	
13	0	0	0	0	515	508	0	0	
14	0	0	0	0	515	509	0	0	
15	0	0	0	0	514	508	0	0	
0	0	0	0	0	512	509	0	0	
1	0	0	0	0	512	509	0	0	
2	0	0	0	0	510	508	0	0	
3	0	0	0	0	508	508	0	0	
4	0	0	0	0	511	507	0	0	
5	0	0	0	0	511	507	0	0	
6	0	0	0	0	508	508	0	0	
7	0	0	0	0	508	508	0	0	
8	0	0	0	0	508	507	0	0	
9	0	0	0	0	510	508	0	0	
10	0	0	0	0	512	508	0	0	
11	0	0	0	0	511	509	0	0	
12	0	0	0	0	511	508	0	0	
13	0	0	0	0	512	508	0	0	
14	0	0	0	0	512	511	0	0	
15	0	0	0	0	513	509	0	0	
0	0	0	0	0	511	507	0	0	
1	0	0	0	0	513	510	0	0	
2	0	0	0	0	514	509	0	0	
3	0	0	0	0	512	506	0	0	
4	0	0	0	0	512	510	0	0	
5	0	0	0	0	511	508	0	0	
6	0	0	0	0	509	508	0	0	
7	0	0	0	0	511	508	0	0	
8	0	0	0	0	511	507	0	0	
9	0	0	0	0	509	507	0	0	
10	0	0	0	0	509	507	0	0	
11	0	0	0	0	508	507	0	0	
12	0	0	0	0	508	508	0	0	
13	0	0	0	0	509	508	0	0	
14	0	0	0	0	510	510	0	0	
15	0	0	0	0	510	508	0	0	
0	0	0	0	0	511	509	0	0	
1	0	0	0	0	509	506	0	0	
2	0	0	0	0	514	509	0	0	
3	0	0	0	0	512	508	0	0	
4	0	0	0	0	515	508	0	0	
5	0	0	0	0	512	511	0	0	
6	0	0	0	0	512	508	0	0	
7	0	0	0	0	511	509	0	0	
8	0	0	0	0	512	508	0	0	
9	0	0	0	0	511	508	0	0	
10	0	0	0	0	511	508	0	0	
11	0	0	0	0	511	507	0	0	
12	0	0	0	0	509	508	0	0	
13	0	0	0	0	509	506	0	0	
14	0	0	0	0	508	505	0	0	
15	0	0	0	0	507	509	0	0	
0	0	0	0	0	508	509	0	0	
1	0	0	0	0	508	508	0	0	
2	0	0	0	0	510	508	0	0	
3	0	0	0	0	509	508	0	0	
4	0	0	0	0	510	507	0	0	
5	0	0	0	0	511	508	0	0	
6	0	0	0	0	513	510	0	0	
7	0	0	0	0	515	509	0	0	
8	0	0	0	0	513	505	0	0	
9	0	0	0	0	514	508	0	0	
10	0	0	0	0	513	507	0	0	
11	0	0	0	0	513	508	0	0	
12	0	0	0	0	510	510	0	0	
13	0	0	0	0	512	508	0	0	
14	0	0	0	0	509	507	0	0	
15	0	0	0	0	510	508	0	0	
0	0	0	0	0	511	508	0	0	
1	0	0	0	0	510	510	0	0	
2	0	0	0	0	509	508	0	0	
3	0	0	0	0	508	510	0	0	
4	0	0	0	0	508	506	0	0	
5	0	0	0	0	510	508	0	0	
6	0	0	0	0	511	508	0	0	
7	0	0	0	0	512	508	0	0	
8	0	0	0	0	512	508	0	0	
9	0	0	0	0	512	508	0	0	
10	0	0	0	0	512	508	0	0	
11	0	0	0	0	513	509	0	0	
12	0	0	0	0	514	508	0	0	
13	0	0	0	0	514	509	0	0	
14	0	0	0	0	513	508	0	0	
15	0	0	0	0	513	508	0	0	
0	0	0	0	0	511	507	0	0	
1	0	0	0	0	512	508	0	0	
2	0	0	0	0	510	507	0	0	
3	0	0	0	0	509	507	0	0	
4	0	0	0	0	509	506	0	0	
5	0	0	0	0	509	507	0	0	
6	0	0	0	0	509	507	0	0	
7	0	0	0	0	508	510	0	0	
8	0	0	0	0	508	508	0	0	
9	0	0	0	0	508	509	0	0	
10	0	0	0	0	510	507	0	0	
11	0	0	0	0	510	508	0	0	
12	0	0	0	0	510	508	0	0	
13	0	0	0	0	512	509	0	0	
14	0	0	0	0	512	510	0	0	
15	0	0	0	0	513	507	0	0	
0	0	0	0	0	512	508	0	0	
1	0	0	0	0	514	509	0	0	
2	0	0	0	0	513	508	0	0	
3	0	0	0	0	514	507	0	0	
4	0	0	0	0	515	508	0	0	
5	0	0	0	0	515	511	0	0	
6	0	0	0	0	511	510	0	0	
7	0	0	0	0	510	507	0	0	
8	0	0	0	0	508	507	0	0	
9	0	0	0	0	508	508	0	0	
10	0	0	0	0	509	506	0	0	
11	0	0	0	0	508	508	0	0	
12	0	0	0	0	512	509	0	0	
13	0	0	0	0	510	508	0	0	
14	0	0	0	0	509	508	0	0	
15	0	0	0	0	509	508	0	0	
0	0	0	0	0	511	508	0	0	
1	0	0	0	0	513	508	0	0	
2	0	0	0	0	512	508	0	0	
3	0	0	0	0	512	508	0	0	
4	0	0	0	0	513	509	0	0	
5	0	0	0	0	512	509	0	0	
6	0	0	0	0	514	508	0	0	
7	0	0	0	0	512	508	0	0	
8	0	0	0	0	511	509	0	0	
9	0	0	0	0	511	508	0	0	
10	0	0	0	0	510	508	0	0	
11	0	0	0	0	511	507	0	0	
12	0	0	0	0	508	507	0	0	
13	0	0	0	0	509	510	0	0	
14	0	0	0	0	510	508	0	0	
15	0	0	0	0	507	508	0	0	
0	0	0	0	0	510	508	0	0	
1	0	0	0	0	511	506	0	0	
2	0	0	0	0	512	507	0	0	
3	0	0	0	0	510	510	0	0	
4	0	0	0	0	511	510	0	0	
5	0	0	0	0	514	506	0	0	
6	0	0	0	0	514	508	0	0	
7	0	0	0	0	512	508	0	0	
8	0	0	0	0	511	508	0	0	
9	0	0	0	0	512	507	0	0	
10	0	0	0	0	513	508	0	0	
11	0	0	0	0	511	509	0	0	
12	0	0	0	0	511	507	0	0	
13	0	0	0	0	511	508	0	0	
14	0	0	0	0	510	509	0	0	
15	0	0	0	0	509	508	0	0	
0	0	0	0	0	509	507	0	0	
1	0	0	0	0	510	508	0	0	
2	0	0	0	0	509	510	0	0	
3	0	0	0	0	509	507	0	0	
4	0	0	0	0	509	508	0	0	
5	0	0	0	0	510	507	0	0	
6	0	0	0	0	509	507	0	0	
7	0	0	0	0	510	506	0	0	
8	0	0	0	0	510	506	0	0	
9	0	0	0	0	513	508	0	0	
10	0	0	0	0	511	508	0	0	
11	0	0	0	0	512	509	0	0	
12	0	0	0	0	512	508	0	0	
13	0	0	0	0	516	509	0	0	
14	0	0	0	0	514	509	0	0	
15	0	0	0	0	511	507	0	0	
0	0	0	0	0	511	508	0	0	
1	0	0	0	0	512	510	0	0	
2	0	0	0	0	510	508	0	0	
3	0	0	0	0	510	508	0	0	
4	0	0	0	0	509	508	0	0	
5	0	0	0	0	510	508	0	0	
6	0	0	0	0	508	507	0	0	
7	0	0	0	0	508	507	0	0	
8	0	0	0	0	508	508	0	0	
9	0	0	0	0	511	509	0	0	
10	0	0	0	0	511	505	0	0	
11	0	0	0	0	509	507	0	0	
12	0	0	0	0	511	508	0	0	
13	0	0	0	0	513	510	0	0	
14	0	0	0	0	515	510	0	0	
15	0	0	0	0	514	508	0	0	
0	0	0	0	0	515	508	0	0	
1	0	0	0	0	514	508	0	0	
2	0	0	0	0	514	510	0	0	
3	0	0	0	0	513	510	0	0	
4	0	0	0	0	513	509	0	0	
5	0	0	0	0	513	507	0	0	
6	0	0	0	0	511	508	0	0	
7	0	0	0	0	510	508	0	0	
8	0	0	0	0	509	507	0	0	
9	0	0	0	0	510	507	0	0	
10	0	0	0	0	507	508	0	0	
11	0	0	0	0	508	507	0	0	
12	0	0	0	0	508	507	0	0	
13	0	0	0	0	508	508	0	0	
14	0	0	0	0	508	508	0	0	
15	0	0	0	0	510	508	0	0	
0	0	0	0	0	512	508	0	0	
1	0	0	0	0	511	509	0	0	
2	0	0	0	0	514	509	0	0	
3	0	0	0	0	514	509	0	0	
4	0	0	0	0	511	508	0	0	
5	0	0	0	0	511	508	0	0	
6	0	0	0	0	514	508	0	0	
7	0	0	0	0	514	508	0	0	
8	0	0	0	0	513	507	0	0	
9	0	0	0	0	512	507	0	0	
10	0	0	0	0	512	508	0	0	
11	0	0	0	0	509	507	0	0	
12	0	0	0	0	508	507	0	0	
13	0	0	0	0	507	507	0	0	
14	0	0	0	0	510	508	0	0	
15	0	0	0	0	510	508	0	0	
0	0	0	0	0	511	509	0	0	
1	0	0	0	0	510	508	0	0	
2	0	0	0	0	511	508	0	0	
3	0	0	0	0	509	509	0	0	
4	0	0	0	0	511	507	0	0	
5	0	0	0	0	509	510	0	0	
6	0	0	0	0	513	508	0	0	
7	0	0	0	0	512	507	0	0	
8	0	0	0	0	513	509	0	0	
9	0	0	0	0	513	509	0	0	
10	0	0	0	0	514	507	0	0	
11	0	0	0	0	513	511	0	0	
12	0	0	0	0	513	508	0	0	
13	0	0	0	0	511	508	0	0	
14	0	0	0	0	510	508	0	0	
15	0	0	0	0	510	509	0	0	
0	0	0	0	0	510	508	0	0	
1	0	0	0	0	508	507	0	0	
2	0	0	0	0	508	507	0	0	
3	0	0	0	0	507	507	0	0	
4	0	0	0	0	507	507	0	0	
5	0	0	0	0	508	507	0	0	
6	0	0	0	0	510	506	0	0	
7	0	0	0	0	512	507	0	0	
8	0	0	0	0	513	509	0	0	
9	0	0	0	0	514	508	0	0	
10	0	0	0	0	513	511	0	0	
11	0	0	0	0	514	510	0	0	
12	0	0	0	0	514	509	0	0	
13	0	0	0	0	515	508	0	0	
14	0	0	0	0	515	506	0	0	
15	0	0	0	0	514	509	0	0	
0	0	0	0	0	511	510	0	0	
1	0	0	0	0	511	507	0	0	
2	0	0	0	0	508	507	0	0	
3	0	0	0	0	509	507	0	0	
4	0	0	0	0	507	508	0	0	
5	0	0	0	0	509	507	0	0	
6	0	0	0	0	510	508	0	0	
7	0	0	0	0	510	508	0	0	
8	0	0	0	0	507	509	0	0	
9	0	0	0	0	511	508	0	0	
10	0	0	0	0	510	508	0	0	
11	0	0	0	0	510	507	0	0	
12	0	0	0	0	510	508	0	0	
13	0	0	0	0	512	508	0	0	
14	0	0	0	0	515	510	0	0	
15	0	0	0	0	514	508	0	0	
0	0	0	0	0	511	508	0	0	
1	0	0	0	0	513	507	0	0	
2	0	0	0	0	512	508	0	0	
3	0	0	0	0	515	508	0	0	
4	0	0	0	0	514	508	0	0	
5	0	0	0	0	511	507	0	0	
6	0	0	0	0	511	508	0	0	
7	0	0	0	0	509	508	0	0	
8	0	0	0	0	508	507	0	0	
9	0	0	0	0	508	509	0	0	
10	0	0	0	0	508	507	0	0	
11	0	0	0	0	511	507	0	0	
12	0	0	0	0	508	508	0	0	
13	0	0	0	0	508	509	0	0	
14	0	0	0	0	510	509	0	0	
15	0	0	0	0	509	510	0	0	
0	0	0	0	0	511	508	0	0	
1	0	0	0	0	513	507	0	0	
2	0	0	0	0	512	510	0	0	
3	0	0	0	0	513	508	0	0	
4	0	0	0	0	515	509	0	0	
5	0	0	0	0	511	507	0	0	
6	0	0	0	0	513	508	0	0	
7	0	0	0	0	512	508	0	0	
8	0	0	0	0	511	508	0	0	
9	0	0	0	0	510	507	0	0	
10	0	0	0	0	510	506	0	0	
11	0	0	0	0	510	507	0	0	
12	0	0	0	0	509	509	0	0	
13	0	0	0	0	510	508	0	0	
14	0	0	0	0	508	508	0	0	
15	0	0	0	0	507	505	0	0	
0	0	0	0	0	510	508	0	0	
1	0	0	0	0	510	510	0	0	
2	0	0	0	0	510	507	0	0	
3	0	0	0	0	509	508	0	0	
4	0	0	0	0	513	509	0	0	
5	0	0	0	0	512	511	0	0	
6	0	0	0	0	514	508	0	0	
7	0	0	0	0	513	508	0	0	
8	0	0	0	0	511	507	0	0	
9	0	0	0	0	513	509	0	0	
10	0	0	0	0	514	509	0	0	
11	0	0	0	0	516	508	0	0	
12	0	0	0	0	511	506	0	0	
13	0	0	0	0	511	509	0	0	
14	0	0	0	0	511	508	0	0	
15	0	0	0	0	511	508	0	0	
0	0	0	0	0	511	506	0	0	
1	0	0	0	0	509	508	0	0	
2	0	0	0	0	507	507	0	0	
3	0	0	0	0	507	508	0	0	
4	0	0	0	0	507	509	0	0	
5	0	0	0	0	508	509	0	0	
6	0	0	0	0	511	509	0	0	
7	0	0	0	0	510	509	0	0	
8	0	0	0	0	513	508	0	0	
9	0	0	0	0	512	507	0	0	
10	0	0	0	0	513	507	0	0	
11	0	0	0	0	515	509	0	0	
12	0	0	0	0	513	508	0	0	
13	0	0	0	0	515	508	0	0	
14	0	0	0	0	513	508	0	0	
15	0	0	0	0	514	509	0	0	
0	0	0	0	0	512	508	0	0	
1	0	0	0	0	511	507	0	0	
2	0	0	0	0	511	508	0	0	
3	0	0	0	0	509	508	0	0	
4	0	0	0	0	508	508	0	0	
5	0	0	0	0	507	508	0	0	
6	0	0	0	0	508	507	0	0	
7	0	0	0	0	508	506	0	0	
8	0	0	0	0	509	509	0	0	
9	0	0	0	0	509	506	0	0	
10	0	0	0	0	510	508	0	0	
11	0	0	0	0	512	510	0	0	
12	0	0	0	0	511	507	0	0	
13	0	0	0	0	512	508	0	0	
14	0	0	0	0	512	508	0	0	
15	0	0	0	0	515	507	0	0	
0	0	0	0	0	516	508	0	0	
1	0	0	0	0	514	509	0	0	
2	0	0	0	0	511	510	0	0	
3	0	0	0	0	512	507	0	0	
4	0	0	0	0	511	508	0	0	
5	0	0	0	0	512	509	0	0	
6	0	0	0	0	511	507	0	0	
7	0	0	0	0	511	507	0	0	
8	0	0	0	0	509	508	0	0	
9	0	0	0	0	511	508	0	0	
10	0	0	0	0	509	506	0	0	
11	0	0	0	0	510	505	0	0	
12	0	0	0	0	510	507	0	0	
13	0	0	0	0	507	508	0	0	
14	0	0	0	0	509	508	0	0	
15	0	0	0	0	511	509	0	0	
0	0	0	0	0	510	510	0	0	
1	0	0	0	0	511	510	0	0	
2	0	0	0	0	513	509	0	0	
3	0	0	0	0	514	508	0	0	
4	0	0	0	0	515	510	0	0	
5	0	0	0	0	513	511	0	0	
6	0	0	0	0	512	506	0	0	
7	0	0	0	0	514	505	0	0	
8	0	0	0	0	512	508	0	0	
9	0	0	0	0	513	508	0	0	
10	0	0	0	0	512	510	0	0	
11	0	0	0	0	510	508	0	0	
12	0	0	0	0	508	508	0	0	
13	0	0	0	0	509	505	0	0	
14	0	0	0	0	508	507	0	0	
15	0	0	0	0	509	507	0	0	
0	0	0	0	0	508	508	0	0	
1	0	0	0	0	507	508	0	0	
2	0	0	0	0	509	508	0	0	
3	0	0	0	0	510	508	0	0	
4	0	0	0	0	511	508	0	0	
5	0	0	0	0	511	508	0	0	
6	0	0	0	0	514	510	0	0	
7	0	0	0	0	515	508	0	0	
8	0	0	0	0	512	509	0	0	
9	0	0	0	0	514	508	0	0	
10	0	0	0	0	512	508	0	0	
11	0	0	0	0	512	510	0	0	
12	0	0	0	0	512	508	0	0	
13	0	0	0	0	511	508	0	0	
14	0	0	0	0	511	508	0	0	
15	0	0	0	0	510	508	0	0	
0	0	0	0	0	510	508	0	0	
1	0	0	0	0	508	505	0	0	
2	0	0	0	0	511	508	0	0	
3	0	0	0	0	509	507	0	0	
4	0	0	0	0	508	508	0	0	
5	0	0	0	0	511	508	0	0	
6	0	0	0	0	511	508	0	0	
7	0	0	0	0	511	510	0	0	
8	0	0	0	0	512	508	0	0	
9	0	0	0	0	513	507	0	0	
10	0	0	0	0	513	506	0	0	
11	0	0	0	0	513	507	0	0	
12	0	0	0	0	512	508	0	0	
13	0	0	0	0	513	508	0	0	
14	0	0	0	0	515	509	0	0	
15	0	0	0	0	514	510	0	0	
0	0	0	0	0	512	510	0	0	
1	0	0	0	0	512	508	0	0	
2	0	0	0	0	511	509	0	0	
3	0	0	0	0	510	508	0	0	
4	0	0	0	0	509	507	0	0	
5	0	0	0	0	507	508	0	0	
6	0	0	0	0	509	509	0	0	
7	0	0	0	0	507	508	0	0	
8	0	0	0	0	509	508	0	0	
9	0	0	0	0	509	508	0	0	
10	0	0	0	0	510	507	0	0	
11	0	0	0	0	511	508	0	0	
12	0	0	0	0	510	506	0	0	
13	0	0	0	0	511	508	0	0	
14	0	0	0	0	515	509	0	0	
15	0	0	0	0	514	507	0	0	
0	0	0	0	0	512	508	0	0	
1	0	0	0	0	515	508	0	0	
2	0	0	0	0	513	511	0	0	
3	0	0	0	0	512	509	0	0	
4	0	0	0	0	512	509	0	0	
5	0	0	0	0	510	508	0	0	
6	0	0	0	0	511	508	0	0	
7	0	0	0	0	509	507	0	0	
8	0	0	0	0	508	510	0	0	
9	0	0	0	0	510	506	0	0	
10	0	0	0	0	511	506	0	0	
11	0	0	0	0	508	506	0	0	
12	0	0	0	0	509	506	0	0	
13	0	0	0	0	510	508	0	0	
14	0	0	0	0	510	507	0	0	
15	0	0	0	0	508	509	0	0	
0	0	0	0	0	511	508	0	0	
1	0	0	0	0	511	508	0	0	
2	0	0	0	0	513	510	0	0	
3	0	0	0	0	513	508	0	0	
4	0	0	0	0	513	509	0	0	
5	0	0	0	0	514	508	0	0	
6	0	0	0	0	513	510	0	0	
7	0	0	0	0	514	508	0	0	
8	0	0	0	0	512	508	0	0	
9	0	0	0	0	512	510	0	0	
10	0	0	0	0	510	507	0	0	
11	0	0	0	0	511	508	0	0	
12	0	0	0	0	511	508	0	0	
13	0	0	0	0	506	508	0	0	
14	0	0	0	0	508	507	0	0	
15	0	0	0	0	509	508	0	0	
0	0	0	0	0	509	507	0	0	
1	0	0	0	0	510	510	0	0	
2	0	0	0	0	511	507	0	0	
3	0	0	0	0	510	508	0	0	
4	0	0	0	0	511	507	0	0	
5	0	0	0	0	512	507	0	0	
6	0	0	0	0	515	508	0	0	
7	0	0	0	0	514	506	0	0	
8	0	0	0	0	513	509	0	0	
9	0	0	0	0	513	508	0	0	
10	0	0	0	0	515	507	0	0	
11	0	0	0	0	512	508	0	0	
12	0	0	0	0	512	508	0	0	
13	0	0	0	0	510	508	0	0	
14	0	0	0	0	509	509	0	0	
15	0	0	0	0	509	508	0	0	
0	0	0	0	0	510	505	0	0	
1	0	0	0	0	510	508	0	0	
2	0	0	0	0	510	506	0	0	
3	0	0	0	0	509	509	0	0	
4	0	0	0	0	509	509	0	0	
5	0	0	0	0	510	508	0	0	
6	0	0	0	0	510	508	0	0	
7	0	0	0	0	512	508	0	0	
8	0	0	0	0	512	507	0	0	
9	0	0	0	0	512	510	0	0	
10	0	0	0	0	512	509	0	0	
11	0	0	0	0	514	508	0	0	
12	0	0	0	0	514	508	0	0	
13	0	0	0	0	516	510	0	0	
14	0	0	0	0	513	508	0	0	
15	0	0	0	0	514	510	0	0	
0	0	0	0	0	511	507	0	0	
1	0	0	0	0	510	507	0	0	
2	0	0	0	0	510	509	0	0	
3	0	0	0	0	510	508	0	0	
4	0	0	0	0	509	507	0	0	
5	0	0	0	0	509	504	0	0	
6	0	0	0	0	508	508	0	0	
7	0	0	0	0	509	508	0	0	
8	0	0	0	0	508	509	0	0	
9	0	0	0	0	511	507	0	0	
10	0	0	0	0	510	510	0	0	
11	0	0	0	0	512	508	0	0	
12	0	0	0	0	511	508	0	0	
13	0	0	0	0	510	508	0	0	
14	0	0	0	0	513	509	0	0	
15	0	0	0	0	513	508	0	0	
0	0	0	0	0	512	508	0	0	
1	0	0	0	0	513	508	0	0	
2	0	0	0	0	513	510	0	0	
3	0	0	0	0	513	509	0	0	
4	0	0	0	0	512	508	0	0	
5	0	0	0	0	512	508	0	0	
6	0	0	0	0	512	509	0	0	
7	0	0	0	0	507	509	0	0	
8	0	0	0	0	508	507	0	0	
9	0	0	0	0	509	507	0	0	
10	0	0	0	0	509	509	0	0	
11	0	0	0	0	509	507	0	0	
12	0	0	0	0	508	508	0	0	
13	0	0	0	0	511	510	0	0	
14	0	0	0	0	509	508	0	0	
15	0	0	0	0	510	508	0	0	
0	0	0	0	0	513	508	0	0	
1	0	0	0	0	512	506	0	0	
2	0	0	0	0	514	509	0	0	
3	0	0	0	0	514	508	0	0	
4	0	0	0	0	514	508	0	0	
5	0	0	0	0	514	508	0	0	
6	0	0	0	0	514	507	0	0	
7	0	0	0	0	515	509	0	0	
8	0	0	0	0	513	509	0	0	
9	0	0	0	0	511	508	0	0	
10	0	0	0	0	508	508	0	0	
11	0	0	0	0	509	509	0	0	
12	0	0	0	0	509	508	0	0	
13	0	0	0	0	507	508	0	0	
14	0	0	0	0	508	508	0	0	
15	0	0	0	0	508	508	0	0	
0	0	0	0	0	508	509	0	0	
1	0	0	0	0	509	507	0	0	
2	0	0	0	0	510	506	0	0	
3	0	0	0	0	511	507	0	0	
4	0	0	0	0	512	508	0	0	
5	0	0	0	0	512	509	0	0	
6	0	0	0	0	512	509	0	0	
7	0	0	0	0	514	507	0	0	
8	0	0	0	0	514	507	0	0	
9	0	0	0	0	513	507	0	0	
10	0	0	0	0	511	508	0	0	
11	0	0	0	0	512	508	0	0	
12	0	0	0	0	511	508	0	0	
13	0	0	0	0	512	506	0	0	
14	0	0	0	0	511	507	0	0	
15	0	0	0	0	509	507	0	0	
0	0	0	0	0	509	509	0	0	
1	0	0	0	0	510	508	0	0	
2	0	0	0	0	510	508	0	0	
3	0	0	0	0	507	508	0	0	
4	0	0	0	0	510	508	0	0	
5	0	0	0	0	509	507	0	0	
6	0	0	0	0	510	508	0	0	
7	0	0	0	0	512	508	0	0	
8	0	0	0	0	511	508	0	0	
9	0	0	0	0	512	508	0	0	
10	0	0	0	0	514	508	0	0	
11	0	0	0	0	515	509	0	0	
12	0	0	0	0	513	509	0	0	
13	0	0	0	0	514	507	0	0	
14	0	0	0	0	515	508	0	0	
15	0	0	0	0	513	509	0	0	
0	0	0	0	0	513	507	0	0	
1	0	0	0	0	513	508	0	0	
2	0	0	0	0	510	507	0	0	
3	0	0	0	0	508	507	0	0	
4	0	0	0	0	509	509	0	0	
5	0	0	0	0	510	507	0	0	
6	0	0	0	0	507	508	0	0	
7	0	0	0	0	508	507	0	0	
8	0	0	0	0	509	508	0	0	
9	0	0	0	0	509	508	0	0	
10	0	0	0	0	511	509	0	0	
11	0	0	0	0	511	507	0	0	
12	0	0	0	0	511	508	0	0	
13	0	0	0	0	511	508	0	0	
14	0	0	0	0	514	507	0	0	
15	0	0	0	0	512	510	0	0	
0	0	0	0	0	512	509	0	0	
1	0	0	0	0	512	508	0	0	
2	0	0	0	0	514	508	0	0	
3	0	0	0	0	511	508	0	0	
4	0	0	0	0	513	508	0	0	
5	0	0	0	0	511	507	0	0	
6	0	0	0	0	511	508	0	0	
7	0	0	0	0	511	508	0	0	
8	0	0	0	0	511	507	0	0	
9	0	0	0	0	510	510	0	0	
10	0	0	0	0	511	508	0	0	
11	0	0	0	0	508	507	0	0	
12	0	0	0	0	508	506	0	0	
13	0	0	0	0	510	506	0	0	
14	0	0	0	0	510	507	0	0	
15	0	0	0	0	512	508	0	0	
0	0	0	0	0	510	507	0	0	
1	0	0	0	0	511	508	0	0	
2	0	0	0	0	514	508	0	0	
3	0	0	0	0	511	508	0	0	
4	0	0	0	0	512	508	0	0	
5	0	0	0	0	512	507	0	0	
6	0	0	0	0	514	510	0	0	
7	0	0	0	0	512	509	0	0	
8	0	0	0	0	511	505	0	0	
9	0	0	0	0	510	508	0	0	
10	0	0	0	0	511	509	0	0	
11	0	0	0	0	507	507	0	0	
12	0	0	0	0	510	508	0	0	
13	0	0	0	0	508	507	0	0	
14	0	0	0	0	510	509	0	0	
15	0	0	0	0	510	507	0	0	
0	0	0	0	0	510	507	0	0	
1	0	0	0	0	510	510	0	0	
2	0	0	0	0	509	506	0	0	
3	0	0	0	0	511	507	0	0	
4	0	0	0	0	511	507	0	0	
5	0	0	0	0	513	508	0	0	
6	0	0	0	0	513	508	0	0	
7	0	0	0	0	512	509	0	0	
8	0	0	0	0	513	509	0	0	
9	0	0	0	0	514	509	0	0	
10	0	0	0	0	512	508	0	0	
11	0	0	0	0	512	508	0	0	
12	0	0	0	0	512	509	0	0	
13	0	0	0	0	513	507	0	0	
14	0	0	0	0	510	509	0	0	
15	0	0	0	0	510	508	0	0	
0	0	0	0	0	510	508	0	0	
1	0	0	0	0	509	509	0	0	
2	0	0	0	0	508	507	0	0	
3	0	0	0	0	508	508	0	0	
4	0	0	0	0	508	508	0	0	
5	0	0	0	0	511	509	0	0	
6	0	0	0	0	510	505	0	0	
7	0	0	0	0	511	507	0	0	
8	0	0	0	0	508	507	0	0	
9	0	0	0	0	511	508	0	0	
10	0	0	0	0	514	508	0	0	
11	0	0	0	0	513	508	0	0	
12	0	0	0	0	513	510	0	0	
13	0	0	0	0	514	508	0	0	
14	0	0	0	0	514	508	0	0	
15	0	0	0	0	513	507	0	0	
0	0	0	0	0	514	507	0	0	
1	0	0	0	0	512	509	0	0	
2	0	0	0	0	511	507	0	0	
3	0	0	0	0	510	508	0	0	
4	0	0	0	0	510	509	0	0	
5	0	0	0	0	508	508	0	0	
6	0	0	0	0	509	507	0	0	
7	0	0	0	0	507	508	0	0	
8	0	0	0	0	509	508	0	0	
9	0	0	0	0	509	508	0	0	
10	0	0	0	0	511	507	0	0	
11	0	0	0	0	512	507	0	0	
12	0	0	0	0	511	510	0	0	
13	0	0	0	0	512	508	0	0	
14	0	0	0	0	514	507	0	0	
15	0	0	0	0	514	508	0	0	
0	0	0	0	0	514	509	0	0	
1	0	0	0	0	512	508	0	0	
2	0	0	0	0	512	509	0	0	
3	0	0	0	0	514	509	0	0	
4	0	0	0	0	512	510	0	0	
5	0	0	0	0	510	509	0	0	
6	0	0	0	0	511	508	0	0	
7	0	0	0	0	510	506	0	0	
8	0	0	0	0	510	508	0	0	
9	0	0	0	0	508	508	0	0	
10	0	0	0	0	508	507	0	0	
11	0	0	0	0	509	507	0	0	
12	0	0	0	0	511	507	0	0	
13	0	0	0	0	511	507	0	0	
14	0	0	0	0	508	510	0	0	
15	0	0	0	0	511	507	0	0	
0	0	0	0	0	510	508	0	0	
1	0	0	0	0	514	510	0	0	
2	0	0	0	0	513	510	0	0	
3	0	0	0	0	513	506	0	0	
4	0	0	0	0	514	508	0	0	
5	0	0	0	0	512	508	0	0	
6	0	0	0	0	513	509	0	0	
7	0	0	0	0	513	509	0	0	
8	0	0	0	0	512	509	0	0	
9	0	0	0	0	512	508	0	0	
10	0	0	0	0	511	507	0	0	
11	0	0	0	0	507	507	0	0	
12	0	0	0	0	508	506	0	0	
13	0	0	0	0	508	509	0	0	
14	0	0	0	0	510	507	0	0	
15	0	0	0	0	508	507	0	0	
0	0	0	0	0	511	509	0	0	
1	0	0	0	0	510	511	0	0	
2	0	0	0	0	509	508	0	0	
3	0	0	0	0	512	507	0	0	
4	0	0	0	0	511	508	0	0	
5	0	0	0	0	513	509	0	0	
6	0	0	0	0	512	507	0	0	
7	0	0	0	0	513	508	0	0	
8	0	0	0	0	513	508	0	0	
9	0	0	0	0	513	508	0	0	
10	0	0	0	0	513	507	0	0	
11	0	0	0	0	515	509	0	0	
12	0	0	0	0	511	508	0	0	
13	0	0	0	0	511	508	0	0	
14	0	0	0	0	512	507	0	0	
15	0	0	0	0	511	510	0	0	
0	0	0	0	0	508	508	0	0	
1	0	0	0	0	508	508	0	0	
2	0	0	0	0	509	508	0	0	
3	0	0	0	0	508	508	0	0	
4	0	0	0	0	510	509	0	0	
5	0	0	0	0	510	509	0	0	
6	0	0	0	0	509	507	0	0	
7	0	0	0	0	510	508	0	0	
8	0	0	0	0	510	506	0	0	
9	0	0	0	0	512	508	0	0	
10	0	0	0	0	513	509	0	0	
11	0	0	0	0	514	508	0	0	
12	0	0	0	0	514	510	0	0	
13	0	0	0	0	513	508	0	0	
14	0	0	0	0	512	507	0	0	
15	0	0	0	0	511	508	0	0	
0	0	0	0	0	512	507	0	0	
1	0	0	0	0	515	508	0	0	
2	0	0	0	0	509	508	0	0	
3	0	0	0	0	509	507	0	0	
4	0	0	0	0	511	507	0	0	
5	0	0	0	0	509	508	0	0	
6	0	0	0	0	512	508	0	0	
7	0	0	0	0	510	508	0	0	
8	0	0	0	0	506	508	0	0	
9	0	0	0	0	510	508	0	0	
10	0	0	0	0	509	507	0	0	
11	0	0	0	0	510	508	0	0	
12	0	0	0	0	511	509	0	0	
13	0	0	0	0	513	508	0	0	
14	0	0	0	0	513	508	0	0	
15	0	0	0	0	513	506	0	0	
0	0	0	0	0	513	508	0	0	
1	0	0	0	0	512	507	0	0	
2	0	0	0	0	513	509	0	0	
3	0	0	0	0	513	509	0	0	
4	0	0	0	0	511	508	0	0	
5	0	0	0	0	512	507	0	0	
6	0	0	0	0	509	508	0	0	
7	0	0	0	0	509	509	0	0	
8	0	0	0	0	508	511	0	0	
9	0	0	0	0	508	508	0	0	
10	0	0	0	0	507	509	0	0	
11	0	0	0	0	510	505	0	0	
12	0	0	0	0	508	508	0	0	
13	0	0	0	0	509	508	0	0	
14	0	0	0	0	510	508	0	0	
15	0	0	0	0	511	508	0	0	
0	0	0	0	0	512	508	0	0	
1	0	0	0	0	513	508	0	0	
2	0	0	0	0	515	508	0	0	
3	0	0	0	0	514	509	0	0	
4	0	0	0	0	514	507	0	0	
5	0	0	0	0	514	507	0	0	
6	0	0	0	0	512	510	0	0	
7	0	0	0	0	512	509	0	0	
8	0	0	0	0	511	508	0	0	
9	0	0	0	0	511	508	0	0	
10	0	0	0	0	512	506	0	0	
11	0	0	0	0	510	507	0	0	
12	0	0	0	0	509	510	0	0	
13	0	0	0	0	507	510	0	0	
14	0	0	0	0	510	507	0	0	
15	0	0	0	0	509	507	0	0	
0	0	0	0	0	509	510	0	0	
1	0	0	0	0	511	508	0	0	
2	0	0	0	0	510	508	0	0	
3	0	0	0	0	510	508	0	0	
4	0	0	0	0	510	508	0	0	
5	0	0	0	0	512	508	0	0	
6	0	0	0	0	513	508	0	0	
7	0	0	0	0	512	509	0	0	
8	0	0	0	0	513	508	0	0	
9	0	0	0	0	516	508	0	0	
10	0	0	0	0	514	507	0	0	
11	0	0	0	0	511	508	0	0	
12	0	0	0	0	512	508	0	0	
13	0	0	0	0	511	507	0	0	
14	0	0	0	0	508	508	0	0	
15	0	0	0	0	508	508	0	0	
0	0	0	0	0	508	508	0	0	
1	0	0	0	0	508	510	0	0	
2	0	0	0	0	508	507	0	0	
3	0	0	0	0	508	508	0	0	
4	0	0	0	0	508	507	0	0	
5	0	0	0	0	509	506	0	0	
6	0	0	0	0	512	507	0	0	
7	0	0	0	0	510	507	0	0	
8	0	0	0	0	512	508	0	0	
9	0	0	0	0	512	509	0	0	
10	0	0	0	0	515	508	0	0	
11	0	0	0	0	514	508	0	0	
12	0	0	0	0	513	506	0	0	
13	0	0	0	0	513	510	0	0	
14	0	0	0	0	513	511	0	0	
15	0	0	0	0	513	509	0	0	
0	0	0	0	0	511	509	0	0	
1	0	0	0	0	513	507	0	0	
2	0	0	0	0	511	508	0	0	
3	0	0	0	0	508	506	0	0	
4	0	0	0	0	510	508	0	0	
5	0	0	0	0	509	507	0	0	
6	0	0	0	0	508	507	0	0	
7	0	0	0	0	510	506	0	0	
8	0	0	0	0	510	506	0	0	
9	0	0	0	0	510	507	0	0	
10	0	0	0	0	511	510	0	0	
11	0	0	0	0	510	508	0	0	
12	0	0	0	0	511	509	0	0	
13	0	0	0	0	510	509	0	0	
14	0	0	0	0	515	508	0	0	
15	0	0	0	0	513	509	0	0	
0	0	0	0	0	514	509	0	0	
1	0	0	0	0	512	510	0	0	
2	0	0	0	0	515	508	0	0	
3	0	0	0	0	512	509	0	0	
4	0	0	0	0	512	510	0	0	
5	0	0	0	0	511	507	0	0	
6	0	0	0	0	514	508	0	0	
7	0	0	0	0	511	506	0	0	
8	0	0	0	0	509	508	0	0	
9	0	0	0	0	507	505	0	0	
10	0	0	0	0	508	507	0	0	
11	0	0	0	0	508	506	0	0	
12	0	0	0	0	508	508	0	0	
13	0	0	0	0	507	509	0	0	
14	0	0	0	0	511	507	0	0	
15	0	0	0	0	511	508	0	0	
0	0	0	0	0	512	509	0	0	
1	0	0	0	0	512	511	0	0	
2	0	0	0	0	511	509	0	0	
3	0	0	0	0	514	508	0	0	
4	0	0	0	0	512	508	0	0	
5	0	0	0	0	514	508	0	0	
6	0	0	0	0	512	508	0	0	
7	0	0	0	0	512	507	0	0	
8	0	0	0	0	514	507	0	0	
9	0	0	0	0	512	508	0	0	
10	0	0	0	0	511	508	0	0	
11	0	0	0	0	508	507	0	0	
12	0	0	0	0	509	507	0	0	
13	0	0	0	0	509	506	0	0	
14	0	0	0	0	509	508	0	0	
15	0	0	0	0	509	507	0	0	
0	0	0	0	0	510	506	0	0	
1	0	0	0	0	508	507	0	0	
2	0	0	0	0	510	507	0	0	
3	0	0	0	0	509	510	0	0	
4	0	0	0	0	511	509	0	0	
5	0	0	0	0	511	510	0	0	
6	0	0	0	0	515	510	0	0	
7	0	0	0	0	512	508	0	0	
8	0	0	0	0	513	508	0	0	
9	0	0	0	0	516	508	0	0	
10	0	0	0	0	514	507	0	0	
11	0	0	0	0	512	509	0	0	
12	0	0	0	0	512	506	0	0	
13	0	0	0	0	512	507	0	0	
14	0	0	0	0	510	508	0	0	
15	0	0	0	0	510	507	0	0	
0	0	0	0	0	507	508	0	0	
1	0	0	0	0	510	506	0	0	
2	0	0	0	0	511	508	0	0	
3	0	0	0	0	508	509	0	0	
4	0	0	0	0	508	508	0	0	
5	0	0	0	0	511	509	0	0	
6	0	0	0	0	512	509	0	0	
7	0	0	0	0	512	507	0	0	
8	0	0	0	0	511	508	0	0	
9	0	0	0	0	513	509	0	0	
10	0	0	0	0	513	508	0	0	
11	0	0	0	0	513	507	0	0	
12	0	0	0	0	513	508	0	0	
13	0	0	0	0	513	508	0	0	
14	0	0	0	0	512	508	0	0	
15	0	0	0	0	511	507	0	0	
0	0	0	0	0	512	508	0	0	
1	0	0	0	0	512	508	0	0	
2	0	0	0	0	509	508	0	0	
3	0	0	0	0	509	507	0	0	
4	0	0	0	0	508	507	0	0	
5	0	0	0	0	507	509	0	0	
6	0	0	0	0	507	509	0	0	
7	0	0	0	0	508	508	0	0	
8	0	0	0	0	507	508	0	0	
9	0	0	0	0	508	506	0	0	
10	0	0	0	0	512	508	0	0	
11	0	0	0	0	509	507	0	0	
12	0	0	0	0	511	507	0	0	
13	0	0	0	0	513	507	0	0	
14	0	0	0	0	513	509	0	0	
15	0	0	0	0	515	508	0	0	
0	0	0	0	0	513	508	0	0	
1	0	0	0	0	512	508	0	0	
2	0	0	0	0	513	508	0	0	
3	0	0	0	0	512	507	0	0	
4	0	0	0	0	512	505	0	0	
5	0	0	0	0	511	508	0	0	
6	0	0	0	0	509	509	0	0	
7	0	0	0	0	511	508	0	0	
8	0	0	0	0	508	508	0	0	
9	0	0	0	0	511	508	0	0	
10	0	0	0	0	507	509	0	0	
11	0	0	0	0	510	506	0	0	
12	0	0	0	0	511	508	0	0	
13	0	0	0	0	510	508	0	0	
14	0	0	0	0	510	507	0	0	
15	0	0	0	0	509	510	0	0	
0	0	0	0	0	512	508	0	0	
1	0	0	0	0	513	508	0	0	
2	0	0	0	0	512	508	0	0	
3	0	0	0	0	515	509	0	0	
4	0	0	0	0	515	509	0	0	
5	0	0	0	0	513	507	0	0	
6	0	0	0	0	514	507	0	0	
7	0	0	0	0	512	508	0	0	
8	0	0	0	0	511	508	0	0	
9	0	0	0	0	512	507	0	0	
10	0	0	0	0	510	508	0	0	
11	0	0	0	0	509	508	0	0	
12	0	0	0	0	509	507	0	0	
13	0	0	0	0	509	508	0	0	
14	0	0	0	0	509	508	0	0	
15	0	0	0	0	508	508	0	0	
0	0	0	0	0	511	506	0	0	
1	0	0	0	0	510	506	0	0	
2	0	0	0	0	511	508	0	0	
3	0	0	0	0	510	508	0	0	
4	0	0	0	0	508	509	0	0	
5	0	0	0	0	512	507	0	0	
6	0	0	0	0	511	509	0	0	
7	0	0	0	0	513	507	0	0	
8	0	0	0	0	514	507	0	0	
9	0	0	0	0	514	508	0	0	
10	0	0	0	0	513	511	0	0	
11	0	0	0	0	514	509	0	0	
12	0	0	0	0	511	507	0	0	
13	0	0	0	0	511	509	0	0	
14	0	0	0	0	512	510	0	0	
15	0	0	0	0	509	507	0	0	
0	0	0	0	0	508	508	0	0	
1	0	0	0	0	510	507	0	0	
2	0	0	0	0	509	510	0	0	
3	0	0	0	0	510	508	0	0	
4	0	0	0	0	509	507	0	0	
5	0	0	0	0	509	510	0	0	
6	0	0	0	0	512	508	0	0	
7	0	0	0	0	513	507	0	0	
8	0	0	0	0	511	507	0	0	
9	0	0	0	0	511	510	0	0	
10	0	0	0	0	514	509	0	0	
11	0	0	0	0	512	509	0	0	
12	0	0	0	0	512	507	0	0	
13	0	0	0	0	513	507	0	0	
14	0	0	0	0	513	509	0	0	
15	0	0	0	0	514	507	0	0	
0	0	0	0	0	513	507	0	0	
1	0	0	0	0	511	507	0	0	
2	0	0	0	0	511	508	0	0	
3	0	0	0	0	509	507	0	0	
4	0	0	0	0	507	508	0	0	
5	0	0	0	0	507	508	0	0	
6	0	0	0	0	508	508	0	0	
7	0	0	0	0	509	508	0	0	
8	0	0	0	0	509	508	0	0	
9	0	0	0	0	511	509	0	0	
10	0	0	0	0	511	506	0	0	
11	0	0	0	0	510	507	0	0	
12	0	0	0	0	513	508	0	0	
13	0	0	0	0	513	508	0	0	
14	0	0	0	0	514	508	0	0	
15	0	0	0	0	514	508	0	0	
0	0	0	0	0	512	507	0	0	
1	0	0	0	0	514	509	0	0	
2	0	0	0	0	514	510	0	0	
3	0	0	0	0	511	510	0	0	
4	0	0	0	0	512	509	0	0	
5	0	0	0	0	511	508	0	0	
6	0	0	0	0	512	508	0	0	
7	0	0	0	0	509	508	0	0	
8	0	0	0	0	508	507	0	0	
9	0	0	0	0	507	508	0	0	
10	0	0	0	0	508	508	0	0	
11	0	0	0	0	510	506	0	0	
12	0	0	0	0	511	507	0	0	
13	0	0	0	0	509	509	0	0	
14	0	0	0	0	510	508	0	0	
15	0	0	0	0	511	508	0	0	
0	0	0	0	0	512	507	0	0	
1	0	0	0	0	512	506	0	0	
2	0	0	0	0	511	510	0	0	
3	0	0	0	0	512	510	0	0	
4	0	0	0	0	511	508	0	0	
5	0	0	0	0	513	507	0	0	
6	0	0	0	0	514	508	0	0	
7	0	0	0	0	513	509	0	0	
8	0	0	0	0	512	508	0	0	
9	0	0	0	0	511	507	0	0	
10	0	0	0	0	511	507	0	0	
11	0	0	0	0	509	508	0	0	
12	0	0	0	0	509	508	0	0	
13	0	0	0	0	510	508	0	0	
14	0	0	0	0	508	509	0	0	
15	0	0	0	0	509	508	0	0	
0	0	0	0	0	508	507	0	0	
1	0	0	0	0	509	508	0	0	
2	0	0	0	0	511	507	0	0	
3	0	0	0	0	512	507	0	0	
4	0	0	0	0	512	507	0	0	
5	0	0	0	0	512	510	0	0	
6	0	0	0	0	512	508	0	0	
7	0	0	0	0	511	508	0	0	
8	0	0	0	0	513	508	0	0	
9	0	0	0	0	513	510	0	0	
10	0	0	0	0	512	510	0	0	
11	0	0	0	0	513	510	0	0	
12	0	0	0	0	512	510	0	0	
13	0	0	0	0	513	508	0	0	
14	0	0	0	0	509	505	0	0	
15	0	0	0	0	509	508	0	0	
0	0	0	0	0	511	510	0	0	
1	0	0	0	0	509	507	0	0	
2	0	0	0	0	508	507	0	0	
3	0	0	0	0	508	508	0	0	
4	0	0	0	0	511	507	0	0	
5	0	0	0	0	511	507	0	0	
6	0	0	0	0	510	508	0	0	
7	0	0	0	0	509	508	0	0	
8	0	0	0	0	513	508	0	0	
9	0	0	0	0	514	507	0	0	
10	0	0	0	0	512	511	0	0	
11	0	0	0	0	513	508	0	0	
12	0	0	0	0	513	509	0	0	
13	0	0	0	0	514	509	0	0	
14	0	0	0	0	514	508	0	0	
15	0	0	0	0	513	510	0	0	
0	0	0	0	0	513	508	0	0	
1	0	0	0	0	512	509	0	0	
2	0	0	0	0	510	506	0	0	
3	0	0	0	0	509	506	0	0	
4	0	0	0	0	508	508	0	0	
5	0	0	0	0	509	508	0	0	
6	0	0	0	0	510	508	0	0	
7	0	0	0	0	507	509	0	0	
8	0	0	0	0	508	507	0	0	
9	0	0	0	0	508	508	0	0	
10	0	0	0	0	511	508	0	0	
11	0	0	0	0	510	510	0	0	
12	0	0	0	0	513	508	0	0	
13	0	0	0	0	512	509	0	0	
14	0	0	0	0	511	506	0	0	
15	0	0	0	0	514	508	0	0	
0	0	0	0	0	514	508	0	0	
1	0	0	0	0	512	507	0	0	
2	0	0	0	0	513	509	0	0	
3	0	0	0	0	514	508	0	0	
4	0	0	0	0	512	507	0	0	
5	0	0	0	0	509	507	0	0	
6	0	0	0	0	509	508	0	0	
7	0	0	0	0	509	507	0	0	
8	0	0	0	0	510	508	0	0	
9	0	0	0	0	510	510	0	0	
10	0	0	0	0	508	509	0	0	
11	0	0	0	0	505	506	0	0	
12	0	0	0	0	507	507	0	0	
13	0	0	0	0	509	508	0	0	
14	0	0	0	0	511	509	0	0	
15	0	0	0	0	512	507	0	0	
0	0	0	0	0	515	508	0	0	
1	0	0	0	0	514	508	0	0	
2	0	0	0	0	514	508	0	0	
3	0	0	0	0	513	508	0	0	
4	0	0	0	0	512	508	0	0	
5	0	0	0	0	513	509	0	0	
6	0	0	0	0	514	508	0	0	
7	0	0	0	0	516	509	0	0	
8	0	0	0	0	512	507	0	0	
9	0	0	0	0	512	507	0	0	
10	0	0	0	0	512	506	0	0	
11	0	0	0	0	508	508	0	0	
12	0	0	0	0	509	508	0	0	
13	0	0	0	0	509	507	0	0	
14	0	0	0	0	510	509	0	0	
15	0	0	0	0	511	508	0	0	
0	0	0	0	0	508	508	0	0	
1	0	0	0	0	511	508	0	0	
2	0	0	0	0	511	508	0	0	
3	0	0	0	0	509	508	0	0	
4	0	0	0	0	510	509	0	0	
5	0	0	0	0	512	506	0	0	
6	0	0	0	0	513	508	0	0	
7	0	0	0	0	512	509	0	0	
8	0	0	0	0	513	506	0	0	
9	0	0	0	0	513	508	0	0	
10	0	0	0	0	513	508	0	0	
11	0	0	0	0	512	509	0	0	
12	0	0	0	0	513	506	0	0	
13	0	0	0	0	509	508	0	0	
14	0	0	0	0	511	508	0	0	
15	0	0	0	0	507	508	0	0	
0	0	0	0	0	507	508	0	0	
1	0	0	0	0	509	507	0	0	
2	0	0	0	0	510	509	0	0	
3	0	0	0	0	509	508	0	0	
4	0	0	0	0	509	506	0	0	
5	0	0	0	0	510	507	0	0	
6	0	0	0	0	513	509	0	0	
7	0	0	0	0	511	509	0	0	
8	0	0	0	0	511	508	0	0	
9	0	0	0	0	513	508	0	0	
10	0	0	0	0	513	506	0	0	
11	0	0	0	0	514	508	0	0	
12	0	0	0	0	514	508	0	0	
13	0	0	0	0	512	509	0	0	
14	0	0	0	0	513	508	0	0	
15	0	0	0	0	511	508	0	0	
0	0	0	0	0	510	507	0	0	
1	0	0	0	0	510	507	0	0	
2	0	0	0	0	509	506	0	0	
3	0	0	0	0	510	509	0	0	
4	0	0	0	0	508	508	0	0	
5	0	0	0	0	507	506	0	0	
6	0	0	0	0	509	510	0	0	
7	0	0	0	0	510	508	0	0	
8	0	0	0	0	507	508	0	0	
9	0	0	0	0	508	508	0	0	
10	0	0	0	0	511	507	0	0	
11	0	0	0	0	513	508	0	0	
12	0	0	0	0	512	510	0	0	
13	0	0	0	0	511	509	0	0	
14	0	0	0	0	515	509	0	0	
15	0	0	0	0	513	508	0	0	
0	0	0	0	0	513	509	0	0	
1	0	0	0	0	512	507	0	0	
2	0	0	0	0	513	511	0	0	
3	0	0	0	0	512	507	0	0	
4	0	0	0	0	513	508	0	0	
5	0	0	0	0	511	508	0	0	
6	0	0	0	0	512	508	0	0	
7	0	0	0	0	511	508	0	0	
8	0	0	0	0	508	506	0	0	
9	0	0	0	0	511	508	0	0	
10	0	0	0	0	507	507	0	0	
11	0	0	0	0	508	507	0	0	
12	0	0	0	0	508	506	0	0	
13	0	0	0	0	509	507	0	0	
14	0	0	0	0	511	508	0	0	
15	0	0	0	0	512	508	0	0	
0	0	0	0	0	511	507	0	0	
1	0	0	0	0	512	510	0	0	
2	0	0	0	0	515	509	0	0	
3	0	0	0	0	515	509	0	0	
4	0	0	0	0	513	510	0	0	
5	0	0	0	0	513	507	0	0	
6	0	0	0	0	514	508	0	0	
7	0	0	0	0	514	509	0	0	
8	0	0	0	0	511	508	0	0	
9	0	0	0	0	510	509	0	0	
10	0	0	0	0	512	508	0	0	
11	0	0	0	0	509	507	0	0	
12	0	0	0	0	508	508	0	0	
13	0	0	0	0	510	507	0	0	
14	0	0	0	0	510	505	0	0	
15	0	0	0	0	508	508	0	0	
0	0	0	0	0	511	509	0	0	
1	0	0	0	0	509	508	0	0	
2	0	0	0	0	510	509	0	0	
3	0	0	0	0	512	507	0	0	
4	0	0	0	0	512	508	0	0	
5	0	0	0	0	513	509	0	0	
6	0	0	0	0	513	508	0	0	
7	0	0	0	0	513	508	0	0	
8	0	0	0	0	515	508	0	0	
9	0	0	0	0	512	508	0	0	
10	0	0	0	0	512	508	0	0	
11	0	0	0	0	511	509	0	0	
12	0	0	0	0	512	505	0	0	
13	0	0	0	0	511	508	0	0	
14	0	0	0	0	512	506	0	0	
15	0	0	0	0	511	506	0	0	
0	0	0	0	0	510	508	0	0	
1	0	0	0	0	511	506	0	0	
2	0	0	0	0	508	508	0	0	
3	0	0	0	0	508	510	0	0	
4	0	0	0	0	509	509	0	0	
5	0	0	0	0	508	508	0	0	
6	0	0	0	0	510	507	0	0	
7	0	0	0	0	512	507	0	0	
8	0	0	0	0	511	507	0	0	
9	0	0	0	0	511	510	0	0	
10	0	0	0	0	513	510	0	0	
11	0	0	0	0	512	509	0	0	
12	0	0	0	0	513	508	0	0	
13	0	0	0	0	513	509	0	0	
14	0	0	0	0	513	506	0	0	
15	0	0	0	0	512	508	0	0	
0	0	0	0	0	511	507	0	0	
1	0	0	0	0	511	508	0	0	
2	0	0	0	0	510	507	0	0	
3	0	0	0	0	508	508	0	0	
4	0	0	0	0	507	508	0	0	
5	0	0	0	0	509	507	0	0	
6	0	0	0	0	510	508	0	0	
7	0	0	0	0	508	506	0	0	
8	0	0	0	0	511	509	0	0	
9	0	0	0	0	511	507	0	0	
10	0	0	0	0	510	508	0	0	
11	0	0	0	0	513	508	0	0	
12	0	0	0	0	512	507	0	0	
13	0	0	0	0	511	509	0	0	
14	0	0	0	0	512	509	0	0	
15	0	0	0	0	511	509	0	0	
0	0	0	0	0	513	508	0	0	
1	0	0	0	0	514	508	0	0	
2	0	0	0	0	515	509	0	0	
3	0	0	0	0	514	508	0	0	
4	0	0	0	0	512	509	0	0	
5	0	0	0	0	513	507	0	0	
6	0	0	0	0	508	507	0	0	
7	0	0	0	0	509	505	0	0	
8	0	0	0	0	508	508	0	0	
9	0	0	0	0	509	507	0	0	
10	0	0	0	0	509	507	0	0	
11	0	0	0	0	509	507	0	0	
12	0	0	0	0	510	506	0	0	
13	0	0	0	0	510	508	0	0	
14	0	0	0	0	510	506	0	0	
15	0	0	0	0	511	509	0	0	
0	0	0	0	0	513	510	0	0	
1	0	0	0	0	511	510	0	0	
2	0	0	0	0	513	508	0	0	
3	0	0	0	0	511	507	0	0	
4	0	0	0	0	514	508	0	0	
5	0	0	0	0	513	507	0	0	
6	0	0	0	0	514	508	0	0	
7	0	0	0	0	513	509	0	0	
8	0	0	0	0	511	509	0	0	
9	0	0	0	0	510	508	0	0	
10	0	0	0	0	511	507	0	0	
11	0	0	0	0	510	506	0	0	
12	0	0	0	0	511	507	0	0	
13	0	0	0	0	509	508	0	0	
14	0	0	0	0	510	509	0	0	
15	0	0	0	0	508	509	0	0	
0	0	0	0	0	508	508	0	0	
1	0	0	0	0	508	508	0	0	
2	0	0	0	0	508	507	0	0	
3	0	0	0	0	511	507	0	0	
4	0	0	0	0	513	509	0	0	
5	0	0	0	0	514	508	0	0	
6	0	0	0	0	514	507	0	0	
7	0	0	0	0	514	509	0	0	
8	0	0	0	0	514	507	0	0	
9	0	0	0	0	514	508	0	0	
10	0	0	0	0	512	509	0	0	
11	0	0	0	0	514	507	0	0	
12	0	0	0	0	511	507	0	0	
13	0	0	0	0	510	509	0	0	
14	0	0	0	0	508	508	0	0	
15	0	0	0	0	511	507	0	0	
0	0	0	0	0	509	507	0	0	
1	0	0	0	0	509	509	0	0	
2	0	0	0	0	511	509	0	0	
3	0	0	0	0	510	507	0	0	
4	0	0	0	0	508	507	0	0	
5	0	0	0	0	511	508	0	0	
6	0	0	0	0	510	509	0	0	
7	0	0	0	0	511	508	0	0	
8	0	0	0	0	511	508	0	0	
9	0	0	0	0	511	510	0	0	
10	0	0	0	0	513	508	0	0	
11	0	0	0	0	513	509	0	0	
12	0	0	0	0	514	508	0	0	
13	0	0	0	0	515	508	0	0	
14	0	0	0	0	514	507	0	0	
15	0	0	0	0	511	508	0	0	
0	0	0	0	0	513	508	0	0	
1	0	0	0	0	509	508	0	0	
2	0	0	0	0	508	507	0	0	
3	0	0	0	0	510	506	0	0	
4	0	0	0	0	510	505	0	0	
5	0	0	0	0	508	507	0	0	
6	0	0	0	0	508	507	0	0	
7	0	0	0	0	510	509	0	0	
8	0	0	0	0	510	510	0	0	
9	0	0	0	0	511	508	0	0	
10	0	0	0	0	508	508	0	0	
11	0	0	0	0	510	510	0	0	
12	0	0	0	0	510	506	0	0	
13	0	0	0	0	511	508	0	0	
14	0	0	0	0	514	508	0	0	
15	0	0	0	0	513	509	0	0	
0	0	0	0	0	512	509	0	0	
1	0	0	0	0	513	509	0	0	
2	0	0	0	0	514	508	0	0	
3	0	0	0	0	513	508	0	0	
4	0	0	0	0	511	509	0	0	
5	0	0	0	0	512	508	0	0	
6	0	0	0	0	510	506	0	0	
7	0	0	0	0	511	506	0	0	
8	0	0	0	0	508	508	0	0	
9	0	0	0	0	510	506	0	0	
10	0	0	0	0	508	508	0	0	
11	0	0	0	0	510	509	0	0	
12	0	0	0	0	510	509	0	0	
13	0	0	0	0	509	508	0	0	
14	0	0	0	0	511	507	0	0	
15	0	0	0	0	510	507	0	0	
0	0	0	0	0	512	508	0	0	
1	0	0	0	0	512	510	0	0	
2	0	0	0	0	513	508	0	0	
3	0	0	0	0	512	509	0	0	
4	0	0	0	0	514	507	0	0	
5	0	0	0	0	514	507	0	0	
6	0	0	0	0	512	510	0	0	
7	0	0	0	0	512	508	0	0	
8	0	0	0	0	511	508	0	0	
9	0	0	0	0	511	510	0	0	
10	0	0	0	0	510	507	0	0	
11	0	0	0	0	510	507	0	0	
12	0	0	0	0	509	507	0	0	
13	0	0	0	0	509	510	0	0	
14	0	0	0	0	507	507	0	0	
15	0	0	0	0	511	507	0	0	
0	0	0	0	0	510	508	0	0	
1	0	0	0	0	510	508	0	0	
2	0	0	0	0	512	507	0	0	
3	0	0	0	0	510	507	0	0	
4	0	0	0	0	510	507	0	0	
5	0	0	0	0	511	508	0	0	
6	0	0	0	0	513	510	0	0	
7	0	0	0	0	514	508	0	0	
8	0	0	0	0	512	507	0	0	
9	0	0	0	0	515	508	0	0	
10	0	0	0	0	515	510	0	0	
11	0	0	0	0	513	508	0	0	
12	0	0	0	0	511	508	0	0	
13	0	0	0	0	511	509	0	0	
14	0	0	0	0	511	508	0	0	
15	0	0	0	0	510	509	0	0	
0	0	0	0	0	508	508	0	0	
1	0	0	0	0	509	508	0	0	
2	0	0	0	0	510	508	0	0	
3	0	0	0	0	510	508	0	0	
4	0	0	0	0	508	506	0	0	
5	0	0	0	0	511	506	0	0	
6	0	0	0	0	512	508	0	0	
7	0	0	0	0	511	508	0	0	
8	0	0	0	0	509	508	0	0	
9	0	0	0	0	512	507	0	0	
10	0	0	0	0	512	508	0	0	
11	0	0	0	0	514	508	0	0	
12	0	0	0	0	514	509	0	0	
13	0	0	0	0	513	508	0	0	
14	0	0	0	0	515	509	0	0	
15	0	0	0	0	513	508	0	0	
0	0	0	0	0	510	510	0	0	
1	0	0	0	0	511	508	0	0	
2	0	0	0	0	513	509	0	0	
3	0	0	0	0	510	507	0	0	
4	0	0	0	0	508	506	0	0	
5	0	0	0	0	507	507	0	0	
6	0	0	0	0	510	507	0	0	
7	0	0	0	0	509	509	0	0	
8	0	0	0	0	512	507	0	0	
9	0	0	0	0	508	508	0	0	
10	0	0	0	0	511	509	0	0	
11	0	0	0	0	511	508	0	0	
12	0	0	0	0	514	509	0	0	
13	0	0	0	0	511	508	0	0	
14	0	0	0	0	515	508	0	0	
15	0	0	0	0	513	507	0	0	
0	0	0	0	0	512	509	0	0	
1	0	0	0	0	515	508	0	0	
2	0	0	0	0	513	510	0	0	
3	0	0	0	0	511	509	0	0	
4	0	0	0	0	513	510	0	0	
5	0	0	0	0	511	510	0	0	
6	0	0	0	0	508	507	0	0	
7	0	0	0	0	509	508	0	0	
8	0	0	0	0	509	507	0	0	
9	0	0	0	0	508	507	0	0	
10	0	0	0	0	510	507	0	0	
11	0	0	0	0	508	508	0	0	
12	0	0	0	0	509	508	0	0	
13	0	0	0	0	510	506	0	0	
14	0	0	0	0	510	510	0	0	
15	0	0	0	0	511	508	0	0	
0	0	0	0	0	513	508	0	0	
1	0	0	0	0	512	509	0	0	
2	0	0	0	0	511	508	0	0	
3	0	0	0	0	514	508	0	0	
4	0	0	0	0	514	507	0	0	
5	0	0	0	0	512	508	0	0	
6	0	0	0	0	512	508	0	0	
7	0	0	0	0	512	509	0	0	
8	0	0	0	0	513	508	0	0	
9	0	0	0	0	509	508	0	0	
10	0	0	0	0	510	507	0	0	
11	0	0	0	0	509	508	0	0	
12	0	0	0	0	509	507	0	0	
13	0	0	0	0	508	508	0	0	
14	0	0	0	0	510	507	0	0	
15	0	0	0	0	508	508	0	0	
0	0	0	0	0	508	507	0	0	
1	0	0	0	0	510	508	0	0	
2	0	0	0	0	510	509	0	0	
3	0	0	0	0	510	508	0	0	
4	0	0	0	0	512	510	0	0	
5	0	0	0	0	512	507	0	0	
6	0	0	0	0	512	507	0	0	
7	0	0	0	0	514	510	0	0	
8	0	0	0	0	513	508	0	0	
9	0	0	0	0	513	509	0	0	
10	0	0	0	0	514	508	0	0	
11	0	0	0	0	513	508	0	0	
12	0	0	0	0	514	508	0	0	
13	0	0	0	0	510	507	0	0	
14	0	0	0	0	514	505	0	0	
15	0	0	0	0	509	507	0	0	
0	0	0	0	0	511	509	0	0	
1	0	0	0	0	509	508	0	0	
2	0	0	0	0	508	508	0	0	
3	0	0	0	0	508	508	0	0	
4	0	0	0	0	509	508	0	0	
5	0	0	0	0	508	508	0	0	
6	0	0	0	0	510	508	0	0	
7	0	0	0	0	511	508	0	0	
8	0	0	0	0	513	508	0	0	
9	0	0	0	0	510	510	0	0	
10	0	0	0	0	513	511	0	0	
11	0	0	0	0	513	506	0	0	
12	0	0	0	0	514	509	0	0	
13	0	0	0	0	513	508	0	0	
14	0	0	0	0	514	507	0	0	
15	0	0	0	0	512	509	0	0	
0	0	0	0	0	512	508	0	0	
1	0	0	0	0	511	508	0	0	
2	0	0	0	0	509	508	0	0	
3	0	0	0	0	510	506	0	0	
4	0	0	0	0	511	507	0	0	
5	0	0	0	0	509	510	0	0	
6	0	0	0	0	509	507	0	0	
7	0	0	0	0	510	506	0	0	
8	0	0	0	0	510	507	0	0	
9	0	0	0	0	510	508	0	0	
10	0	0	0	0	510	505	0	0	
11	0	0	0	0	510	510	0	0	
12	0	0	0	0	511	510	0	0	
13	0	0	0	0	513	508	0	0	
14	0	0	0	0	512	509	0	0	
15	0	0	0	0	514	510	0	0	
0	0	0	0	0	514	508	0	0	
1	0	0	0	0	514	510	0	0	
2	0	0	0	0	512	510	0	0	
3	0	0	0	0	510	508	0	0	
4	0	0	0	0	511	509	0	0	
5	0	0	0	0	511	507	0	0	
6	0	0	0	0	512	507	0	0	
7	0	0	0	0	511	507	0	0	
8	0	0	0	0	508	506	0	0	
9	0	0	0	0	508	506	0	0	
10	0	0	0	0	508	507	0	0	
11	0	0	0	0	508	508	0	0	
12	0	0	0	0	508	506	0	0	
13	0	0	0	0	511	508	0	0	
14	0	0	0	0	511	509	0	0	
15	0	0	0	0	509	508	0	0	
0	0	0	0	0	510	509	0	0	
1	0	0	0	0	513	508	0	0	
2	0	0	0	0	514	509	0	0	
3	0	0	0	0	516	509	0	0	
4	0	0	0	0	514	507	0	0	
5	0	0	0	0	514	508	0	0	
6	0	0	0	0	513	508	0	0	
7	0	0	0	0	515	508	0	0	
8	0	0	0	0	511	507	0	0	
9	0	0	0	0	510	508	0	0	
10	0	0	0	0	509	509	0	0	
11	0	0	0	0	509	510	0	0	
12	0	0	0	0	509	509	0	0	
13	0	0	0	0	508	507	0	0	
14	0	0	0	0	509	507	0	0	
15	0	0	0	0	507	508	0	0	
0	0	0	0	0	510	507	0	0	
1	0	0	0	0	510	506	0	0	
2	0	0	0	0	510	506	0	0	
3	0	0	0	0	508	508	0	0	
4	0	0	0	0	512	508	0	0	
5	0	0	0	0	512	509	0	0	
6	0	0	0	0	515	508	0	0	
7	0	0	0	0	514	508	0	0	
8	0	0	0	0	514	509	0	0	
9	0	0	0	0	514	507	0	0	
10	0	0	0	0	512	508	0	0	
11	0	0	0	0	513	506	0	0	
12	0	0	0	0	512	508	0	0	
13	0	0	0	0	512	509	0	0	
14	0	0	0	0	510	508	0	0	
15	0	0	0	0	510	510	0	0	
0	0	0	0	0	511	508	0	0	
1	0	0	0	0	508	507	0	0	
2	0	0	0	0	510	507	0	0	
3	0	0	0	0	510	506	0	0	
4	0	0	0	0	508	507	0	0	
5	0	0	0	0	511	511	0	0	
6	0	0	0	0	513	509	0	0	
7	0	0	0	0	511	509	0	0	
8	0	0	0	0	509	508	0	0	
9	0	0	0	0	513	509	0	0	
10	0	0	0	0	514	508	0	0	
11	0	0	0	0	512	508	0	0	
12	0	0	0	0	514	507	0	0	
13	0	0	0	0	512	509	0	0	
14	0	0	0	0	515	510	0	0	
15	0	0	0	0	511	507	0	0	
0	0	0	0	0	513	509	0	0	
1	0	0	0	0	512	506	0	0	
2	0	0	0	0	509	508	0	0	
3	0	0	0	0	510	506	0	0	
4	0	0	0	0	508	508	0	0	
5	0	0	0	0	510	508	0	0	
6	0	0	0	0	511	509	0	0	
7	0	0	0	0	507	505	0	0	
8	0	0	0	0	508	507	0	0	
9	0	0	0	0	509	508	0	0	
10	0	0	0	0	512	507	0	0	
11	0	0	0	0	512	508	0	0	
12	0	0	0	0	511	508	0	0	
13	0	0	0	0	512	509	0	0	
14	0	0	0	0	513	510	0	0	
15	0	0	0	0	513	508	0	0	
0	0	0	0	0	514	509	0	0	
1	0	0	0	0	515	508	0	0	
2	0	0	0	0	511	508	0	0	
3	0	0	0	0	513	510	0	0	
4	0	0	0	0	511	507	0	0	
5	0	0	0	0	512	509	0	0	
6	0	0	0	0	511	507	0	0	
7	0	0	0	0	508	507	0	0	
8	0	0	0	0	509	508	0	0	
9	0	0	0	0	509	508	0	0	
10	0	0	0	0	508	507	0	0	
11	0	0	0	0	508	507	0	0	
12	0	0	0	0	508	508	0	0	
13	0	0	0	0	512	508	0	0	
14	0	0	0	0	512	508	0	0	
15	0	0	0	0	511	508	0	0	
0	0	0	0	0	514	510	0	0	
1	0	0	0	0	515	509	0	0	
2	0	0	0	0	514	508	0	0	
3	0	0	0	0	513	508	0	0	
4	0	0	0	0	511	508	0	0	
5	0	0	0	0	511	509	0	0	
6	0	0	0	0	512	510	0	0	
7	0	0	0	0	512	508	0	0	
8	0	0	0	0	510	510	0	0	
9	0	0	0	0	510	508	0	0	
10	0	0	0	0	508	509	0	0	
11	0	0	0	0	508	506	0	0	
12	0	0	0	0	508	508	0	0	
13	0	0	0	0	509	508	0	0	
14	0	0	0	0	508	507	0	0	
15	0	0	0	0	507	508	0	0	
0	0	0	0	0	510	508	0	0	
1	0	0	0	0	511	509	0	0	
2	0	0	0	0	512	506	0	0	
3	0	0	0	0	512	510	0	0	
4	0	0	0	0	512	508	0	0	
5	0	0	0	0	513	508	0	0	
6	0	0	0	0	512	508	0	0	
7	0	0	0	0	513	509	0	0	
8	0	0	0	0	512	508	0	0	
9	0	0	0	0	514	508	0	0	
10	0	0	0	0	515	507	0	0	
11	0	0	0	0	512	510	0	0	
12	0	0	0	0	513	506	0	0	
13	0	0	0	0	511	508	0	0	
14	0	0	0	0	510	506	0	0	
15	0	0	0	0	511	507	0	0	
0	0	0	0	0	507	508	0	0	
1	0	0	0	0	510	509	0	0	
2	0	0	0	0	509	508	0	0	
3	0	0	0	0	508	507	0	0	
4	0	0	0	0	508	508	0	0	
5	0	0	0	0	510	507	0	0	
6	0	0	0	0	511	507	0	0	
7	0	0	0	0	511	508	0	0	
8	0	0	0	0	510	508	0	0	
9	0	0	0	0	511	507	0	0	
10	0	0	0	0	512	510	0	0	
11	0	0	0	0	513	510	0	0	
12	0	0	0	0	513	507	0	0	
13	0	0	0	0	513	509	0	0	
14	0	0	0	0	514	508	0	0	
15	0	0	0	0	511	507	0	0	
0	0	0	0	0	512	509	0	0	
1	0	0	0	0	510	510	0	0	
2	0	0	0	0	509	507	0	0	
3	0	0	0	0	512	508	0	0	
4	0	0	0	0	508	507	0	0	
5	0	0	0	0	510	507	0	0	
6	0	0	0	0	509	508	0	0	
7	0	0	0	0	507	508	0	0	
8	0	0	0	0	510	507	0	0	
9	0	0	0	0	509	508	0	0	
10	0	0	0	0	510	509	0	0	
11	0	0	0	0	512	509	0	0	
12	0	0	0	0	513	506	0	0	
13	0	0	0	0	511	509	0	0	
14	0	0	0	0	513	510	0	0	
15	0	0	0	0	513	509	0	0	
0	0	0	0	0	513	509	0	0	
1	0	0	0	0	514	506	0	0	
2	0	0	0	0	515	508	0	0	
3	0	0	0	0	512	507	0	0	
4	0	0	0	0	513	508	0	0	
5	0	0	0	0	512	506	0	0	
6	0	0	0	0	511	508	0	0	
7	0	0	0	0	508	507	0	0	
8	0	0	0	0	509	508	0	0	
9	0	0	0	0	508	508	0	0	
10	0	0	0	0	506	506	0	0	
11	0	0	0	0	509	508	0	0	
12	0	0	0	0	509	509	0	0	
13	0	0	0	0	510	507	0	0	
14	0	0	0	0	511	508	0	0	
15	0	0	0	0	510	510	0	0	
0	0	0	0	0	513	507	0	0	
1	0	0	0	0	512	508	0	0	
2	0	0	0	0	514	509	0	0	
3	0	0	0	0	513	508	0	0	
4	0	0	0	0	511	508	0	0	
5	0	0	0	0	513	509	0	0	
6	0	0	0	0	514	509	0	0	
7	0	0	0	0	513	508	0	0	
8	0	0	0	0	513	508	0	0	
9	0	0	0	0	512	508	0	0	
10	0	0	0	0	509	508	0	0	
11	0	0	0	0	511	508	0	0	
12	0	0	0	0	506	507	0	0	
13	0	0	0	0	510	507	0	0	
14	0	0	0	0	509	507	0	0	
15	0	0	0	0	508	508	0	0	
0	0	0	0	0	511	508	0	0	
1	0	0	0	0	510	507	0	0	
2	0	0	0	0	510	507	0	0	
3	0	0	0	0	511	508	0	0	
4	0	0	0	0	512	509	0	0	
5	0	0	0	0	512	509	0	0	
6	0	0	0	0	515	507	0	0	
7	0	0	0	0	515	508	0	0	
8	0	0	0	0	515	510	0	0	
9	0	0	0	0	513	509	0	0	
10	0	0	0	0	514	508	0	0	
11	0	0	0	0	513	508	0	0	
12	0	0	0	0	513	508	0	0	
13	0	0	0	0	509	509	0	0	
14	0	0	0	0	508	509	0	0	
15	0	0	0	0	507	506	0	0	
0	0	0	0	0	508	508	0	0	
1	0	0	0	0	507	509	0	0	
2	0	0	0	0	507	506	0	0	
3	0	0	0	0	509	508	0	0	
4	0	0	0	0	507	508	0	0	
5	0	0	0	0	511	508	0	0	
6	0	0	0	0	510	506	0	0	
7	0	0	0	0	511	507	0	0	
8	0	0	0	0	513	510	0	0	
9	0	0	0	0	512	508	0	0	
10	0	0	0	0	513	508	0	0	
11	0	0	0	0	514	509	0	0	
12	0	0	0	0	513	510	0	0	
13	0	0	0	0	514	506	0	0	
14	0	0	0	0	518	509	0	0	
15	0	0	0	0	512	507	0	0	
0	0	0	0	0	512	508	0	0	
1	0	0	0	0	512	508	0	0	
2	0	0	0	0	509	511	0	0	
3	0	0	0	0	508	509	0	0	
4	0	0	0	0	508	507	0	0	
5	0	0	0	0	511	507	0	0	
6	0	0	0	0	510	508	0	0	
7	0	0	0	0	509	507	0	0	
8	0	0	0	0	509	509	0	0	
9	0	0	0	0	510	508	0	0	
10	0	0	0	0	510	507	0	0	
11	0	0	0	0	512	509	0	0	
12	0	0	0	0	511	507	0	0	
13	0	0	0	0	512	508	0	0	
14	0	0	0	0	516	508	0	0	
15	0	0	0	0	514	509	0	0	
0	0	0	0	0	514	506	0	0	
1	0	0	0	0	512	508	0	0	
2	0	0	0	0	511	508	0	0	
3	0	0	0	0	511	507	0	0	
4	0	0	0	0	511	508	0	0	
5	0	0	0	0	511	508	0	0	
6	0	0	0	0	511	508	0	0	
7	0	0	0	0	509	508	0	0	
8	0	0	0	0	508	510	0	0	
9	0	0	0	0	510	508	0	0	
10	0	0	0	0	510	506	0	0	
11	0	0	0	0	510	507	0	0	
12	0	0	0	0	509	508	0	0	
13	0	0	0	0	511	508	0	0	
14	0	0	0	0	509	508	0	0	
15	0	0	0	0	508	508	0	0	
0	0	0	0	0	509	507	0	0	
1	0	0	0	0	510	506	0	0	
2	0	0	0	0	511	508	0	0	
3	0	0	0	0	514	508	0	0	
4	0	0	0	0	516	508	0	0	
5	0	0	0	0	512	509	0	0	
6	0	0	0	0	512	508	0	0	
7	0	0	0	0	513	508	0	0	
8	0	0	0	0	514	510	0	0	
9	0	0	0	0	512	509	0	0	
10	0	0	0	0	510	508	0	0	
11	0	0	0	0	511	508	0	0	
12	0	0	0	0	509	507	0	0	
13	0	0	0	0	510	508	0	0	
14	0	0	0	0	510	508	0	0	
15	0	0	0	0	508	509	0	0	
0	0	0	0	0	508	507	0	0	
1	0	0	0	0	509	508	0	0	
2	0	0	0	0	510	507	0	0	
3	0	0	0	0	511	507	0	0	
4	0	0	0	0	511	505	0	0	
5	0	0	0	0	513	509	0	0	
6	0	0	0	0	512	508	0	0	
7	0	0	0	0	515	508	0	0	
8	0	0	0	0	512	508	0	0	
9	0	0	0	0	514	508	0	0	
10	0	0	0	0	514	509	0	0	
11	0	0	0	0	511	507	0	0	
12	0	0	0	0	513	506	0	0	
13	0	0	0	0	510	508	0	0	
14	0	0	0	0	510	510	0	0	
15	0	0	0	0	509	507	0	0	
0	0	0	0	0	509	508	0	0	
1	0	0	0	0	510	506	0	0	
2	0	0	0	0	509	508	0	0	
3	0	0	0	0	508	507	0	0	
4	0	0	0	0	511	510	0	0	
5	0	0	0	0	511	508	0	0	
6	0	0	0	0	511	508	0	0	
7	0	0	0	0	509	508	0	0	
8	0	0	0	0	510	508	0	0	
9	0	0	0	0	512	506	0	0	
10	0	0	0	0	511	507	0	0	
11	0	0	0	0	513	510	0	0	
12	0	0	0	0	513	508	0	0	
13	0	0	0	0	513	510	0	0	
14	0	0	0	0	512	508	0	0	
15	0	0	0	0	513	509	0	0	
0	0	0	0	0	513	507	0	0	
1	0	0	0	0	510	508	0	0	
2	0	0	0	0	510	507	0	0	
3	0	0	0	0	510	509	0	0	
4	0	0	0	0	509	507	0	0	
5	0	0	0	0	508	507	0	0	
6	0	0	0	0	508	507	0	0	
7	0	0	0	0	507	506	0	0	
8	0	0	0	0	511	508	0	0	
9	0	0	0	0	510	507	0	0	
10	0	0	0	0	511	508	0	0	
11	0	0	0	0	511	509	0	0	
12	0	0	0	0	514	510	0	0	
13	0	0	0	0	511	509	0	0	
14	0	0	0	0	514	508	0	0	
15	0	0	0	0	513	509	0	0	
0	0	0	0	0	512	507	0	0	
1	0	0	0	0	512	509	0	0	
2	0	0	0	0	512	508	0	0	
3	0	0	0	0	513	508	0	0	
4	0	0	0	0	513	508	0	0	
5	0	0	0	0	510	508	0	0	
6	0	0	0	0	510	508	0	0	
7	0	0	0	0	510	506	0	0	
8	0	0	0	0	508	506	0	0	
9	0	0	0	0	510	508	0	0	
10	0	0	0	0	507	506	0	0	
11	0	0	0	0	508	508	0	0	
12	0	0	0	0	508	509	0	0	
13	0	0	0	0	509	508	0	0	
14	0	0	0	0	511	507	0	0	
15	0	0	0	0	511	507	0	0	
0	0	0	0	0	512	507	0	0	
1	0	0	0	0	511	509	0	0	
2	0	0	0	0	513	508	0	0	
3	0	0	0	0	513	510	0	0	
4	0	0	0	0	515	508	0	0	
5	0	0	0	0	512	510	0	0	
6	0	0	0	0	514	508	0	0	
7	0	0	0	0	512	511	0	0	
8	0	0	0	0	513	507	0	0	
9	0	0	0	0	513	508	0	0	
10	0	0	0	0	508	507	0	0	
11	0	0	0	0	509	511	0	0	
12	0	0	0	0	510	509	0	0	
13	0	0	0	0	509	507	0	0	
14	0	0	0	0	509	507	0	0	
15	0	0	0	0	509	505	0	0	
0	0	0	0	0	509	508	0	0	
1	0	0	0	0	508	508	0	0	
2	0	0	0	0	508	507	0	0	
3	0	0	0	0	511	507	0	0	
4	0	0	0	0	511	507	0	0	
5	0	0	0	0	514	510	0	0	
6	0	0	0	0	514	509	0	0	
7	0	0	0	0	513	510	0	0	
8	0	0	0	0	514	508	0	0	
9	0	0	0	0	512	507	0	0	
10	0	0	0	0	512	508	0	0	
11	0	0	0	0	514	509	0	0	
12	0	0	0	0	511	508	0	0	
13	0	0	0	0	512	508	0	0	
14	0	0	0	0	511	507	0	0	
15	0	0	0	0	508	509	0	0	
0	0	0	0	0	510	506	0	0	
1	0	0	0	0	510	508	0	0	
2	0	0	0	0	511	506	0	0	
3	0	0	0	0	507	510	0	0	
4	0	0	0	0	507	508	0	0	
5	0	0	0	0	509	507	0	0	
6	0	0	0	0	512	507	0	0	
7	0	0	0	0	510	508	0	0	
8	0	0	0	0	511	509	0	0	
9	0	0	0	0	510	508	0	0	
10	0	0	0	0	515	510	0	0	
11	0	0	0	0	514	508	0	0	
12	0	0	0	0	514	509	0	0	
13	0	0	0	0	513	508	0	0	
14	0	0	0	0	515	508	0	0	
15	0	0	0	0	513	508	0	0	
0	0	0	0	0	513	508	0	0	
1	0	0	0	0	510	507	0	0	
2	0	0	0	0	509	509	0	0	
3	0	0	0	0	510	507	0	0	
4	0	0	0	0	510	504	0	0	
5	0	0	0	0	509	509	0	0	
6	0	0	0	0	508	506	0	0	
7	0	0	0	0	508	507	0	0	
8	0	0	0	0	508	508	0	0	
9	0	0	0	0	509	507	0	0	
10	0	0	0	0	510	508	0	0	
11	0	0	0	0	511	508	0	0	
12	0	0	0	0	513	510	0	0	
13	0	0	0	0	513	508	0	0	
14	0	0	0	0	512	510	0	0	
15	0	0	0	0	513	506	0	0	
0	0	0	0	0	514	510	0	0	
1	0	0	0	0	513	510	0	0	
2	0	0	0	0	514	508	0	0	
3	0	0	0	0	512	511	0	0	
4	0	0	0	0	512	509	0	0	
5	0	0	0	0	510	508	0	0	
6	0	0	0	0	508	508	0	0	
7	0	0	0	0	510	508	0	0	
8	0	0	0	0	509	508	0	0	
9	0	0	0	0	510	508	0	0	
10	0	0	0	0	509	507	0	0	
11	0	0	0	0	510	507	0	0	
12	0	0	0	0	509	507	0	0	
13	0	0	0	0	511	508	0	0	
14	0	0	0	0	511	508	0	0	
15	0	0	0	0	511	507	0	0	
0	0	0	0	0	512	508	0	0	
1	0	0	0	0	513	508	0	0	
2	0	0	0	0	513	508	0	0	
3	0	0	0	0	511	510	0	0	
4	0	0	0	0	511	508	0	0	
5	0	0	0	0	514	507	0	0	
6	0	0	0	0	512	509	0	0	
7	0	0	0	0	515	506	0	0	
8	0	0	0	0	513	508	0	0	
9	0	0	0	0	511	508	0	0	
10	0	0	0	0	511	507	0	0	
11	0	0	0	0	509	510	0	0	
12	0	0	0	0	510	509	0	0	
13	0	0	0	0	509	507	0	0	
14	0	0	0	0	510	507	0	0	
15	0	0	0	0	511	507	0	0	
0	0	0	0	0	510	508	0	0	
1	0	0	0	0	507	508	0	0	
2	0	0	0	0	508	508	0	0	
3	0	0	0	0	510	508	0	0	
4	0	0	0	0	512	508	0	0	
5	0	0	0	0	512	508	0	0	
6	0	0	0	0	513	507	0	0	
7	0	0	0	0	515	508	0	0	
8	0	0	0	0	512	506	0	0	
9	0	0	0	0	514	508	0	0	
10	0	0	0	0	512	508	0	0	
11	0	0	0	0	512	510	0	0	
12	0	0	0	0	511	510	0	0	
13	0	0	0	0	512	507	0	0	
14	0	0	0	0	510	508	0	0	
15	0	0	0	0	510	507	0	0	
0	0	0	0	0	511	508	0	0	
1	0	0	0	0	508	507	0	0	
2	0	0	0	0	509	506	0	0	
3	0	0	0	0	508	507	0	0	
4	0	0	0	0	508	509	0	0	
5	0	0	0	0	508	508	0	0	
6	0	0	0	0	510	508	0	0	
7	0	0	0	0	511	510	0	0	
8	0	0	0	0	511	508	0	0	
9	0	0	0	0	513	507	0	0	
10	0	0	0	0	513	508	0	0	
11	0	0	0	0	513	508	0	0	
12	0	0	0	0	512	509	0	0	
13	0	0	0	0	512	508	0	0	
14	0	0	0	0	513	507	0	0	
15	0	0	0	0	515	509	0	0	
0	0	0	0	0	510	508	0	0	
1	0	0	0	0	510	508	0	0	
2	0	0	0	0	511	508	0	0	
3	0	0	0	0	512	510	0	0	
4	0	0	0	0	510	510	0	0	
5	0	0	0	0	508	507	0	0	
6	0	0	0	0	507	508	0	0	
7	0	0	0	0	507	507	0	0	
8	0	0	0	0	508	508	0	0	
9	0	0	0	0	509	509	0	0	
10	0	0	0	0	511	507	0	0	
11	0	0	0	0	510	507	0	0	
12	0	0	0	0	515	507	0	0	
13	0	0	0	0	519	510	0	0	
14	0	0	0	0	513	510	0	0	
15	0	0	0	0	511	508	0	0	
0	0	0	0	0	513	508	0	0	
1	0	0	0	0	515	508	0	0	
2	0	0	0	0	511	507	0	0	
3	0	0	0	0	510	508	0	0	
4	0	0	0	0	511	509	0	0	
5	0	0	0	0	512	510	0	0	
6	0	0	0	0	509	510	0	0	
7	0	0	0	0	503	506	0	0	
8	0	0	0	0	499	507	0	0	
9	0	0	0	0	502	507	0	0	
10	0	0	0	0	494	511	0	0	
11	0	0	0	0	488	508	0	0	
12	0	0	0	0	497	507	0	0	
13	0	0	0	0	504	513	0	0	
14	0	0	0	0	508	508	0	0	
15	0	0	0	0	514	510	0	0	
0	0	0	0	0	519	506	0	0	
1	0	0	0	0	524	504	0	0	
2	0	0	0	0	518	506	0	0	
3	0	0	0	0	506	500	0	0	
4	0	0	0	0	496	502	0	0	
5	0	0	0	0	491	511	0	0	
6	0	0	0	0	527	502	0	0	
7	0	0	0	0	551	499	0	0	
8	0	0	0	0	536	506	0	0	
9	0	0	0	0	514	515	0	0	
10	0	0	0	0	572	519	0	0	
11	0	0	0	0	546	509	0	0	
12	0	0	0	0	509	510	0	0	
13	0	0	0	0	506	509	0	0	
14	0	0	0	0	492	504	0	0	
15	0	0	0	0	484	510	0	0	
0	0	0	0	0	476	504	0	0	
1	0	0	0	0	463	502	0	0	
2	0	0	0	0	454	511	0	0	
3	0	0	0	0	479	524	0	0	
4	0	0	0	0	466	526	0	0	
5	0	0	0	0	440	514	0	0	
6	0	0	0	0	508	510	0	0	
7	0	0	0	0	550	499	0	0	
8	0	0	0	0	602	491	0	0	
9	0	0	0	0	631	488	0	0	
10	0	0	0	0	638	499	0	0	
11	0	0	0	0	581	508	0	0	
12	0	0	0	0	418	509	0	0	
13	0	0	0	0	410	507	0	0	
14	0	0	0	0	422	502	0	0	
15	0	0	0	0	443	507	0	0	
0	0	0	0	0	487	517	0	0	
1	0	0	0	0	536	518	0	0	
2	0	0	0	0	588	514	0	0	
3	0	0	0	0	632	515	0	0	
4	0	0	0	0	573	526	0	0	
5	0	0	0	0	537	530	11	0	
6	0	0	0	0	668	515	29	0	
7	0	0	0	0	626	500	41	0	
8	0	0	0	0	459	492	41	0	
9	0	0	0	0	380	501	44	0	
10	0	0	0	0	427	500	41	0	
11	0	0	0	0	312	479	49	0	
12	0	0	0	0	374	501	52	0	
13	0	0	0	0	472	511	49	0	
14	0	0	0	0	517	515	51	0	
15	0	0	0	0	559	498	49	0	
0	0	0	0	0	537	502	53	0	
1	0	0	0	0	438	512	55	0	
2	0	0	0	0	486	510	51	0	
3	0	0	0	0	796	515	46	0	
4	0	0	0	0	845	515	41	0	
5	0	0	0	0	586	515	39	0	
6	0	0	0	0	468	511	37	0	
7	0	0	0	0	560	518	36	0	
8	0	0	0	0	509	510	31	0	
9	0	0	0	0	370	513	23	0	
10	0	0	0	0	368	513	14	0	
11	0	0	0	0	400	507	0	0	
12	0	0	0	0	485	512	0	0	
13	0	0	0	0	470	520	0	0	
14	0	0	0	0	491	535	0	0	
15	0	0	0	0	536	536	0	0	
0	0	0	0	0	451	536	0	0	
1	0	0	0	0	441	494	0	0	
2	0	0	0	0	505	475	0	0	
3	0	0	0	0	523	455	0	0	
4	0	0	0	0	579	452	0	0	
5	0	0	0	0	504	494	0	0	
6	0	0	0	0	518	489	0	0	
7	0	0	0	0	573	503	0	0	
8	0	0	0	0	551	536	0	0	
9	0	0	0	0	615	554	0	0	
10	0	0	0	0	483	534	0	0	
11	0	0	0	0	428	498	0	0	
12	0	0	0	0	479	533	0	0	
13	0	0	0	0	556	537	0	0	
14	0	0	0	0	411	519	0	0	
15	0	0	0	0	391	485	0	0	
0	0	0	0	0	574	464	0	0	
1	0	0	0	0	567	470	0	0	
2	0	0	0	0	435	484	0	0	
3	0	0	0	0	461	492	0	0	
4	0	0	0	0	611	496	0	0	
5	0	0	0	0	528	508	0	0	
6	0	0	0	0	498	528	0	0	
7	0	0	0	0	711	535	0	0	
8	0	0	0	0	536	532	0	0	
9	0	0	0	0	388	520	0	0	
10	0	0	0	0	375	499	0	0	
11	0	0	0	0	500	486	0	0	
12	0	0	0	0	623	501	0	0	
13	0	0	0	0	571	517	0	0	
14	0	0	0	0	515	505	0	0	
15	0	0	0	0	477	507	0	0	
0	0	0	0	0	495	516	0	0	
1	0	0	0	0	484	539	0	0	
2	0	0	0	0	524	496	0	0	
3	0	0	0	0	508	463	0	0	
4	0	0	0	0	448	504	0	0	
5	0	0	0	0	334	528	0	0	
6	0	0	0	0	358	533	0	0	
7	0	0	0	0	494	503	0	0	
8	0	0	0	0	611	494	0	0	
9	0	0	0	0	672	500	0	0	
10	0	0	0	0	750	512	0	0	
11	0	0	0	0	712	519	0	0	
12	0	0	0	0	629	509	0	0	
13	0	0	0	0	552	507	0	0	
14	0	0	0	0	499	513	0	0	
15	0	0	0	0	392	513	0	0	
0	0	0	0	0	327	512	0	0	
1	0	0	0	0	438	519	0	0	
2	0	0	0	0	507	511	0	0	
3	0	0	0	0	436	510	0	0	
4	0	0	0	0	479	497	0	0	
5	0	0	0	0	542	491	0	0	
6	0	0	0	0	486	499	0	0	
7	0	0	0	0	459	511	0	0	
8	0	0	0	0	594	516	0	0	
9	0	0	0	0	585	528	0	0	
10	0	0	0	0	597	535	0	0	
11	0	0	0	0	492	519	0	0	
12	0	0	0	0	409	499	0	0	
13	0	0	0	0	565	513	0	0	
14	0	0	0	0	547	524	0	0	
15	0	0	0	0	412	527	0	0	
0	0	0	0	0	430	509	0	0	
1	0	0	0	0	368	497	0	0	
2	0	0	0	0	408	505	0	0	
3	0	0	0	0	586	503	0	0	
4	0	0	0	0	759	483	0	0	
5	0	0	0	0	707	463	0	0	
6	0	0	0	0	507	476	0	0	
7	0	0	0	0	403	505	0	0	
8	0	0	0	0	407	528	0	0	
9	0	0	0	0	456	534	0	0	
10	0	0	0	0	444	530	0	0	
11	0	0	0	0	420	508	0	0	
12	0	0	0	0	470	508	0	0	
13	0	0	0	0	584	518	0	0	
14	0	0	0	0	685	513	0	0	
15	0	0	0	0	665	510	0	0	
0	0	0	0	0	696	498	0	0	
1	0	0	0	0	592	536	0	0	
2	0	0	0	0	401	479	0	0	
3	0	0	0	0	397	423	0	0	
4	0	0	0	0	542	487	0	0	
5	0	0	0	0	471	533	0	0	
6	0	0	0	0	364	540	0	0	
7	0	0	0	0	414	518	0	0	
8	0	0	0	0	346	525	0	0	
9	0	0	0	0	409	488	0	0	
10	0	0	0	0	628	474	0	0	
11	0	0	0	0	858	495	0	0	
12	0	0	0	0	771	528	0	0	
13	0	0	0	0	524	547	0	0	
14	0	0	0	0	444	536	0	0	
15	0	0	0	0	375	515	0	0	
0	0	0	0	0	401	505	0	0	
1	0	0	0	0	343	496	0	0	
2	0	0	0	0	443	492	0	0	
3	0	0	0	0	414	507	0	0	
4	0	0	0	0	427	530	0	0	
5	0	0	0	0	636	521	0	0	
6	0	0	0	0	809	528	0	0	
7	0	0	0	0	657	508	0	0	
8	0	0	0	0	571	475	0	0	
9	0	0	0	0	502	496	0	0	
10	0	0	0	0	429	525	0	0	
11	0	0	0	0	347	521	0	0	
12	0	0	0	0	413	507	0	0	
13	0	0	0	0	483	512	0	0	
14	0	0	0	0	474	535	0	0	
15	0	0	0	0	459	525	0	0	
0	0	0	0	0	448	512	0	0	
1	0	0	0	0	415	433	0	0	
2	0	0	0	0	437	414	0	0	
3	0	0	0	0	704	497	0	0	
4	0	0	0	0	838	560	0	0	
5	0	0	0	0	740	563	0	0	
6	0	0	0	0	521	543	0	0	
7	0	0	0	0	491	559	0	0	
8	0	0	0	0	550	439	0	0	
9	0	0	0	0	565	372	0	0	
10	0	0	0	0	485	471	0	0	
11	0	0	0	0	420	529	0	0	
12	0	0	0	0	458	560	0	0	
13	0	0	0	0	347	559	0	0	
14	0	0	0	0	270	540	0	0	
15	0	0	0	0	292	514	0	0	
0	0	0	0	0	513	491	0	0	
1	0	0	0	0	607	480	0	0	
2	0	0	0	0	502	491	0	0	
3	0	0	0	0	620	516	0	0	
4	0	0	0	0	662	540	0	0	
5	0	0	0	0	875	547	0	0	
6	0	0	0	0	693	514	0	0	
7	0	0	0	0	492	510	0	0	
8	0	0	0	0	374	498	0	0	
9	0	0	0	0	330	471	0	0	
10	0	0	0	0	412	439	0	0	
11	0	0	0	0	487	504	0	0	
12	0	0	0	0	529	531	0	0	
13	0	0	0	0	459	511	0	0	
14	0	0	0	0	494	533	0	0	
15	0	0	0	0	445	523	0	0	
0	0	0	0	0	447	510	0	0	
1	0	0	0	0	578	505	0	0	
2	0	0	0	0	758	504	0	0	
3	0	0	0	0	578	516	0	0	
4	0	0	0	0	416	502	0	0	
5	0	0	0	0	473	507	0	0	
6	0	0	0	0	539	527	0	0	
7	0	0	0	0	508	530	0	0	
8	0	0	0	0	514	511	0	0	
9	0	0	0	0	529	468	0	0	
10	0	0	0	0	499	503	0	0	
11	0	0	0	0	326	513	0	0	
12	0	0	0	0	248	505	0	0	
13	0	0	0	0	391	521	0	0	
14	0	0	0	0	476	544	0	0	
15	0	0	0	0	719	572	0	0	
0	0	0	0	0	655	563	0	0	
1	0	0	0	0	546	513	0	0	
2	0	0	0	0	504	459	0	0	
3	0	0	0	0	555	412	0	0	
4	0	0	0	0	612	411	0	0	
5	0	0	0	0	534	481	0	0	
6	0	0	0	0	456	515	0	0	
7	0	0	0	0	574	534	0	0	
8	0	0	0	0	601	539	0	0	
9	0	0	0	0	529	518	0	0	
10	0	0	0	0	475	507	0	0	
11	0	0	0	0	526	539	0	0	
12	0	0	0	0	584	504	0	0	
13	0	0	0	0	561	484	0	0	
14	0	0	0	0	601	518	0	0	
15	0	0	0	0	425	535	0	0	
0	0	0	0	0	315	543	0	0	
1	0	0	0	0	227	504	0	0	
2	0	0	0	0	491	483	0	0	
3	0	0	0	0	668	491	0	0	
4	0	0	0	0	576	519	0	0	
5	0	0	0	0	451	518	0	0	
6	0	0	0	0	497	512	0	0	
7	0	0	0	0	521	489	0	0	
8	0	0	0	0	630	500	0	0	
9	0	0	0	0	623	515	0	0	
10	0	0	0	0	519	517	0	0	
11	0	0	0	0	419	540	0	0	
12	0	0	0	0	363	539	0	0	
13	0	0	0	0	384	533	0	0	
14	0	0	0	0	499	512	0	0	
15	0	0	0	0	716	519	0	0	
0	0	0	0	0	592	450	0	0	
1	0	0	0	0	473	430	0	0	
2	0	0	0	0	395	463	0	0	
3	0	0	0	0	395	475	0	0	
4	0	0	0	0	539	507	0	0	
5	0	0	0	0	709	518	0	0	
6	0	0	0	0	670	528	0	0	
7	0	0	0	0	546	527	0	0	
8	0	0	0	0	417	564	0	0	
9	0	0	0	0	467	560	0	0	
10	0	0	0	0	450	532	0	0	
11	0	0	0	0	470	514	0	0	
12	0	0	0	0	519	496	0	0	
13	0	0	0	0	543	471	0	0	
14	0	0	0	0	446	446	0	0	
15	0	0	0	0	477	496	0	5	
0	0	0	0	0	571	534	0	8	
1	0	0	0	0	535	530	0	7	
2	0	0	0	0	518	535	0	7	
3	0	0	0	0	565	527	0	8	
4	0	0	0	0	515	503	0	9	
5	0	0	0	0	478	470	0	9	
6	0	0	0	0	541	457	0	9	
7	0	0	0	0	487	491	0	9	
8	0	0	0	0	514	502	0	9	
9	0	0	0	0	531	521	0	9	
10	0	0	0	0	563	535	0	9	
11	0	0	0	0	519	562	0	9	
12	0	0	0	0	488	560	0	9	
13	0	0	0	0	343	525	0	9	
14	0	0	0	0	329	499	0	12	
15	0	0	0	0	537	473	0	12	
0	0	0	0	0	524	443	0	16	
1	0	0	0	0	617	485	0	22	
2	0	0	0	0	588	499	0	24	
3	0	0	0	0	627	506	0	22	
4	0	0	0	0	675	527	0	14	
5	0	0	0	0	553	519	0	18	
6	0	0	0	0	296	510	0	21	
7	0	0	0	0	268	490	0	18	
8	0	0	0	0	385	482	0	17	
9	0	0	0	0	572	516	0	17	
10	0	0	0	0	649	522	0	17	
11	0	0	0	0	406	523	0	18	
12	0	0	0	0	564	542	0	26	
13	0	0	0	0	643	548	0	28	
14	0	0	0	0	623	521	0	30	
15	0	0	0	0	543	509	0	31	
0	0	0	0	0	512	497	0	34	
1	0	0	0	0	513	471	0	34	
2	0	0	0	0	448	478	0	32	
3	0	0	0	0	440	494	0	28	
4	0	0	0	0	367	493	0	27	
5	0	0	0	0	360	493	0	25	
6	0	0	0	0	444	512	0	22	
7	0	0	0	0	918	522	0	22	
8	0	0	0	0	814	513	0	22	
9	0	0	0	0	593	522	0	22	
10	0	0	0	0	413	520	0	22	
11	0	0	0	0	360	529	0	22	
12	0	0	0	0	364	537	0	22	
13	0	0	0	0	415	526	0	22	
14	0	0	0	0	450	501	0	22	
15	0	0	0	0	479	487	0	21	
0	0	0	0	0	527	478	0	21	
1	0	0	0	0	591	466	0	21	
2	0	0	0	0	625	493	0	21	
3	0	0	0	0	468	520	0	20	
4	0	0	0	0	398	530	0	20	
5	0	0	0	0	459	532	0	18	
6	0	0	0	0	495	539	0	17	
7	0	0	0	0	543	527	0	15	
8	0	0	0	0	587	516	0	14	
9	0	0	0	0	509	486	0	13	
10	0	0	0	0	451	463	0	12	
11	0	0	0	0	483	484	0	11	
12	0	0	0	0	583	508	0	11	
13	0	0	0	0	713	533	0	10	
14	0	0	0	0	588	536	0	10	
15	0	0	0	0	488	522	0	9	
0	0	0	0	0	458	510	0	9	
1	0	0	0	0	543	501	0	9	
2	0	0	0	0	422	493	0	9	
3	0	0	0	0	384	481	0	9	
4	0	0	0	0	469	491	0	9	
5	0	0	0	0	462	513	0	9	
6	0	0	0	0	547	515	0	8	
7	0	0	0	0	579	500	0	8	
8	0	0	0	0	558	514	0	8	
9	0	0	0	0	656	528	0	9	
10	0	0	0	0	583	531	0	8	
11	0	0	0	0	475	504	0	9	
12	0	0	0	0	346	513	0	8	
13	0	0	0	0	372	508	0	8	
14	0	0	0	0	486	479	0	8	
15	0	0	0	0	523	496	0	8	
0	0	0	0	0	530	502	0	8	
1	0	0	0	0	530	496	0	8	
2	0	0	0	0	658	526	0	8	
3	0	0	0	0	629	543	0	8	
4	0	0	0	0	450	542	0	8	
5	0	0	0	0	443	547	0	8	
6	0	0	0	0	473	499	0	7	
7	0	0	0	0	471	488	0	7	
8	0	0	0	0	496	512	0	7	
9	0	0	0	0	583	483	0	7	
10	0	0	0	0	569	463	0	7	
11	0	0	0	0	448	476	0	7	
12	0	0	0	0	454	513	0	7	
13	0	0	0	0	547	541	0	7	
14	0	0	0	0	570	516	0	7	
15	0	0	0	0	599	520	0	7	
0	0	0	0	0	467	505	0	7	
1	0	0	0	0	362	423	0	7	
2	0	0	0	0	453	467	0	7	
3	0	0	0	0	533	528	0	7	
4	0	0	0	0	543	550	0	7	
5	0	0	0	0	531	540	0	7	
6	0	0	0	0	429	534	0	7	
7	0	0	0	0	487	510	0	7	
8	0	0	0	0	641	489	0	7	
9	0	0	0	0	687	509	0	7	
10	0	0	0	0	586	505	0	7	
11	0	0	0	0	405	481	0	7	
12	0	0	0	0	435	507	0	7	
13	0	0	0	0	423	531	0	7	
14	0	0	0	0	438	532	0	7	
15	0	0	0	0	533	512	0	7	
0	0	0	0	0	536	507	0	7	
1	0	0	0	0	418	490	0	7	
2	0	0	0	0	451	494	0	7	
3	0	0	0	0	579	504	0	7	
4	0	0	0	0	701	516	0	7	
5	0	0	0	0	608	524	0	7	
6	0	0	0	0	530	513	0	7	
7	0	0	0	0	510	491	0	7	
8	0	0	0	0	431	485	0	7	
9	0	0	0	0	386	516	0	7	
10	0	0	0	0	271	511	0	7	
11	0	0	0	0	413	504	0	7	
12	0	0	0	0	476	509	0	7	
13	0	0	0	0	780	528	0	7	
14	0	0	0	0	912	527	0	7	
15	0	0	0	0	636	512	0	7	
0	0	0	0	0	480	497	0	7	
1	0	0	0	0	449	498	0	7	
2	0	0	0	0	393	507	0	7	
3	0	0	0	0	483	535	0	7	
4	0	0	0	0	454	515	0	7	
5	0	0	0	0	513	505	0	7	
6	0	0	0	0	610	503	0	7	
7	0	0	0	0	502	504	0	6	
8	0	0	0	0	344	494	0	6	
9	0	0	0	0	361	502	0	6	
10	0	0	0	0	522	507	0	6	
11	0	0	0	0	700	511	0	7	
12	0	0	0	0	567	505	0	7	
13	0	0	0	0	494	510	0	6	
14	0	0	0	0	493	521	0	6	
15	0	0	0	0	508	517	0	6	
0	0	0	0	0	414	514	0	6	
1	0	0	0	0	322	509	0	6	
2	0	0	0	0	416	503	0	6	
3	0	0	0	0	586	520	0	6	
4	0	0	0	0	676	482	0	6	
5	0	0	0	0	547	465	0	5	
6	0	0	0	0	511	507	0	5	
7	0	0	0	0	521	518	0	5	
8	0	0	0	0	443	528	0	5	
9	0	0	0	0	612	517	0	5	
10	0	0	0	0	629	504	0	5	
11	0	0	0	0	710	520	0	5	
12	0	0	0	0	528	524	0	5	
13	0	0	0	0	419	508	0	5	
14	0	0	0	0	357	500	0	5	
15	0	0	0	0	403	508	0	5	
0	0	0	0	0	475	516	0	5	
1	0	0	0	0	515	506	0	5	
2	0	0	0	0	546	478	0	5	
3	0	0	0	0	594	487	0	6	
4	0	0	0	0	514	512	0	5	
5	0	0	0	0	441	532	0	5	
6	0	0	0	0	476	526	0	5	
7	0	0	0	0	449	510	0	5	
8	0	0	0	0	317	519	0	5	
9	0	0	0	0	290	507	0	6	
10	0	0	0	0	532	492	0	6	
11	0	0	0	0	936	505	0	6	
12	0	0	0	0	806	525	0	6	
13	0	0	0	0	517	499	0	6	
14	0	0	0	0	495	486	0	6	
15	0	0	0	0	572	504	0	6	
0	0	0	0	0	505	478	0	6	
1	0	0	0	0	504	478	0	6	
2	0	0	0	0	423	520	0	6	
3	0	0	0	0	429	559	0	7	
4	0	0	0	0	476	567	0	6	
5	0	0	0	0	500	553	0	6	
6	0	0	0	0	466	536	0	6	
7	0	0	0	0	427	496	0	6	
8	0	0	0	0	421	429	0	6	
9	0	0	0	0	502	427	0	6	
10	0	0	0	0	590	446	0	6	
11	0	0	0	0	565	497	0	6	
12	0	0	0	0	543	520	0	6	
13	0	0	0	0	488	518	0	7	
14	0	0	0	0	547	536	0	6	
15	0	0	0	0	592	544	0	6	
0	0	0	0	0	511	536	0	6	
1	0	0	0	0	388	518	0	7	
2	0	0	0	0	423	513	0	7	
3	0	0	0	0	541	505	0	6	
4	0	0	0	0	481	502	0	6	
5	0	0	0	0	513	499	0	6	
6	0	0	0	0	612	511	0	6	
7	0	0	0	0	601	519	0	5	
8	0	0	0	0	610	480	0	5	
9	0	0	0	0	444	487	0	5	
10	0	0	0	0	578	519	0	6	
11	0	0	0	0	581	509	0	6	
12	0	0	0	0	463	512	0	6	
13	0	0	0	0	385	534	0	5	
14	0	0	0	0	432	535	0	5	
15	0	0	0	0	504	525	0	5	
0	0	0	0	0	549	509	0	5	
1	0	0	0	0	626	465	0	5	
2	0	0	0	0	511	474	0	5	
3	0	0	0	0	454	491	0	5	
4	0	0	0	0	462	504	0	5	
5	0	0	0	0	446	529	0	5	
6	0	0	0	0	474	527	0	6	
7	0	0	0	0	550	533	0	5	
8	0	0	0	0	584	535	0	6	
9	0	0	0	0	539	524	0	5	
10	0	0	0	0	529	514	0	6	
11	0	0	0	0	494	466	0	5	
12	0	0	0	0	466	463	0	5	
13	0	0	0	0	461	496	0	5	
14	0	0	0	0	451	506	0	5	
15	0	0	0	0	460	496	0	4	
0	0	0	0	0	515	500	0	5	
1	0	0	0	0	594	518	0	5	
2	0	0	0	0	555	513	0	5	
3	0	0	0	0	454	516	0	4	
4	0	0	0	0	591	523	0	4	
5	0	0	0	0	570	521	0	4	
6	0	0	0	0	522	516	0	3	
7	0	0	0	0	515	523	0	3	
8	0	0	0	0	464	519	0	3	
9	0	0	0	0	485	512	0	3	
10	0	0	0	0	422	508	0	3	
11	0	0	0	0	378	507	0	3	
12	0	0	0	0	385	489	0	2	
13	0	0	0	0	563	488	0	2	
14	0	0	0	0	924	496	0	2	
15	0	0	0	0	781	497	0	1	
0	0	0	0	0	551	514	0	2	
1	0	0	0	0	359	520	0	2	
2	0	0	0	0	317	516	0	2	
3	0	0	0	0	432	499	0	2	
4	0	0	0	0	436	502	0	2	
5	0	0	0	0	443	516	0	2	
6	0	0	0	0	420	514	0	2	
7	0	0	0	0	533	498	0	2	
8	0	0	0	0	614	513	0	2	
9	0	0	0	0	658	518	0	2	
10	0	0	0	0	558	525	0	2	
11	0	0	0	0	377	518	0	3	
12	0	0	0	0	441	509	0	2	
13	0	0	0	0	558	492	0	2	
14	0	0	0	0	575	484	0	2	
15	0	0	0	0	526	492	0	1	
0	0	0	0	0	531	506	0	1	
1	0	0	0	0	537	514	0	1	
2	0	0	0	0	555	532	0	1	
3	0	0	0	0	471	516	0	1	
4	0	0	0	0	415	496	0	1	
5	0	0	0	0	490	507	0	1	
6	0	0	0	0	512	526	0	1	
7	0	0	0	0	630	546	0	0	
8	0	0	0	0	583	537	0	1	
9	0	0	0	0	311	519	0	1	
10	0	0	0	0	368	512	0	1	
11	0	0	0	0	537	472	0	1	
12	0	0	0	0	559	440	0	1	
13	0	0	0	0	550	466	0	1	
14	0	0	0	0	565	491	0	1	
15	0	0	0	0	529	509	0	1	
0	0	0	0	0	485	524	0	1	
1	0	0	0	0	523	508	0	0	
2	0	0	0	0	562	486	0	0	
3	0	0	0	0	525	497	0	0	
4	0	0	0	0	582	531	0	0	
5	0	0	0	0	478	541	0	0	
6	0	0	0	0	499	545	0	0	
7	0	0	0	0	561	546	0	0	
8	0	0	0	0	483	521	0	0	
9	0	0	0	0	461	465	0	0	
10	0	0	0	0	491	489	0	0	
11	0	0	0	0	496	510	0	0	
12	0	0	0	0	494	500	0	0	
13	0	0	0	0	540	487	0	0	
14	0	0	0	0	516	471	0	0	
15	0	0	0	0	509	502	0	0	
0	0	0	0	0	506	527	0	0	
1	0	0	0	0	528	526	0	0	
2	0	0	0	0	550	524	0	0	
3	0	0	0	0	540	513	0	0	
4	0	0	0	0	484	510	0	0	
5	0	0	0	0	438	513	0	0	
6	0	0	0	0	503	502	0	0	
7	0	0	0	0	523	502	0	0	
8	0	0	0	0	446	508	0	0	
9	0	0	0	0	462	524	0	0	
10	0	0	0	0	527	514	0	0	
11	0	0	0	0	657	513	0	0	
12	0	0	0	0	499	499	0	0	
13	0	0	0	0	412	503	0	0	
14	0	0	0	0	372	507	0	0	
15	0	0	0	0	617	519	0	0	
0	0	0	0	0	836	518	0	0	
1	0	0	0	0	582	512	0	0	
2	0	0	0	0	432	510	0	0	
3	0	0	0	0	450	511	0	0	
4	0	0	0	0	535	515	0	0	
5	0	0	0	0	480	507	0	0	
6	0	0	0	0	458	508	0	0	
7	0	0	0	0	468	486	0	0	
8	0	0	0	0	557	483	0	0	
9	0	0	0	0	483	491	0	0	
10	0	0	0	0	459	508	0	0	
11	0	0	0	0	410	515	0	0	
12	0	0	0	0	563	519	0	0	
13	0	0	0	0	591	519	0	0	
14	0	0	0	0	462	511	0	0	
15	0	0	0	0	528	500	0	0	
0	0	0	0	0	585	504	0	0	
1	0	0	0	0	569	509	0	0	
2	0	0	0	0	433	510	0	0	
3	0	0	0	0	310	516	0	0	
4	0	0	0	0	382	499	0	0	
5	0	0	0	0	645	507	0	0	
6	0	0	0	0	669	518	0	0	
7	0	0	0	0	505	531	0	0	
8	0	0	0	0	354	525	0	0	
9	0	0	0	0	467	510	0	0	
10	0	0	0	0	688	510	0	0	
11	0	0	0	0	580	497	0	0	
12	0	0	0	0	573	486	0	0	
13	0	0	0	0	563	489	0	0	
14	0	0	0	0	544	499	0	0	
15	0	0	0	0	470	508	0	0	
0	0	0	0	0	480	514	0	0	
1	0	0	0	0	466	503	0	0	
2	0	0	0	0	453	496	0	0	
3	0	0	0	0	359	505	0	0	
4	0	0	0	0	494	505	0	0	
5	0	0	0	0	737	507	0	0	
6	0	0	0	0	789	510	0	0	
7	0	0	0	0	473	526	0	0	
8	0	0	0	0	332	531	0	0	
9	0	0	0	0	388	518	0	0	
10	0	0	0	0	427	511	0	0	
11	0	0	0	0	541	516	0	0	
12	0	0	0	0	518	511	0	0	
13	0	0	0	0	505	499	0	0	
14	0	0	0	0	520	495	0	0	
15	0	0	0	0	541	506	0	0	
0	0	0	0	0	542	524	0	0	
1	0	0	0	0	516	501	0	0	
2	0	0	0	0	501	508	0	0	
3	0	0	0	0	507	502	0	0	
4	0	0	0	0	524	511	0	0	
5	0	0	0	0	463	497	0	0	
6	0	0	0	0	411	506	0	0	
7	0	0	0	0	422	517	0	0	
8	0	0	0	0	504	514	0	0	
9	0	0	0	0	575	513	0	0	
10	0	0	0	0	676	509	0	0	
11	0	0	0	0	612	461	0	0	
12	0	0	0	0	417	477	0	0	
13	0	0	0	0	355	502	0	0	
14	0	0	0	0	537	524	0	0	
15	0	0	0	0	595	520	0	0	
0	0	0	0	0	601	505	0	0	
1	0	0	0	0	531	504	0	0	
2	0	0	0	0	490	521	0	0	
3	0	0	0	0	483	529	0	0	
4	0	0	0	0	498	532	0	0	
5	0	0	0	0	508	526	0	0	
6	0	0	0	0	526	510	0	0	
7	0	0	0	0	550	495	0	0	
8	0	0	0	0	511	510	0	0	
9	0	0	0	0	445	489	0	0	
10	0	0	0	0	515	462	0	0	
11	0	0	0	0	511	500	0	0	
12	0	0	0	0	502	510	0	0	
13	0	0	0	0	526	522	0	0	
14	0	0	0	0	534	524	0	0	
15	0	0	0	0	471	513	0	0	
0	0	0	0	0	467	515	0	0	
1	0	0	0	0	459	504	0	0	
2	0	0	0	0	499	513	0	0	
3	0	0	0	0	630	506	0	0	
4	0	0	0	0	601	510	0	0	
5	0	0	0	0	511	513	0	0	
6	0	0	0	0	434	512	0	0	
7	0	0	0	0	369	503	0	0	
8	0	0	0	0	356	503	0	0	
9	0	0	0	0	564	509	0	0	
10	0	0	0	0	622	514	0	0	
11	0	0	0	0	686	519	0	0	
12	0	0	0	0	592	515	0	0	
13	0	0	0	0	512	505	0	0	
14	0	0	0	0	562	492	0	0	
15	0	0	0	0	594	492	0	0	
0	0	0	0	0	518	501	0	0	
1	0	0	0	0	431	505	0	0	
2	0	0	0	0	415	510	0	0	
3	0	0	0	0	457	513	0	0	
4	0	0	0	0	519	518	0	0	
5	0	0	0	0	499	508	0	0	
6	0	0	0	0	503	507	0	0	
7	0	0	0	0	488	512	0	0	
8	0	0	0	0	445	507	0	0	
9	0	0	0	0	465	509	0	0	
10	0	0	0	0	528	506	0	0	
11	0	0	0	0	530	507	0	0	
12	0	0	0	0	545	515	0	0	
13	0	0	0	0	518	514	0	0	
14	0	0	0	0	502	519	0	0	
15	0	0	0	0	577	512	0	0	
0	0	0	0	0	598	507	0	0	
1	0	0	0	0	422	507	0	0	
2	0	0	0	0	385	492	0	0	
3	0	0	0	0	443	491	0	0	
4	0	0	0	0	492	502	0	0	
5	0	0	0	0	481	508	0	0	
6	0	0	0	0	496	513	0	0	
7	0	0	0	0	500	504	0	0	
8	0	0	0	0	647	503	0	0	
9	0	0	0	0	652	513	0	0	
10	0	0	0	0	590	519	0	0	
11	0	0	0	0	497	515	0	0	
12	0	0	0	0	522	514	0	0	
13	0	0	0	0	498	519	0	0	
14	0	0	0	0	503	503	0	0	
15	0	0	0	0	479	488	0	0	
0	0	0	0	0	462	483	0	0	
1	0	0	0	0	532	510	0	0	
2	0	0	0	0	550	526	0	0	
3	0	0	0	0	391	520	0	0	
4	0	0	0	0	430	521	0	0	
5	0	0	0	0	656	521	0	0	
6	0	0	0	0	587	511	0	0	
7	0	0	0	0	480	505	0	0	
8	0	0	0	0	471	501	0	0	
9	0	0	0	0	486	498	0	0	
10	0	0	0	0	515	495	0	0	
11	0	0	0	0	539	490	0	0	
12	0	0	0	0	474	495	0	0	
13	0	0	0	0	551	505	0	0	
14	0	0	0	0	543	516	0	0	
15	0	0	0	0	537	526	0	0	
0	0	0	0	0	502	522	0	0	
1	0	0	0	0	394	514	0	0	
2	0	0	0	0	324	505	0	0	
3	0	0	0	0	373	493	0	0	
4	0	0	0	0	527	496	0	0	
5	0	0	0	0	745	496	0	0	
6	0	0	0	0	704	512	0	0	
7	0	0	0	0	526	524	0	0	
8	0	0	0	0	461	526	0	0	
9	0	0	0	0	506	525	0	0	
10	0	0	0	0	532	529	0	0	
11	0	0	0	0	551	509	0	0	
12	0	0	0	0	546	496	0	0	
13	0	0	0	0	507	486	0	0	
14	0	0	0	0	472	498	0	0	
15	0	0	0	0	489	500	0	0	
0	0	0	0	0	490	503	0	0	
1	0	0	0	0	456	507	0	0	
2	0	0	0	0	477	496	0	0	
3	0	0	0	0	477	493	0	0	
4	0	0	0	0	540	513	0	0	
5	0	0	0	0	531	519	0	0	
6	0	0	0	0	489	517	0	0	
7	0	0	0	0	444	513	0	0	
8	0	0	0	0	531	520	0	0	
9	0	0	0	0	554	513	0	0	
10	0	0	0	0	562	508	0	0	
11	0	0	0	0	566	506	0	0	
12	0	0	0	0	520	506	0	0	
13	0	0	0	0	483	497	0	0	
14	0	0	0	0	477	501	0	0	
15	0	0	0	0	479	526	0	0	
0	0	0	0	0	490	516	0	0	
1	0	0	0	0	527	497	0	0	
2	0	0	0	0	540	510	0	0	
3	0	0	0	0	511	516	0	0	
4	0	0	0	0	470	506	0	0	
5	0	0	0	0	478	502	0	0	
6	0	0	0	0	457	499	0	0	
7	0	0	0	0	501	503	0	0	
8	0	0	0	0	528	505	0	0	
9	0	0	0	0	559	515	0	0	
10	0	0	0	0	575	516	0	0	
11	0	0	0	0	637	515	0	0	
12	0	0	0	0	541	514	0	0	
13	0	0	0	0	481	508	0	0	
14	0	0	0	0	476	503	0	0	
15	0	0	0	0	514	498	0	0	
0	0	0	0	0	513	501	0	0	
1	0	0	0	0	488	508	0	0	
2	0	0	0	0	460	499	0	0	
3	0	0	0	0	519	510	0	0	
4	0	0	0	0	521	517	0	0	
5	0	0	0	0	517	512	0	0	
6	0	0	0	0	524	504	0	0	
7	0	0	0	0	465	513	0	0	
8	0	0	0	0	426	505	0	0	
9	0	0	0	0	513	508	0	0	
10	0	0	0	0	640	505	0	0	
11	0	0	0	0	453	509	0	0	
12	0	0	0	0	481	511	0	0	
13	0	0	0	0	509	511	0	0	
14	0	0	0	0	602	511	0	0	
15	0	0	0	0	567	518	0	0	
0	0	0	0	0	509	512	0	0	
1	0	0	0	0	472	512	0	0	
2	0	0	0	0	470	499	0	0	
3	0	0	0	0	408	500	0	0	
4	0	0	0	0	480	502	0	0	
5	0	0	0	0	525	507	0	0	
6	0	0	0	0	635	510	0	0	
7	0	0	0	0	571	508	0	0	
8	0	0	0	0	416	510	0	0	
9	0	0	0	0	412	504	0	0	
10	0	0	0	0	532	504	0	0	
11	0	0	0	0	558	502	0	0	
12	0	0	0	0	582	507	0	0	
13	0	0	0	0	641	514	0	0	
14	0	0	0	0	575	513	0	0	
15	0	0	0	0	520	519	0	0	
0	0	0	0	0	388	515	0	0	
1	0	0	0	0	363	502	0	0	
2	0	0	0	0	408	514	0	0	
3	0	0	0	0	504	512	0	0	
4	0	0	0	0	537	502	0	0	
5	0	0	0	0	571	506	0	0	
6	0	0	0	0	540	508	0	0	
7	0	0	0	0	528	490	0	0	
8	0	0	0	0	534	504	0	0	
9	0	0	0	0	496	509	0	0	
10	0	0	0	0	448	496	0	0	
11	0	0	0	0	419	507	0	0	
12	0	0	0	0	393	515	0	0	
13	0	0	0	0	483	511	0	0	
14	0	0	0	0	680	511	0	0	
15	0	0	0	0	760	508	0	0	
0	0	0	0	0	607	514	0	0	
1	0	0	0	0	478	515	0	0	
2	0	0	0	0	472	491	0	0	
3	0	0	0	0	490	492	0	0	
4	0	0	0	0	492	507	0	0	
5	0	0	0	0	475	515	0	0	
6	0	0	0	0	445	518	0	0	
7	0	0	0	0	457	512	0	0	
8	0	0	0	0	541	521	0	0	
9	0	0	0	0	601	516	0	0	
10	0	0	0	0	541	512	0	0	
11	0	0	0	0	427	511	0	0	
12	0	0	0	0	376	491	0	0	
13	0	0	0	0	441	493	0	0	
14	0	0	0	0	531	493	0	0	
15	0	0	0	0	648	511	0	0	
0	0	0	0	0	575	523	0	0	
1	0	0	0	0	525	508	0	0	
2	0	0	0	0	464	501	0	0	
3	0	0	0	0	436	497	0	0	
4	0	0	0	0	478	507	0	0	
5	0	0	0	0	572	519	0	0	
6	0	0	0	0	591	532	0	0	
7	0	0	0	0	485	516	0	0	
8	0	0	0	0	478	507	0	0	
9	0	0	0	0	568	505	0	0	
10	0	0	0	0	568	506	0	0	
11	0	0	0	0	472	502	0	0	
12	0	0	0	0	388	500	0	0	
13	0	0	0	0	364	502	0	0	
14	0	0	0	0	502	508	0	0	
15	0	0	0	0	561	522	0	0	
0	0	0	0	0	549	510	0	0	
1	0	0	0	0	574	509	0	0	
2	0	0	0	0	622	527	0	0	
3	0	0	0	0	575	520	0	0	
4	0	0	0	0	542	509	0	0	
5	0	0	0	0	512	494	0	0	
6	0	0	0	0	491	498	0	0	
7	0	0	0	0	484	492	0	0	
8	0	0	0	0	503	484	0	0	
9	0	0	0	0	507	497	0	0	
10	0	0	0	0	519	509	0	0	
11	0	0	0	0	482	509	0	0	
12	0	0	0	0	465	515	0	0	
13	0	0	0	0	463	515	0	0	
14	0	0	0	0	518	521	0	0	
15	0	0	0	0	535	518	0	0	
0	0	0	0	0	493	508	0	0	
1	0	0	0	0	472	512	0	0	
2	0	0	0	0	488	510	0	0	
3	0	0	0	0	516	502	0	0	
4	0	0	0	0	496	505	0	0	
5	0	0	0	0	564	511	0	0	
6	0	0	0	0	557	506	0	0	
7	0	0	0	0	446	507	0	0	
8	0	0	0	0	447	514	0	0	
9	0	0	0	0	535	515	0	0	
10	0	0	0	0	560	509	0	0	
11	0	0	0	0	519	507	0	0	
12	0	0	0	0	524	502	0	0	
13	0	0	0	0	486	496	0	0	
14	0	0	0	0	489	502	0	0	
15	0	0	0	0	571	505	0	0	
0	0	0	0	0	572	510	0	0	
1	0	0	0	0	535	512	0	0	
2	0	0	0	0	511	515	0	0	
3	0	0	0	0	518	514	0	0	
4	0	0	0	0	494	512	0	0	
5	0	0	0	0	508	510	0	0	
6	0	0	0	0	469	508	0	0	
7	0	0	0	0	469	503	0	0	
8	0	0	0	0	527	507	0	0	
9	0	0	0	0	519	507	0	0	
10	0	0	0	0	513	503	0	0	
11	0	0	0	0	506	501	0	0	
12	0	0	0	0	512	510	0	0	
13	0	0	0	0	537	508	0	0	
14	0	0	0	0	470	505	0	0	
15	0	0	0	0	452	511	0	0	
0	0	0	0	0	483	505	0	0	
1	0	0	0	0	578	505	0	0	
2	0	0	0	0	593	515	0	0	
3	0	0	0	0	482	521	0	0	
4	0	0	0	0	487	512	0	0	
5	0	0	0	0	508	508	0	0	
6	0	0	0	0	515	509	0	0	
7	0	0	0	0	488	514	0	0	
8	0	0	0	0	499	497	0	0	
9	0	0	0	0	525	497	0	0	
10	0	0	0	0	487	504	0	0	
11	0	0	0	0	432	504	0	0	
12	0	0	0	0	439	502	0	0	
13	0	0	0	0	506	500	0	0	
14	0	0	0	0	664	507	0	0	
15	0	0	0	0	696	515	0	0	
0	0	0	0	0	543	521	0	0	
1	0	0	0	0	458	522	0	0	
2	0	0	0	0	430	517	0	0	
3	0	0	0	0	496	509	0	0	
4	0	0	0	0	570	502	0	0	
5	0	0	0	0	495	500	0	0	
6	0	0	0	0	521	521	0	0	
7	0	0	0	0	472	518	0	0	
8	0	0	0	0	459	502	0	0	
9	0	0	0	0	459	501	0	0	
10	0	0	0	0	481	506	0	0	
11	0	0	0	0	515	487	0	0	
12	0	0	0	0	508	496	0	0	
13	0	0	0	0	579	511	0	0	
14	0	0	0	0	604	515	0	0	
15	0	0	0	0	591	504	0	0	
0	0	0	0	0	551	504	0	0	
1	0	0	0	0	470	510	0	0	
2	0	0	0	0	411	513	0	0	
3	0	0	0	0	469	515	0	0	
4	0	0	0	0	532	503	0	0	
5	0	0	0	0	536	504	0	0	
6	0	0	0	0	504	504	0	0	
7	0	0	0	0	512	503	0	0	
8	0	0	0	0	518	510	0	0	
9	0	0	0	0	496	515	0	0	
10	0	0	0	0	490	513	0	0	
11	0	0	0	0	497	521	0	0	
12	0	0	0	0	487	520	0	0	
13	0	0	0	0	497	515	0	0	
14	0	0	0	0	500	499	0	0	
15	0	0	0	0	490	484	0	0	
0	0	0	0	0	502	495	0	0	
1	0	0	0	0	509	503	0	0	
2	0	0	0	0	539	509	0	0	
3	0	0	0	0	499	521	0	0	
4	0	0	0	0	388	504	0	0	
5	0	0	0	0	472	508	0	0	
6	0	0	0	0	692	515	0	0	
7	0	0	0	0	695	515	0	0	
8	0	0	0	0	570	524	0	0	
9	0	0	0	0	477	512	0	0	
10	0	0	0	0	471	504	0	0	
11	0	0	0	0	486	503	0	0	
12	0	0	0	0	472	499	0	0	
13	0	0	0	0	491	499	0	0	
14	0	0	0	0	426	504	0	0	
15	0	0	0	0	492	511	0	0	
0	0	0	0	0	482	511	0	0	
1	0	0	0	0	614	515	0	0	
2	0	0	0	0	661	521	0	0	
3	0	0	0	0	432	512	0	0	
4	0	0	0	0	446	504	0	0	
5	0	0	0	0	461	499	0	0	
6	0	0	0	0	479	498	0	0	
7	0	0	0	0	513	504	0	0	
8	0	0	0	0	519	507	0	0	
9	0	0	0	0	493	503	0	0	
10	0	0	0	0	525	501	0	0	
11	0	0	0	0	560	502	0	0	
12	0	0	0	0	605	520	0	0	
13	0	0	0	0	517	507	0	0	
14	0	0	0	0	487	517	0	0	
15	0	0	0	0	452	516	0	0	
0	0	0	0	0	477	509	0	0	
1	0	0	0	0	510	511	0	0	
2	0	0	0	0	536	506	0	0	
3	0	0	0	0	522	504	0	0	
4	0	0	0	0	484	504	0	0	
5	0	0	0	0	427	503	0	0	
6	0	0	0	0	417	507	0	0	
7	0	0	0	0	450	511	0	0	
8	0	0	0	0	635	520	0	0	
9	0	0	0	0	763	510	0	0	
10	0	0	0	0	600	504	0	0	
11	0	0	0	0	521	497	0	0	
12	0	0	0	0	524	506	0	0	
13	0	0	0	0	452	514	0	0	
14	0	0	0	0	368	512	0	0	
15	0	0	0	0	433	513	0	0	
0	0	0	0	0	455	507	0	0	
1	0	0	0	0	578	508	0	0	
2	0	0	0	0	525	502	0	0	
3	0	0	0	0	527	508	0	0	
4	0	0	0	0	512	506	0	0	
5	0	0	0	0	559	510	0	0	
6	0	0	0	0	505	515	0	0	
7	0	0	0	0	491	510	0	0	
8	0	0	0	0	503	505	0	0	
9	0	0	0	0	547	500	0	0	
10	0	0	0	0	532	502	0	0	
11	0	0	0	0	561	507	0	0	
12	0	0	0	0	509	507	0	0	
13	0	0	0	0	506	507	0	0	
14	0	0	0	0	503	510	0	0	
15	0	0	0	0	496	509	0	0	
0	0	0	0	0	487	507	0	0	
1	0	0	0	0	476	511	0	0	
2	0	0	0	0	501	508	0	0	
3	0	0	0	0	486	508	0	0	
4	0	0	0	0	478	505	0	0	
5	0	0	0	0	468	510	0	0	
6	0	0	0	0	459	509	0	0	
7	0	0	0	0	502	511	0	0	
8	0	0	0	0	522	508	0	0	
9	0	0	0	0	575	521	0	0	
10	0	0	0	0	526	510	0	0	
11	0	0	0	0	520	511	0	0	
12	0	0	0	0	582	513	0	0	
13	0	0	0	0	542	510	0	0	
14	0	0	0	0	561	497	0	0	
15	0	0	0	0	526	493	0	0	
0	0	0	0	0	485	501	0	0	
1	0	0	0	0	479	511	0	0	
2	0	0	0	0	506	513	0	0	
3	0	0	0	0	533	512	0	0	
4	0	0	0	0	532	513	0	0	
5	0	0	0	0	524	516	0	0	
6	0	0	0	0	525	521	0	0	
7	0	0	0	0	439	497	0	0	
8	0	0	0	0	450	482	0	0	
9	0	0	0	0	472	492	0	0	
10	0	0	0	0	450	500	0	0	
11	0	0	0	0	467	513	0	0	
12	0	0	0	0	520	520	0	0	
13	0	0	0	0	594	514	0	0	
14	0	0	0	0	589	518	0	0	
15	0	0	0	0	532	520	0	0	
0	0	0	0	0	511	514	0	0	
1	0	0	0	0	531	503	0	0	
2	0	0	0	0	552	501	0	0	
3	0	0	0	0	516	503	0	0	
4	0	0	0	0	496	496	0	0	
5	0	0	0	0	519	498	0	0	
6	0	0	0	0	490	505	0	0	
7	0	0	0	0	472	510	0	0	
8	0	0	0	0	484	508	0	0	
9	0	0	0	0	497	511	0	0	
10	0	0	0	0	528	510	0	0	
11	0	0	0	0	474	511	0	0	
12	0	0	0	0	432	514	0	0	
13	0	0	0	0	478	508	0	0	
14	0	0	0	0	528	509	0	0	
15	0	0	0	0	610	512	0	0	
0	0	0	0	0	629	520	0	0	
1	0	0	0	0	532	525	0	0	
2	0	0	0	0	453	514	0	0	
3	0	0	0	0	496	497	0	0	
4	0	0	0	0	594	494	0	0	
5	0	0	0	0	543	499	0	0	
6	0	0	0	0	477	507	0	0	
7	0	0	0	0	459	509	0	0	
8	0	0	0	0	465	501	0	0	
9	0	0	0	0	549	508	0	0	
10	0	0	0	0	519	509	0	0	
11	0	0	0	0	408	511	0	0	
12	0	0	0	0	399	510	0	0	
13	0	0	0	0	439	508	0	0	
14	0	0	0	0	503	510	0	0	
15	0	0	0	0	485	507	0	0	
0	0	0	0	0	533	507	0	0	
1	0	0	0	0	786	515	0	0	
2	0	0	0	0	655	508	0	0	
3	0	0	0	0	528	508	0	0	
4	0	0	0	0	497	516	0	0	
5	0	0	0	0	456	504	0	0	
6	0	0	0	0	493	507	0	0	
7	0	0	0	0	521	508	0	0	
8	0	0	0	0	512	500	0	0	
9	0	0	0	0	499	500	0	0	
10	0	0	0	0	480	503	0	0	
11	0	0	0	0	509	506	0	0	
12	0	0	0	0	513	506	0	0	
13	0	0	0	0	483	511	0	0	
14	0	0	0	0	479	513	0	0	
15	0	0	0	0	466	514	0	0	
0	0	0	0	0	448	512	0	0	
1	0	0	0	0	484	511	0	0	
2	0	0	0	0	514	505	0	0	
3	0	0	0	0	630	507	0	0	
4	0	0	0	0	579	507	0	0	
5	0	0	0	0	449	515	0	0	
6	0	0	0	0	408	509	0	0	
7	0	0	0	0	452	513	0	0	
8	0	0	0	0	534	512	0	0	
9	0	0	0	0	562	504	0	0	
10	0	0	0	0	558	502	0	0	
11	0	0	0	0	549	497	0	0	
12	0	0	0	0	543	510	0	0	
13	0	0	0	0	511	508	0	0	
14	0	0	0	0	503	507	0	0	
15	0	0	0	0	527	503	0	0	
0	0	0	0	0	512	502	0	0	
1	0	0	0	0	522	505	0	0	
2	0	0	0	0	535	517	0	0	
3	0	0	0	0	469	513	0	0	
4	0	0	0	0	446	509	0	0	
5	0	0	0	0	490	511	0	0	
6	0	0	0	0	530	510	0	0	
7	0	0	0	0	559	510	0	0	
8	0	0	0	0	531	504	0	0	
9	0	0	0	0	505	509	0	0	
10	0	0	0	0	515	504	0	0	
11	0	0	0	0	529	506	0	0	
12	0	0	0	0	485	504	0	0	
13	0	0	0	0	485	506	0	0	
14	0	0	0	0	475	508	0	0	
15	0	0	0	0	540	504	0	0	
0	0	0	0	0	549	510	0	0	
1	0	0	0	0	488	514	0	0	
2	0	0	0	0	531	520	0	0	
3	0	0	0	0	500	525	0	0	
4	0	0	0	0	491	507	0	0	
5	0	0	0	0	462	503	0	0	
6	0	0	0	0	448	505	0	0	
7	0	0	0	0	488	499	0	0	
8	0	0	0	0	530	499	0	0	
9	0	0	0	0	566	504	0	0	
10	0	0	0	0	506	503	0	0	
11	0	0	0	0	519	502	0	0	
12	0	0	0	0	529	506	0	0	
13	0	0	0	0	574	505	0	0	
14	0	0	0	0	594	512	0	0	
15	0	0	0	0	507	518	0	0	
0	0	0	0	0	499	523	0	0	
1	0	0	0	0	498	506	0	0	
2	0	0	0	0	491	504	0	0	
3	0	0	0	0	472	508	0	0	
4	0	0	0	0	513	518	0	0	
5	0	0	0	0	474	514	0	0	
6	0	0	0	0	479	508	0	0	
7	0	0	0	0	499	502	0	0	
8	0	0	0	0	540	496	0	0	
9	0	0	0	0	566	494	0	0	
10	0	0	0	0	580	503	0	0	
11	0	0	0	0	512	513	0	0	
12	0	0	0	0	496	520	0	0	
13	0	0	0	0	467	517	0	0	
14	0	0	0	0	493	511	0	0	
15	0	0	0	0	465	508	0	0	
0	0	0	0	0	468	507	0	0	
1	0	0	0	0	496	502	0	0	
2	0	0	0	0	499	510	0	0	
3	0	0	0	0	547	508	0	0	
4	0	0	0	0	545	504	0	0	
5	0	0	0	0	541	504	0	0	
6	0	0	0	0	487	508	0	0	
7	0	0	0	0	461	506	0	0	
8	0	0	0	0	530	509	0	0	
9	0	0	0	0	549	507	0	0	
10	0	0	0	0	550	511	0	0	
11	0	0	0	0	570	511	0	0	
12	0	0	0	0	518	515	0	0	
13	0	0	0	0	513	513	0	0	
14	0	0	0	0	508	506	0	0	
15	0	0	0	0	495	508	0	0	
0	0	0	0	0	497	510	0	0	
1	0	0	0	0	459	509	0	0	
2	0	0	0	0	504	506	0	0	
3	0	0	0	0	531	506	0	0	
4	0	0	0	0	508	504	0	0	
5	0	0	0	0	489	504	0	0	
6	0	0	0	0	489	505	0	0	
7	0	0	0	0	512	509	0	0	
8	0	0	0	0	526	514	0	0	
9	0	0	0	0	507	509	0	0	
10	0	0	0	0	509	505	0	0	
11	0	0	0	0	503	508	0	0	
12	0	0	0	0	555	504	0	0	
13	0	0	0	0	545	500	0	0	
14	0	0	0	0	519	505	0	0	
15	0	0	0	0	500	508	0	0	
0	0	0	0	0	506	511	0	0	
1	0	0	0	0	489	510	0	0	
2	0	0	0	0	488	511	0	0	
3	0	0	0	0	522	512	0	0	
4	0	0	0	0	508	512	0	0	
5	0	0	0	0	493	513	0	0	
6	0	0	0	0	480	512	0	0	
7	0	0	0	0	519	503	0	0	
8	0	0	0	0	510	507	0	0	
9	0	0	0	0	487	505	0	0	
10	0	0	0	0	478	504	0	0	
11	0	0	0	0	516	508	0	0	
12	0	0	0	0	560	511	0	0	
13	0	0	0	0	573	508	0	0	
14	0	0	0	0	510	505	0	0	
15	0	0	0	0	487	502	0	0	
0	0	0	0	0	540	506	0	0	
1	0	0	0	0	537	506	0	0	
2	0	0	0	0	545	512	0	0	
3	0	0	0	0	497	516	0	0	
4	0	0	0	0	521	515	0	0	
5	0	0	0	0	517	508	0	0	
6	0	0	0	0	502	509	0	0	
7	0	0	0	0	494	508	0	0	
8	0	0	0	0	498	504	0	0	
9	0	0	0	0	510	505	0	0	
10	0	0	0	0	501	506	0	0	
11	0	0	0	0	504	506	0	0	
12	0	0	0	0	507	508	0	0	
13	0	0	0	0	505	509	0	0	
14	0	0	0	0	501	507	0	0	
15	0	0	0	0	496	508	0	0	
0	0	0	0	0	507	509	0	0	
1	0	0	0	0	492	503	0	0	
2	0	0	0	0	496	508	0	0	
3	0	0	0	0	512	510	0	0	
4	0	0	0	0	508	507	0	0	
5	0	0	0	0	551	505	0	0	
6	0	0	0	0	544	509	0	0	
7	0	0	0	0	504	513	0	0	
8	0	0	0	0	495	511	0	0	
9	0	0	0	0	490	510	0	0	
10	0	0	0	0	521	504	0	0	
11	0	0	0	0	550	505	0	0	
12	0	0	0	0	574	515	0	0	
13	0	0	0	0	541	511	0	0	
14	0	0	0	0	488	507	0	0	
15	0	0	0	0	500	504	0	0	
0	0	0	0	0	510	506	0	0	
1	0	0	0	0	500	505	0	0	
2	0	0	0	0	502	509	0	0	
3	0	0	0	0	509	510	0	0	
4	0	0	0	0	486	512	0	0	
5	0	0	0	0	479	510	0	0	
6	0	0	0	0	472	508	0	0	
7	0	0	0	0	486	506	0	0	
8	0	0	0	0	486	504	0	0	
9	0	0	0	0	509	505	0	0	
10	0	0	0	0	555	508	0	0	
11	0	0	0	0	563	509	0	0	
12	0	0	0	0	515	508	0	0	
13	0	0	0	0	495	510	0	0	
14	0	0	0	0	502	508	0	0	
15	0	0	0	0	532	510	0	0	
0	0	0	0	0	511	505	0	0	
1	0	0	0	0	574	508	0	0	
2	0	0	0	0	571	511	0	0	
3	0	0	0	0	539	509	0	0	
4	0	0	0	0	516	506	0	0	
5	0	0	0	0	486	507	0	0	
6	0	0	0	0	461	515	0	0	
7	0	0	0	0	439	515	0	0	
8	0	0	0	0	437	503	0	0	
9	0	0	0	0	474	505	0	0	
10	0	0	0	0	487	507	0	0	
11	0	0	0	0	536	504	0	0	
12	0	0	0	0	536	506	0	0	
13	0	0	0	0	515	511	0	0	
14	0	0	0	0	526	508	0	0	
15	0	0	0	0	596	509	0	0	
0	0	0	0	0	548	512	0	0	
1	0	0	0	0	498	510	0	0	
2	0	0	0	0	493	506	0	0	
3	0	0	0	0	488	509	0	0	
4	0	0	0	0	507	507	0	0	
5	0	0	0	0	539	503	0	0	
6	0	0	0	0	540	504	0	0	
7	0	0	0	0	528	510	0	0	
8	0	0	0	0	517	514	0	0	
9	0	0	0	0	514	504	0	0	
10	0	0	0	0	500	504	0	0	
11	0	0	0	0	497	507	0	0	
12	0	0	0	0	508	512	0	0	
13	0	0	0	0	492	506	0	0	
14	0	0	0	0	495	508	0	0	
15	0	0	0	0	490	509	0	0	
0	0	0	0	0	495	506	0	0	
1	0	0	0	0	515	510	0	0	
2	0	0	0	0	505	509	0	0	
3	0	0	0	0	487	506	0	0	
4	0	0	0	0	508	510	0	0	
5	0	0	0	0	539	510	0	0	
6	0	0	0	0	569	507	0	0	
7	0	0	0	0	594	508	0	0	
8	0	0	0	0	507	507	0	0	
9	0	0	0	0	476	512	0	0	
10	0	0	0	0	493	518	0	0	
11	0	0	0	0	497	512	0	0	
12	0	0	0	0	495	499	0	0	
13	0	0	0	0	506	502	0	0	
14	0	0	0	0	520	505	0	0	
15	0	0	0	0	520	510	0	0	
0	0	0	0	0	508	506	0	0	
1	0	0	0	0	512	507	0	0	
2	0	0	0	0	481	508	0	0	
3	0	0	0	0	474	513	0	0	
4	0	0	0	0	522	512	0	0	
5	0	0	0	0	519	503	0	0	
6	0	0	0	0	524	505	0	0	
7	0	0	0	0	529	509	0	0	
8	0	0	0	0	510	508	0	0	
9	0	0	0	0	520	509	0	0	
10	0	0	0	0	496	509	0	0	
11	0	0	0	0	497	510	0	0	
12	0	0	0	0	498	511	0	0	
13	0	0	0	0	492	505	0	0	
14	0	0	0	0	473	507	0	0	
15	0	0	0	0	463	506	0	0	
0	0	0	0	0	543	507	0	0	
1	0	0	0	0	537	505	0	0	
2	0	0	0	0	576	506	0	0	
3	0	0	0	0	591	510	0	0	
4	0	0	0	0	539	508	0	0	
5	0	0	0	0	502	508	0	0	
6	0	0	0	0	473	513	0	0	
7	0	0	0	0	480	512	0	0	
8	0	0	0	0	473	509	0	0	
9	0	0	0	0	510	508	0	0	
10	0	0	0	0	512	508	0	0	
11	0	0	0	0	515	504	0	0	
12	0	0	0	0	537	507	0	0	
13	0	0	0	0	519	504	0	0	
14	0	0	0	0	519	508	0	0	
15	0	0	0	0	518	511	0	0	
0	0	0	0	0	514	507	0	0	
1	0	0	0	0	504	505	0	0	
2	0	0	0	0	511	509	0	0	
3	0	0	0	0	511	508	0	0	
4	0	0	0	0	495	508	0	0	
5	0	0	0	0	463	507	0	0	
6	0	0	0	0	469	508	0	0	
7	0	0	0	0	488	506	0	0	
8	0	0	0	0	545	507	0	0	
9	0	0	0	0	568	506	0	0	
10	0	0	0	0	572	510	0	0	
11	0	0	0	0	524	510	0	0	
12	0	0	0	0	541	509	0	0	
13	0	0	0	0	512	510	0	0	
14	0	0	0	0	493	508	0	0	
15	0	0	0	0	500	510	0	0	
0	0	0	0	0	500	510	0	0	
1	0	0	0	0	462	511	0	0	
2	0	0	0	0	461	509	0	0	
3	0	0	0	0	494	508	0	0	
4	0	0	0	0	530	507	0	0	
5	0	0	0	0	524	506	0	0	
6	0	0	0	0	533	507	0	0	
7	0	0	0	0	509	504	0	0	
8	0	0	0	0	503	502	0	0	
9	0	0	0	0	505	509	0	0	
10	0	0	0	0	504	508	0	0	
11	0	0	0	0	513	507	0	0	
12	0	0	0	0	522	511	0	0	
13	0	0	0	0	507	505	0	0	
14	0	0	0	0	515	507	0	0	
15	0	0	0	0	516	508	0	0	
0	0	0	0	0	520	509	0	0	
1	0	0	0	0	519	509	0	0	
2	0	0	0	0	520	509	0	0	
3	0	0	0	0	514	510	0	0	
4	0	0	0	0	499	508	0	0	
5	0	0	0	0	496	508	0	0	
6	0	0	0	0	499	509	0	0	
7	0	0	0	0	510	508	0	0	
8	0	0	0	0	565	509	0	0	
9	0	0	0	0	536	510	0	0	
10	0	0	0	0	523	508	0	0	
11	0	0	0	0	515	504	0	0	
12	0	0	0	0	489	507	0	0	
13	0	0	0	0	480	508	0	0	
14	0	0	0	0	499	508	0	0	
15	0	0	0	0	506	507	0	0	
0	0	0	0	0	512	510	0	0	
1	0	0	0	0	504	508	0	0	
2	0	0	0	0	513	509	0	0	
3	0	0	0	0	502	510	0	0	
4	0	0	0	0	500	511	0	0	
5	0	0	0	0	498	506	0	0	
6	0	0	0	0	524	510	0	0	
7	0	0	0	0	513	508	0	0	
8	0	0	0	0	517	507	0	0	
9	0	0	0	0	524	509	0	0	
10	0	0	0	0	520	507	0	0	
11	0	0	0	0	518	507	0	0	
12	0	0	0	0	512	511	0	0	
13	0	0	0	0	511	509	0	0	
14	0	0	0	0	509	509	0	0	
15	0	0	0	0	512	507	0	0	
0	0	0	0	0	507	506	0	0	
1	0	0	0	0	507	507	0	0	
2	0	0	0	0	511	506	0	0	
3	0	0	0	0	511	509	0	0	
4	0	0	0	0	508	507	0	0	
5	0	0	0	0	510	510	0	0	
6	0	0	0	0	516	509	0	0	
7	0	0	0	0	503	505	0	0	
8	0	0	0	0	509	509	0	0	
9	0	0	0	0	513	509	0	0	
10	0	0	0	0	515	510	0	0	
11	0	0	0	0	514	508	0	0	
12	0	0	0	0	515	509	0	0	
13	0	0	0	0	515	507	0	0	
14	0	0	0	0	516	508	0	0	
15	0	0	0	0	513	509	0	0	
0	0	0	0	0	516	511	0	0	
1	0	0	0	0	501	506	0	0	
2	0	0	0	0	508	506	0	0	
3	0	0	0	0	512	508	0	0	
4	0	0	0	0	516	505	0	0	
5	0	0	0	0	506	507	0	0	
6	0	0	0	0	505	508	0	0	
7	0	0	0	0	508	508	0	0	
8	0	0	0	0	511	507	0	0	
9	0	0	0	0	510	510	0	0	
10	0	0	0	0	510	509	0	0	
11	0	0	0	0	510	508	0	0	
12	0	0	0	0	513	507	0	0	
13	0	0	0	0	511	508	0	0	
14	0	0	0	0	510	511	0	0	
15	0	0	0	0	527	511	0	0	
0	0	0	0	0	505	504	0	0	
1	0	0	0	0	511	508	0	0	
2	0	0	0	0	521	508	0	0	
3	0	0	0	0	519	509	0	0	
4	0	0	0	0	514	507	0	0	
5	0	0	0	0	511	508	0	0	
6	0	0	0	0	511	507	0	0	
7	0	0	0	0	508	508	0	0	
8	0	0	0	0	503	507	0	0	
9	0	0	0	0	508	509	0	0	
10	0	0	0	0	507	509	0	0	
11	0	0	0	0	506	508	0	0	
12	0	0	0	0	508	505	0	0	
13	0	0	0	0	508	507	0	0	
14	0	0	0	0	509	510	0	0	
15	0	0	0	0	507	509	0	0	
0	0	0	0	0	505	508	0	0	
1	0	0	0	0	509	510	0	0	
2	0	0	0	0	510	508	0	0	
3	0	0	0	0	516	508	0	0	
4	0	0	0	0	526	508	0	0	
5	0	0	0	0	530	509	0	0	
6	0	0	0	0	517	508	0	0	
7	0	0	0	0	516	509	0	0	
8	0	0	0	0	509	508	0	0	
9	0	0	0	0	513	510	0	0	
10	0	0	0	0	504	506	0	0	
11	0	0	0	0	505	506	0	0	
12	0	0	0	0	505	508	0	0	
13	0	0	0	0	504	509	0	0	
14	0	0	0	0	507	508	0	0	
15	0	0	0	0	507	506	0	0	
0	0	0	0	0	507	508	0	0	
1	0	0	0	0	507	507	0	0	
2	0	0	0	0	507	507	0	0	
3	0	0	0	0	511	509	0	0	
4	0	0	0	0	511	511	0	0	
5	0	0	0	0	513	510	0	0	
6	0	0	0	0	515	509	0	0	
7	0	0	0	0	513	508	0	0	
8	0	0	0	0	511	507	0	0	
9	0	0	0	0	515	507	0	0	
10	0	0	0	0	514	508	0	0	
11	0	0	0	0	515	509	0	0	
12	0	0	0	0	512	508	0	0	
13	0	0	0	0	509	508	0	0	
14	0	0	0	0	509	508	0	0	
15	0	0	0	0	512	508	0	0	
0	0	0	0	0	514	507	0	0	
1	0	0	0	0	512	507	0	0	
2	0	0	0	0	508	508	0	0	
3	0	0	0	0	507	509	0	0	
4	0	0	0	0	506	507	0	0	
5	0	0	0	0	509	509	0	0	
6	0	0	0	0	511	510	0	0	
7	0	0	0	0	510	506	0	0	
8	0	0	0	0	513	506	0	0	
9	0	0	0	0	510	508	0	0	
10	0	0	0	0	514	509	0	0	
11	0	0	0	0	514	507	0	0	
12	0	0	0	0	513	509	0	0	
13	0	0	0	0	515	509	0	0	
14	0	0	0	0	516	509	0	0	
15	0	0	0	0	512	507	0	0	
0	0	0	0	0	512	507	0	0	
1	0	0	0	0	510	508	0	0	
2	0	0	0	0	510	507	0	0	
3	0	0	0	0	511	506	0	0	
4	0	0	0	0	510	507	0	0	
5	0	0	0	0	508	507	0	0	
6	0	0	0	0	507	507	0	0	
7	0	0	0	0	510	507	0	0	
8	0	0	0	0	508	508	0	0	
9	0	0	0	0	512	510	0	0	
10	0	0	0	0	508	506	0	0	
11	0	0	0	0	509	506	0	0	
12	0	0	0	0	514	508	0	0	
13	0	0	0	0	515	511	0	0	
14	0	0	0	0	513	509	0	0	
15	0	0	0	0	514	510	0	0	
0	0	0	0	0	514	508	0	0	
1	0	0	0	0	514	507	0	0	
2	0	0	0	0	513	508	0	0	
3	0	0	0	0	514	508	0	0	
4	0	0	0	0	511	508	0	0	
5	0	0	0	0	510	506	0	0	
6	0	0	0	0	508	508	0	0	
7	0	0	0	0	509	508	0	0	
8	0	0	0	0	510	507	0	0	
9	0	0	0	0	514	509	0	0	
10	0	0	0	0	507	509	0	0	
11	0	0	0	0	502	504	0	0	
12	0	0	0	0	508	508	0	0	
13	0	0	0	0	510	509	0	0	
14	0	0	0	0	513	508	0	0	
15	0	0	0	0	511	508	0	0	
0	0	0	0	0	512	510	0	0	
1	0	0	0	0	515	509	0	0	
2	0	0	0	0	516	510	0	0	
3	0	0	0	0	513	508	0	0	
4	0	0	0	0	513	509	0	0	
5	0	0	0	0	514	508	0	0	
6	0	0	0	0	517	508	0	0	
7	0	0	0	0	514	507	0	0	
8	0	0	0	0	512	507	0	0	
9	0	0	0	0	510	507	0	0	
10	0	0	0	0	511	508	0	0	
11	0	0	0	0	510	507	0	0	
12	0	0	0	0	509	505	0	0	
13	0	0	0	0	506	508	0	0	
14	0	0	0	0	506	509	0	0	
15	0	0	0	0	510	508	0	0	
0	0	0	0	0	505	507	0	0	
1	0	0	0	0	508	508	0	0	
2	0	0	0	0	509	508	0	0	
3	0	0	0	0	512	508	0	0	
4	0	0	0	0	511	507	0	0	
5	0	0	0	0	513	508	0	0	
6	0	0	0	0	513	510	0	0	
7	0	0	0	0	512	509	0	0	
8	0	0	0	0	514	509	0	0	
9	0	0	0	0	519	509	0	0	
10	0	0	0	0	512	507	0	0	
11	0	0	0	0	512	507	0	0	
12	0	0	0	0	512	508	0	0	
13	0	0	0	0	510	506	0	0	
14	0	0	0	0	511	508	0	0	
15	0	0	0	0	509	510	0	0	
0	0	0	0	0	508	508	0	0	
1	0	0	0	0	510	507	0	0	
2	0	0	0	0	511	507	0	0	
3	0	0	0	0	509	508	0	0	
4	0	0	0	0	510	507	0	0	
5	0	0	0	0	513	510	0	0	
6	0	0	0	0	511	509	0	0	
7	0	0	0	0	510	509	0	0	
8	0	0	0	0	511	507	0	0	
9	0	0	0	0	514	507	0	0	
10	0	0	0	0	514	511	0	0	
11	0	0	0	0	514	509	0	0	
12	0	0	0	0	514	508	0	0	
13	0	0	0	0	513	507	0	0	
14	0	0	0	0	515	509	0	0	
15	0	0	0	0	512	509	0	0	
0	0	0	0	0	512	507	0	0	
1	0	0	0	0	510	507	0	0	
2	0	0	0	0	508	508	0	0	
3	0	0	0	0	508	506	0	0	
4	0	0	0	0	509	507	0	0	
5	0	0	0	0	507	508	0	0	
6	0	0	0	0	505	510	0	0	
7	0	0	0	0	507	508	0	0	
8	0	0	0	0	508	509	0	0	
9	0	0	0	0	514	509	0	0	
10	0	0	0	0	506	507	0	0	
11	0	0	0	0	512	508	0	0	
12	0	0	0	0	511	508	0	0	
13	0	0	0	0	513	509	0	0	
14	0	0	0	0	513	509	0	0	
15	0	0	0	0	511	508	0	0	
0	0	0	0	0	516	509	0	0	
1	0	0	0	0	516	507	0	0	
2	0	0	0	0	513	506	0	0	
3	0	0	0	0	512	508	0	0	
4	0	0	0	0	510	508	0	0	
5	0	0	0	0	510	508	0	0	
6	0	0	0	0	510	507	0	0	
7	0	0	0	0	509	508	0	0	
8	0	0	0	0	510	508	0	0	
9	0	0	0	0	508	507	0	0	
10	0	0	0	0	510	507	0	0	
11	0	0	0	0	510	507	0	0	
12	0	0	0	0	511	509	0	0	
13	0	0	0	0	511	508	0	0	
14	0	0	0	0	511	508	0	0	
15	0	0	0	0	512	508	0	0	
0	0	0	0	0	509	508	0	0	
1	0	0	0	0	509	508	0	0	
2	0	0	0	0	514	511	0	0	
3	0	0	0	0	513	510	0	0	
4	0	0	0	0	514	508	0	0	
5	0	0	0	0	514	508	0	0	
6	0	0	0	0	513	508	0	0	
7	0	0	0	0	514	509	0	0	
8	0	0	0	0	513	509	0	0	
9	0	0	0	0	511	509	0	0	
10	0	0	0	0	508	506	0	0	
11	0	0	0	0	507	508	0	0	
12	0	0	0	0	507	505	0	0	
13	0	0	0	0	508	506	0	0	
14	0	0	0	0	509	509	0	0	
15	0	0	0	0	511	508	0	0	
0	0	0	0	0	509	508	0	0	
1	0	0	0	0	505	505	0	0	
2	0	0	0	0	510	507	0	0	
3	0	0	0	0	510	508	0	0	
4	0	0	0	0	512	509	0	0	
5	0	0	0	0	515	508	0	0	
6	0	0	0	0	515	508	0	0	
7	0	0	0	0	514	510	0	0	
8	0	0	0	0	514	507	0	0	
9	0	0	0	0	514	506	0	0	
10	0	0	0	0	513	508	0	0	
11	0	0	0	0	512	508	0	0	
12	0	0	0	0	511	507	0	0	
13	0	0	0	0	509	510	0	0	
14	0	0	0	0	508	510	0	0	
15	0	0	0	0	508	509	0	0	
0	0	0	0	0	510	507	0	0	
1	0	0	0	0	510	509	0	0	
2	0	0	0	0	508	508	0	0	
3	0	0	0	0	508	504	0	0	
4	0	0	0	0	510	506	0	0	
5	0	0	0	0	510	508	0	0	
6	0	0	0	0	513	508	0	0	
7	0	0	0	0	512	507	0	0	
8	0	0	0	0	512	508	0	0	
9	0	0	0	0	513	509	0	0	
10	0	0	0	0	512	508	0	0	
11	0	0	0	0	513	510	0	0	
12	0	0	0	0	513	508	0	0	
13	0	0	0	0	515	508	0	0	
14	0	0	0	0	513	509	0	0	
15	0	0	0	0	513	507	0	0	
0	0	0	0	0	511	507	0	0	
1	0	0	0	0	512	509	0	0	
2	0	0	0	0	510	508	0	0	
3	0	0	0	0	510	506	0	0	
4	0	0	0	0	508	505	0	0	
5	0	0	0	0	508	508	0	0	
6	0	0	0	0	508	508	0	0	
7	0	0	0	0	509	508	0	0	
8	0	0	0	0	509	509	0	0	
9	0	0	0	0	510	508	0	0	
10	0	0	0	0	512	508	0	0	
11	0	0	0	0	510	510	0	0	
12	0	0	0	0	511	509	0	0	
13	0	0	0	0	513	510	0	0	
14	0	0	0	0	515	506	0	0	
15	0	0	0	0	514	510	0	0	
0	0	0	0	0	514	507	0	0	
1	0	0	0	0	514	506	0	0	
2	0	0	0	0	514	509	0	0	
3	0	0	0	0	512	509	0	0	
4	0	0	0	0	511	508	0	0	
5	0	0	0	0	509	508	0	0	
6	0	0	0	0	511	509	0	0	
7	0	0	0	0	509	509	0	0	
8	0	0	0	0	508	507	0	0	
9	0	0	0	0	509	505	0	0	
10	0	0	0	0	509	507	0	0	
11	0	0	0	0	507	508	0	0	
12	0	0	0	0	508	508	0	0	
13	0	0	0	0	510	507	0	0	
14	0	0	0	0	511	509	0	0	
15	0	0	0	0	511	507	0	0	
0	0	0	0	0	511	507	0	0	
1	0	0	0	0	514	507	0	0	
2	0	0	0	0	515	508	0	0	
3	0	0	0	0	511	510	0	0	
4	0	0	0	0	512	510	0	0	
5	0	0	0	0	513	508	0	0	
6	0	0	0	0	514	508	0	0	
7	0	0	0	0	513	508	0	0	
8	0	0	0	0	511	510	0	0	
9	0	0	0	0	511	508	0	0	
10	0	0	0	0	510	508	0	0	
11	0	0	0	0	508	506	0	0	
12	0	0	0	0	507	506	0	0	
13	0	0	0	0	507	508	0	0	
14	0	0	0	0	509	508	0	0	
15	0	0	0	0	509	509	0	0	
0	0	0	0	0	512	507	0	0	
1	0	0	0	0	510	509	0	0	
2	0	0	0	0	512	508	0	0	
3	0	0	0	0	511	508	0	0	
4	0	0	0	0	512	507	0	0	
5	0	0	0	0	512	510	0	0	
6	0	0	0	0	512	509	0	0	
7	0	0	0	0	514	507	0	0	
8	0	0	0	0	513	508	0	0	
9	0	0	0	0	515	506	0	0	
10	0	0	0	0	513	508	0	0	
11	0	0	0	0	513	507	0	0	
12	0	0	0	0	512	508	0	0	
13	0	0	0	0	512	505	0	0	
14	0	0	0	0	510	508	0	0	
15	0	0	0	0	508	508	0	0	
0	0	0	0	0	507	508	0	0	
1	0	0	0	0	509	508	0	0	
2	0	0	0	0	508	509	0	0	
3	0	0	0	0	508	508	0	0	
4	0	0	0	0	510	508	0	0	
5	0	0	0	0	508	507	0	0	
6	0	0	0	0	512	510	0	0	
7	0	0	0	0	508	508	0	0	
8	0	0	0	0	513	506	0	0	
9	0	0	0	0	513	508	0	0	
10	0	0	0	0	513	509	0	0	
11	0	0	0	0	513	508	0	0	
12	0	0	0	0	513	508	0	0	
13	0	0	0	0	514	509	0	0	
14	0	0	0	0	513	509	0	0	
15	0	0	0	0	512	508	0	0	
0	0	0	0	0	511	509	0	0	
1	0	0	0	0	508	509	0	0	
2	0	0	0	0	511	507	0	0	
3	0	0	0	0	510	507	0	0	
4	0	0	0	0	509	507	0	0	
5	0	0	0	0	508	508	0	0	
6	0	0	0	0	509	506	0	0	
7	0	0	0	0	507	508	0	0	
8	0	0	0	0	510	510	0	0	
9	0	0	0	0	511	507	0	0	
10	0	0	0	0	511	508	0	0	
11	0	0	0	0	511	509	0	0	
12	0	0	0	0	510	508	0	0	
13	0	0	0	0	513	507	0	0	
14	0	0	0	0	513	507	0	0	
15	0	0	0	0	514	506	0	0	
0	0	0	0	0	512	508	0	0	
1	0	0	0	0	515	510	0	0	
2	0	0	0	0	511	509	0	0	
3	0	0	0	0	511	509	0	0	
4	0	0	0	0	512	509	0	0	
5	0	0	0	0	509	508	0	0	
6	0	0	0	0	509	510	0	0	
7	0	0	0	0	507	509	0	0	
8	0	0	0	0	510	509	0	0	
9	0	0	0	0	511	508	0	0	
10	0	0	0	0	510	507	0	0	
11	0	0	0	0	507	504	0	0	
12	0	0	0	0	507	509	0	0	
13	0	0	0	0	511	507	0	0	
14	0	0	0	0	512	508	0	0	
15	0	0	0	0	512	507	0	0	
0	0	0	0	0	513	507	0	0	
1	0	0	0	0	511	508	0	0	
2	0	0	0	0	512	509	0	0	
3	0	0	0	0	514	508	0	0	
4	0	0	0	0	511	507	0	0	
5	0	0	0	0	515	508	0	0	
6	0	0	0	0	512	510	0	0	
7	0	0	0	0	513	508	0	0	
8	0	0	0	0	512	508	0	0	
9	0	0	0	0	510	507	0	0	
10	0	0	0	0	511	509	0	0	
11	0	0	0	0	509	507	0	0	
12	0	0	0	0	507	508	0	0	
13	0	0	0	0	510	509	0	0	
14	0	0	0	0	508	509	0	0	
15	0	0	0	0	508	509	0	0	
0	0	0	0	0	511	507	0	0	
1	0	0	0	0	511	509	0	0	
2	0	0	0	0	512	506	0	0	
3	0	0	0	0	511	510	0	0	
4	0	0	0	0	514	507	0	0	
5	0	0	0	0	512	508	0	0	
6	0	0	0	0	513	509	0	0	
7	0	0	0	0	511	508	0	0	
8	0	0	0	0	510	508	0	0	
9	0	0	0	0	514	508	0	0	
10	0	0	0	0	512	508	0	0	
11	0	0	0	0	512	507	0	0	
12	0	0	0	0	510	506	0	0	
13	0	0	0	0	512	509	0	0	
14	0	0	0	0	512	508	0	0	
15	0	0	0	0	509	507	0	0	
0	0	0	0	0	509	508	0	0	
1	0	0	0	0	509	508	0	0	
2	0	0	0	0	511	506	0	0	
3	0	0	0	0	508	507	0	0	
4	0	0	0	0	509	508	0	0	
5	0	0	0	0	510	509	0	0	
6	0	0	0	0	511	508	0	0	
7	0	0	0	0	511	510	0	0	
8	0	0	0	0	511	509	0	0	
9	0	0	0	0	513	508	0	0	
10	0	0	0	0	511	509	0	0	
11	0	0	0	0	511	509	0	0	
12	0	0	0	0	515	508	0	0	
13	0	0	0	0	513	510	0	0	
14	0	0	0	0	514	510	0	0	
15	0	0	0	0	511	508	0	0	
0	0	0	0	0	511	508	0	0	
1	0	0	0	0	510	507	0	0	
2	0	0	0	0	510	507	0	0	
3	0	0	0	0	511	508	0	0	
4	0	0	0	0	510	507	0	0	
5	0	0	0	0	510	509	0	0	
6	0	0	0	0	510	508	0	0	
7	0	0	0	0	508	508	0	0	
8	0	0	0	0	508	509	0	0	
9	0	0	0	0	510	508	0	0	
10	0	0	0	0	509	508	0	0	
11	0	0	0	0	510	507	0	0	
12	0	0	0	0	511	507	0	0	
13	0	0	0	0	513	508	0	0	
14	0	0	0	0	513	508	0	0	
15	0	0	0	0	514	509	0	0	
0	0	0	0	0	513	507	0	0	
1	0	0	0	0	515	508	0	0	
2	0	0	0	0	512	509	0	0	
3	0	0	0	0	513	507	0	0	
4	0	0	0	0	513	508	0	0	
5	0	0	0	0	512	507	0	0	
6	0	0	0	0	511	507	0	0	
7	0	0	0	0	509	508	0	0	
8	0	0	0	0	508	506	0	0	
9	0	0	0	0	509	508	0	0	
10	0	0	0	0	508	510	0	0	
11	0	0	0	0	508	510	0	0	
12	0	0	0	0	510	510	0	0	
13	0	0	0	0	511	510	0	0	
14	0	0	0	0	510	508	0	0	
15	0	0	0	0	511	506	0	0	
0	0	0	0	0	512	507	0	0	
1	0	0	0	0	512	509	0	0	
2	0	0	0	0	511	508	0	0	
3	0	0	0	0	514	508	0	0	
4	0	0	0	0	514	509	0	0	
5	0	0	0	0	512	508	0	0	
6	0	0	0	0	512	506	0	0	
7	0	0	0	0	513	510	0	0	
8	0	0	0	0	512	510	0	0	
9	0	0	0	0	511	508	0	0	
10	0	0	0	0	510	508	0	0	
11	0	0	0	0	507	507	0	0	
12	0	0	0	0	510	508	0	0	
13	0	0	0	0	508	508	0	0	
14	0	0	0	0	510	507	0	0	
15	0	0	0	0	509	508	0	0	
0	0	0	0	0	509	509	0	0	
1	0	0	0	0	511	508	0	0	
2	0	0	0	0	511	507	0	0	
3	0	0	0	0	510	508	0	0	
4	0	0	0	0	511	509	0	0	
5	0	0	0	0	513	509	0	0	
6	0	0	0	0	512	509	0	0	
7	0	0	0	0	513	508	0	0	
8	0	0	0	0	515	509	0	0	
9	0	0	0	0	512	508	0	0	
10	0	0	0	0	514	509	0	0	
11	0	0	0	0	512	508	0	0	
12	0	0	0	0	511	508	0	0	
13	0	0	0	0	511	507	0	0	
14	0	0	0	0	508	509	0	0	
15	0	0	0	0	508	508	0	0	
0	0	0	0	0	508	508	0	0	
1	0	0	0	0	510	508	0	0	
2	0	0	0	0	508	508	0	0	
3	0	0	0	0	510	507	0	0	
4	0	0	0	0	510	507	0	0	
5	0	0	0	0	508	510	0	0	
6	0	0	0	0	511	507	0	0	
7	0	0	0	0	513	508	0	0	
8	0	0	0	0	513	508	0	0	
9	0	0	0	0	512	510	0	0	
10	0	0	0	0	511	507	0	0	
11	0	0	0	0	513	507	0	0	
12	0	0	0	0	514	509	0	0	
13	0	0	0	0	515	509	0	0	
14	0	0	0	0	513	509	0	0	
15	0	0	0	0	512	508	0	0	
0	0	0	0	0	512	508	0	0	
1	0	0	0	0	511	506	0	0	
2	0	0	0	0	511	508	0	0	
3	0	0	0	0	509	507	0	0	
4	0	0	0	0	511	508	0	0	
5	0	0	0	0	512	510	0	0	
6	0	0	0	0	504	504	0	0	
7	0	0	0	0	504	508	0	0	
8	0	0	0	0	508	509	0	0	
9	0	0	0	0	506	507	0	0	
10	0	0	0	0	512	508	0	0	
11	0	0	0	0	512	507	0	0	
12	0	0	0	0	513	507	0	0	
13	0	0	0	0	513	507	0	0	
14	0	0	0	0	514	510	0	0	
15	0	0	0	0	515	508	0	0	
0	0	0	0	0	515	508	0	0	
1	0	0	0	0	513	507	0	0	
2	0	0	0	0	510	506	0	0	
3	0	0	0	0	510	507	0	0	
4	0	0	0	0	511	508	0	0	
5	0	0	0	0	512	508	0	0	
6	0	0	0	0	510	509	0	0	
7	0	0	0	0	510	510	0	0	
8	0	0	0	0	507	507	0	0	
9	0	0	0	0	508	509	0	0	
10	0	0	0	0	510	508	0	0	
11	0	0	0	0	512	506	0	0	
12	0	0	0	0	509	508	0	0	
13	0	0	0	0	511	508	0	0	
14	0	0	0	0	510	507	0	0	
15	0	0	0	0	510	508	0	0	
0	0	0	0	0	513	507	0	0	
1	0	0	0	0	513	509	0	0	
2	0	0	0	0	512	509	0	0	
3	0	0	0	0	516	508	0	0	
4	0	0	0	0	512	508	0	0	
5	0	0	0	0	514	508	0	0	
6	0	0	0	0	511	507	0	0	
7	0	0	0	0	514	508	0	0	
8	0	0	0	0	513	509	0	0	
9	0	0	0	0	509	509	0	0	
10	0	0	0	0	510	508	0	0	
11	0	0	0	0	508	507	0	0	
12	0	0	0	0	510	508	0	0	
13	0	0	0	0	508	508	0	0	
14	0	0	0	0	508	507	0	0	
15	0	0	0	0	510	508	0	0	
0	0	0	0	0	509	509	0	0	
1	0	0	0	0	508	507	0	0	
2	0	0	0	0	511	508	0	0	
3	0	0	0	0	512	505	0	0	
4	0	0	0	0	510	508	0	0	
5	0	0	0	0	514	509	0	0	
6	0	0	0	0	513	510	0	0	
7	0	0	0	0	515	507	0	0	
8	0	0	0	0	512	508	0	0	
9	0	0	0	0	516	510	0	0	
10	0	0	0	0	514	509	0	0	
11	0	0	0	0	513	508	0	0	
12	0	0	0	0	513	509	0	0	
13	0	0	0	0	510	508	0	0	
14	0	0	0	0	512	508	0	0	
15	0	0	0	0	508	506	0	0	
0	0	0	0	0	508	507	0	0	
1	0	0	0	0	508	507	0	0	
2	0	0	0	0	508	508	0	0	
3	0	0	0	0	507	509	0	0	
4	0	0	0	0	510	507	0	0	
5	0	0	0	0	508	510	0	0	
6	0	0	0	0	512	508	0	0	
7	0	0	0	0	510	508	0	0	
8	0	0	0	0	512	507	0	0	
9	0	0	0	0	511	508	0	0	
10	0	0	0	0	512	511	0	0	
11	0	0	0	0	514	508	0	0	
12	0	0	0	0	514	507	0	0	
13	0	0	0	0	516	510	0	0	
14	0	0	0	0	515	509	0	0	
15	0	0	0	0	511	508	0	0	
0	0	0	0	0	510	509	0	0	
1	0	0	0	0	510	506	0	0	
2	0	0	0	0	511	508	0	0	
3	0	0	0	0	510	507	0	0	
4	0	0	0	0	509	509	0	0	
5	0	0	0	0	509	506	0	0	
6	0	0	0	0	509	509	0	0	
7	0	0	0	0	507	508	0	0	
8	0	0	0	0	508	507	0	0	
9	0	0	0	0	512	509	0	0	
10	0	0	0	0	507	507	0	0	
11	0	0	0	0	512	508	0	0	
12	0	0	0	0	513	508	0	0	
13	0	0	0	0	512	509	0	0	
14	0	0	0	0	514	509	0	0	
15	0	0	0	0	512	508	0	0	
0	0	0	0	0	514	508	0	0	
1	0	0	0	0	515	511	0	0	
2	0	0	0	0	515	509	0	0	
3	0	0	0	0	513	509	0	0	
4	0	0	0	0	511	507	0	0	
5	0	0	0	0	510	508	0	0	
6	0	0	0	0	511	507	0	0	
7	0	0	0	0	511	506	0	0	
8	0	0	0	0	509	505	0	0	
9	0	0	0	0	507	508	0	0	
10	0	0	0	0	510	507	0	0	
11	0	0	0	0	509	508	0	0	
12	0	0	0	0	510	509	0	0	
13	0	0	0	0	511	507	0	0	
14	0	0	0	0	511	507	0	0	
15	0	0	0	0	511	509	0	0	
0	0	0	0	0	511	507	0	0	
1	0	0	0	0	513	509	0	0	
2	0	0	0	0	513	507	0	0	
3	0	0	0	0	515	509	0	0	
4	0	0	0	0	512	508	0	0	
5	0	0	0	0	513	511	0	0	
6	0	0	0	0	512	510	0	0	
7	0	0	0	0	513	509	0	0	
8	0	0	0	0	513	508	0	0	
9	0	0	0	0	511	508	0	0	
10	0	0	0	0	509	508	0	0	
11	0	0	0	0	509	508	0	0	
12	0	0	0	0	509	508	0	0	
13	0	0	0	0	509	505	0	0	
14	0	0	0	0	508	507	0	0	
15	0	0	0	0	510	507	0	0	
0	0	0	0	0	507	508	0	0	
1	0	0	0	0	510	508	0	0	
2	0	0	0	0	510	511	0	0	
3	0	0	0	0	511	508	0	0	
4	0	0	0	0	513	508	0	0	
5	0	0	0	0	513	507	0	0	
6	0	0	0	0	515	509	0	0	
7	0	0	0	0	512	508	0	0	
8	0	0	0	0	513	511	0	0	
9	0	0	0	0	513	509	0	0	
10	0	0	0	0	512	508	0	0	
11	0	0	0	0	512	508	0	0	
12	0	0	0	0	513	509	0	0	
13	0	0	0	0	509	508	0	0	
14	0	0	0	0	511	508	0	0	
15	0	0	0	0	508	507	0	0	
0	0	0	0	0	506	507	0	0	
1	0	0	0	0	508	508	0	0	
2	0	0	0	0	512	508	0	0	
3	0	0	0	0	510	508	0	0	
4	0	0	0	0	512	508	0	0	
5	0	0	0	0	511	507	0	0	
6	0	0	0	0	510	508	0	0	
7	0	0	0	0	511	508	0	0	
8	0	0	0	0	512	506	0	0	
9	0	0	0	0	511	508	0	0	
10	0	0	0	0	513	508	0	0	
11	0	0	0	0	515	508	0	0	
12	0	0	0	0	512	508	0	0	
13	0	0	0	0	514	510	0	0	
14	0	0	0	0	514	507	0	0	
15	0	0	0	0	513	510	0	0	
0	0	0	0	0	512	508	0	0	
1	0	0	0	0	511	506	0	0	
2	0	0	0	0	509	509	0	0	
3	0	0	0	0	508	509	0	0	
4	0	0	0	0	509	509	0	0	
5	0	0	0	0	510	509	0	0	
6	0	0	0	0	507	508	0	0	
7	0	0	0	0	508	507	0	0	
8	0	0	0	0	511	507	0	0	
9	0	0	0	0	511	509	0	0	
10	0	0	0	0	507	508	0	0	
11	0	0	0	0	511	507	0	0	
12	0	0	0	0	513	508	0	0	
13	0	0	0	0	512	509	0	0	
14	0	0	0	0	513	508	0	0	
15	0	0	0	0	514	508	0	0	
0	0	0	0	0	515	510	0	0	
1	0	0	0	0	515	509	0	0	
2	0	0	0	0	512	510	0	0	
3	0	0	0	0	513	508	0	0	
4	0	0	0	0	514	507	0	0	
5	0	0	0	0	510	511	0	0	
6	0	0	0	0	511	506	0	0	
7	0	0	0	0	509	507	0	0	
8	0	0	0	0	509	507	0	0	
9	0	0	0	0	507	508	0	0	
10	0	0	0	0	507	508	0	0	
11	0	0	0	0	508	507	0	0	
12	0	0	0	0	510	506	0	0	
13	0	0	0	0	510	510	0	0	
14	0	0	0	0	512	507	0	0	
15	0	0	0	0	512	507	0	0	
0	0	0	0	0	512	508	0	0	
1	0	0	0	0	512	510	0	0	
2	0	0	0	0	513	509	0	0	
3	0	0	0	0	512	510	0	0	
4	0	0	0	0	513	509	0	0	
5	0	0	0	0	515	508	0	0	
6	0	0	0	0	513	506	0	0	
7	0	0	0	0	510	507	0	0	
8	0	0	0	0	511	508	0	0	
9	0	0	0	0	512	510	0	0	
10	0	0	0	0	510	508	0	0	
11	0	0	0	0	511	507	0	0	
12	0	0	0	0	508	509	0	0	
13	0	0	0	0	508	508	0	0	
14	0	0	0	0	509	507	0	0	
15	0	0	0	0	508	508	0	0	
0	0	0	0	0	511	510	0	0	
1	0	0	0	0	510	506	0	0	
2	0	0	0	0	511	508	0	0	
3	0	0	0	0	512	507	0	0	
4	0	0	0	0	513	507	0	0	
5	0	0	0	0	512	509	0	0	
6	0	0	0	0	512	510	0	0	
7	0	0	0	0	514	509	0	0	
8	0	0	0	0	514	509	0	0	
9	0	0	0	0	512	508	0	0	
10	0	0	0	0	511	509	0	0	
11	0	0	0	0	511	508	0	0	
12	0	0	0	0	511	508	0	0	
13	0	0	0	0	510	507	0	0	
14	0	0	0	0	510	508	0	0	
15	0	0	0	0	510	507	0	0	
0	0	0	0	0	508	509	0	0	
1	0	0	0	0	510	508	0	0	
2	0	0	0	0	511	507	0	0	
3	0	0	0	0	508	508	0	0	
4	0	0	0	0	508	509	0	0	
5	0	0	0	0	511	508	0	0	
6	0	0	0	0	511	506	0	0	
7	0	0	0	0	511	508	0	0	
8	0	0	0	0	513	509	0	0	
9	0	0	0	0	513	510	0	0	
10	0	0	0	0	513	510	0	0	
11	0	0	0	0	512	508	0	0	
12	0	0	0	0	513	509	0	0	
13	0	0	0	0	513	508	0	0	
14	0	0	0	0	511	508	0	0	
15	0	0	0	0	511	508	0	0	
0	0	0	0	0	512	508	0	0	
1	0	0	0	0	511	506	0	0	
2	0	0	0	0	508	508	0	0	
3	0	0	0	0	506	507	0	0	
4	0	0	0	0	508	508	0	0	
5	0	0	0	0	510	508	0	0	
6	0	0	0	0	509	506	0	0	
7	0	0	0	0	511	507	0	0	
8	0	0	0	0	509	507	0	0	
9	0	0	0	0	511	509	0	0	
10	0	0	0	0	512	509	0	0	
11	0	0	0	0	512	506	0	0	
12	0	0	0	0	511	508	0	0	
13	0	0	0	0	512	508	0	0	
14	0	0	0	0	514	511	0	0	
15	0	0	0	0	515	508	0	0	
0	0	0	0	0	512	508	0	0	
1	0	0	0	0	515	507	0	0	
2	0	0	0	0	513	508	0	0	
3	0	0	0	0	513	508	0	0	
4	0	0	0	0	513	509	0	0	
5	0	0	0	0	512	509	0	0	
6	0	0	0	0	509	505	0	0	
7	0	0	0	0	507	508	0	0	
8	0	0	0	0	507	510	0	0	
9	0	0	0	0	508	510	0	0	
10	0	0	0	0	510	508	0	0	
11	0	0	0	0	508	508	0	0	
12	0	0	0	0	509	508	0	0	
13	0	0	0	0	510	509	0	0	
14	0	0	0	0	511	508	0	0	
15	0	0	0	0	511	507	0	0	
0	0	0	0	0	512	509	0	0	
1	0	0	0	0	512	509	0	0	
2	0	0	0	0	511	507	0	0	
3	0	0	0	0	512	509	0	0	
4	0	0	0	0	514	508	0	0	
5	0	0	0	0	511	508	0	0	
6	0	0	0	0	513	507	0	0	
7	0	0	0	0	513	507	0	0	
8	0	0	0	0	511	508	0	0	
9	0	0	0	0	510	508	0	0	
10	0	0	0	0	509	508	0	0	
11	0	0	0	0	507	508	0	0	
12	0	0	0	0	508	505	0	0	
13	0	0	0	0	510	507	0	0	
14	0	0	0	0	508	507	0	0	
15	0	0	0	0	511	508	0	0	
0	0	0	0	0	510	509	0	0	
1	0	0	0	0	513	509	0	0	
2	0	0	0	0	511	508	0	0	
3	0	0	0	0	513	507	0	0	
4	0	0	0	0	513	508	0	0	
5	0	0	0	0	513	508	0	0	
6	0	0	0	0	515	507	0	0	
7	0	0	0	0	515	509	0	0	
8	0	0	0	0	516	511	0	0	
9	0	0	0	0	515	508	0	0	
10	0	0	0	0	512	508	0	0	
11	0	0	0	0	511	509	0	0	
12	0	0	0	0	511	508	0	0	
13	0	0	0	0	510	506	0	0	
14	0	0	0	0	510	508	0	0	
15	0	0	0	0	508	507	0	0	
0	0	0	0	0	508	507	0	0	
1	0	0	0	0	509	508	0	0	
2	0	0	0	0	509	509	0	0	
3	0	0	0	0	509	507	0	0	
4	0	0	0	0	509	507	0	0	
5	0	0	0	0	512	508	0	0	
6	0	0	0	0	511	511	0	0	
7	0	0	0	0	511	507	0	0	
8	0	0	0	0	513	508	0	0	
9	0	0	0	0	511	509	0	0	
10	0	0	0	0	514	505	0	0	
11	0	0	0	0	514	507	0	0	
12	0	0	0	0	512	509	0	0	
13	0	0	0	0	514	507	0	0	
14	0	0	0	0	512	508	0	0	
15	0	0	0	0	511	508	0	0	
0	0	0	0	0	515	509	0	0	
1	0	0	0	0	511	510	0	0	
2	0	0	0	0	510	507	0	0	
3	0	0	0	0	508	508	0	0	
4	0	0	0	0	509	507	0	0	
5	0	0	0	0	510	508	0	0	
6	0	0	0	0	508	507	0	0	
7	0	0	0	0	510	508	0	0	
8	0	0	0	0	511	508	0	0	
9	0	0	0	0	509	509	0	0	
10	0	0	0	0	511	507	0	0	
11	0	0	0	0	512	507	0	0	
12	0	0	0	0	511	509	0	0	
13	0	0	0	0	511	508	0	0	
14	0	0	0	0	512	509	0	0	
15	0	0	0	0	513	507	0	0	
0	0	0	0	0	513	509	0	0	
1	0	0	0	0	514	508	0	0	
2	0	0	0	0	511	508	0	0	
3	0	0	0	0	512	508	0	0	
4	0	0	0	0	512	507	0	0	
5	0	0	0	0	510	507	0	0	
6	0	0	0	0	511	508	0	0	
7	0	0	0	0	512	509	0	0	
8	0	0	0	0	508	509	0	0	
9	0	0	0	0	510	509	0	0	
10	0	0	0	0	510	508	0	0	
11	0	0	0	0	509	508	0	0	
12	0	0	0	0	511	506	0	0	
13	0	0	0	0	509	506	0	0	
14	0	0	0	0	512	508	0	0	
15	0	0	0	0	510	507	0	0	
0	0	0	0	0	512	510	0	0	
1	0	0	0	0	511	506	0	0	
2	0	0	0	0	514	508	0	0	
3	0	0	0	0	514	508	0	0	
4	0	0	0	0	512	508	0	0	
5	0	0	0	0	513	508	0	0	
6	0	0	0	0	512	508	0	0	
7	0	0	0	0	511	508	0	0	
8	0	0	0	0	512	508	0	0	
9	0	0	0	0	512	509	0	0	
10	0	0	0	0	510	507	0	0	
11	0	0	0	0	511	506	0	0	
12	0	0	0	0	508	506	0	0	
13	0	0	0	0	508	507	0	0	
14	0	0	0	0	510	507	0	0	
15	0	0	0	0	510	506	0	0	
0	0	0	0	0	509	508	0	0	
1	0	0	0	0	510	507	0	0	
2	0	0	0	0	510	508	0	0	
3	0	0	0	0	511	508	0	0	
4	0	0	0	0	511	508	0	0	
5	0	0	0	0	511	510	0	0	
6	0	0	0	0	514	509	0	0	
7	0	0	0	0	514	509	0	0	
8	0	0	0	0	513	508	0	0	
9	0	0	0	0	512	508	0	0	
10	0	0	0	0	514	507	0	0	
11	0	0	0	0	510	508	0	0	
12	0	0	0	0	511	508	0	0	
13	0	0	0	0	510	510	0	0	
14	0	0	0	0	510	508	0	0	
15	0	0	0	0	511	507	0	0	
0	0	0	0	0	509	507	0	0	
1	0	0	0	0	510	507	0	0	
2	0	0	0	0	508	507	0	0	
3	0	0	0	0	509	508	0	0	
4	0	0	0	0	510	507	0	0	
5	0	0	0	0	510	508	0	0	
6	0	0	0	0	512	508	0	0	
7	0	0	0	0	511	508	0	0	
8	0	0	0	0	510	508	0	0	
9	0	0	0	0	512	508	0	0	
10	0	0	0	0	513	507	0	0	
11	0	0	0	0	513	508	0	0	
12	0	0	0	0	511	511	0	0	
13	0	0	0	0	513	509	0	0	
14	0	0	0	0	512	508	0	0	
15	0	0	0	0	511	509	0	0	
0	0	0	0	0	512	509	0	0	
1	0	0	0	0	511	507	0	0	
2	0	0	0	0	511	508	0	0	
3	0	0	0	0	509	507	0	0	
4	0	0	0	0	508	507	0	0	
5	0	0	0	0	508	508	0	0	
6	0	0	0	0	510	508	0	0	
7	0	0	0	0	510	508	0	0	
8	0	0	0	0	511	509	0	0	
9	0	0	0	0	511	507	0	0	
10	0	0	0	0	511	507	0	0	
11	0	0	0	0	511	508	0	0	
12	0	0	0	0	512	509	0	0	
13	0	0	0	0	513	508	0	0	
14	0	0	0	0	514	509	0	0	
15	0	0	0	0	513	510	0	0	
0	0	0	0	0	514	509	0	0	
1	0	0	0	0	514	509	0	0	
2	0	0	0	0	515	507	0	0	
3	0	0	0	0	512	508	0	0	
4	0	0	0	0	512	507	0	0	
5	0	0	0	0	510	506	0	0	
6	0	0	0	0	510	506	0	0	
7	0	0	0	0	507	508	0	0	
8	0	0	0	0	508	507	0	0	
9	0	0	0	0	508	509	0	0	
10	0	0	0	0	508	509	0	0	
11	0	0	0	0	509	508	0	0	
12	0	0	0	0	510	508	0	0	
13	0	0	0	0	510	509	0	0	
14	0	0	0	0	510	508	0	0	
15	0	0	0	0	510	506	0	0	
0	0	0	0	0	512	507	0	0	
1	0	0	0	0	513	509	0	0	
2	0	0	0	0	512	508	0	0	
3	0	0	0	0	513	509	0	0	
4	0	0	0	0	512	508	0	0	
5	0	0	0	0	515	507	0	0	
6	0	0	0	0	514	508	0	0	
7	0	0	0	0	514	510	0	0	
8	0	0	0	0	512	508	0	0	
9	0	0	0	0	511	507	0	0	
10	0	0	0	0	509	511	0	0	
11	0	0	0	0	508	505	0	0	
12	0	0	0	0	507	507	0	0	
13	0	0	0	0	508	507	0	0	
14	0	0	0	0	510	507	0	0	
15	0	0	0	0	509	505	0	0	
0	0	0	0	0	511	509	0	0	
1	0	0	0	0	510	507	0	0	
2	0	0	0	0	511	508	0	0	
3	0	0	0	0	512	508	0	0	
4	0	0	0	0	512	507	0	0	
5	0	0	0	0	512	508	0	0	
6	0	0	0	0	513	508	0	0	
7	0	0	0	0	512	510	0	0	
8	0	0	0	0	513	509	0	0	
9	0	0	0	0	515	508	0	0	
10	0	0	0	0	512	508	0	0	
11	0	0	0	0	511	508	0	0	
12	0	0	0	0	510	508	0	0	
13	0	0	0	0	510	507	0	0	
14	0	0	0	0	510	507	0	0	
15	0	0	0	0	507	507	0	0	
0	0	0	0	0	508	507	0	0	
1	0	0	0	0	508	507	0	0	
2	0	0	0	0	506	507	0	0	
3	0	0	0	0	509	509	0	0	
4	0	0	0	0	511	509	0	0	
5	0	0	0	0	512	508	0	0	
6	0	0	0	0	514	507	0	0	
7	0	0	0	0	512	508	0	0	
8	0	0	0	0	511	508	0	0	
9	0	0	0	0	512	506	0	0	
10	0	0	0	0	513	511	0	0	
11	0	0	0	0	516	506	0	0	
12	0	0	0	0	513	507	0	0	
13	0	0	0	0	513	510	0	0	
14	0	0	0	0	512	509	0	0	
15	0	0	0	0	512	508	0	0	
0	0	0	0	0	512	508	0	0	
1	0	0	0	0	512	508	0	0	
2	0	0	0	0	510	509	0	0	
3	0	0	0	0	509	508	0	0	
4	0	0	0	0	510	508	0	0	
5	0	0	0	0	507	507	0	0	
6	0	0	0	0	507	507	0	0	
7	0	0	0	0	509	507	0	0	
8	0	0	0	0	511	508	0	0	
9	0	0	0	0	511	507	0	0	
10	0	0	0	0	511	508	0	0	
11	0	0	0	0	511	505	0	0	
12	0	0	0	0	513	507	0	0	
13	0	0	0	0	513	508	0	0	
14	0	0	0	0	513	509	0	0	
15	0	0	0	0	512	509	0	0	
0	0	0	0	0	511	509	0	0	
1	0	0	0	0	513	508	0	0	
2	0	0	0	0	514	509	0	0	
3	0	0	0	0	512	508	0	0	
4	0	0	0	0	511	508	0	0	
5	0	0	0	0	512	510	0	0	
6	0	0	0	0	512	508	0	0	
7	0	0	0	0	508	508	0	0	
8	0	0	0	0	509	509	0	0	
9	0	0	0	0	508	506	0	0	
10	0	0	0	0	508	506	0	0	
11	0	0	0	0	509	508	0	0	
12	0	0	0	0	511	510	0	0	
13	0	0	0	0	512	508	0	0	
14	0	0	0	0	509	507	0	0	
15	0	0	0	0	512	507	0	0	
0	0	0	0	0	512	508	0	0	
1	0	0	0	0	511	509	0	0	
2	0	0	0	0	515	508	0	0	
3	0	0	0	0	513	506	0	0	
4	0	0	0	0	515	509	0	0	
5	0	0	0	0	514	509	0	0	
6	0	0	0	0	510	508	0	0	
7	0	0	0	0	511	510	0	0	
8	0	0	0	0	512	508	0	0	
9	0	0	0	0	510	507	0	0	
10	0	0	0	0	510	505	0	0	
11	0	0	0	0	510	507	0	0	
12	0	0	0	0	510	508	0	0	
13	0	0	0	0	511	507	0	0	
14	0	0	0	0	509	506	0	0	
15	0	0	0	0	508	506	0	0	
0	0	0	0	0	509	510	0	0	
1	0	0	0	0	509	509	0	0	
2	0	0	0	0	511	507	0	0	
3	0	0	0	0	511	510	0	0	
4	0	0	0	0	512	507	0	0	
5	0	0	0	0	512	509	0	0	
6	0	0	0	0	513	509	0	0	
7	0	0	0	0	511	508	0	0	
8	0	0	0	0	512	506	0	0	
9	0	0	0	0	512	510	0	0	
10	0	0	0	0	513	508	0	0	
11	0	0	0	0	515	507	0	0	
12	0	0	0	0	511	507	0	0	
13	0	0	0	0	510	506	0	0	
14	0	0	0	0	511	508	0	0	
15	0	0	0	0	510	508	0	0	
0	0	0	0	0	509	507	0	0	
1	0	0	0	0	511	508	0	0	
2	0	0	0	0	507	507	0	0	
3	0	0	0	0	510	507	0	0	
4	0	0	0	0	509	507	0	0	
5	0	0	0	0	510	508	0	0	
6	0	0	0	0	512	508	0	0	
7	0	0	0	0	511	508	0	0	
8	0	0	0	0	512	506	0	0	
9	0	0	0	0	513	508	0	0	
10	0	0	0	0	513	507	0	0	
11	0	0	0	0	512	509	0	0	
12	0	0	0	0	512	509	0	0	
13	0	0	0	0	514	509	0	0	
14	0	0	0	0	514	508	0	0	
15	0	0	0	0	512	507	0	0	
0	0	0	0	0	512	510	0	0	
1	0	0	0	0	510	509	0	0	
2	0	0	0	0	510	507	0	0	
3	0	0	0	0	509	506	0	0	
4	0	0	0	0	510	507	0	0	
5	0	0	0	0	510	507	0	0	
6	0	0	0	0	510	505	0	0	
7	0	0	0	0	508	508	0	0	
8	0	0	0	0	508	509	0	0	
9	0	0	0	0	511	508	0	0	
10	0	0	0	0	513	509	0	0	
11	0	0	0	0	512	508	0	0	
12	0	0	0	0	512	508	0	0	
13	0	0	0	0	512	508	0	0	
14	0	0	0	0	513	508	0	0	
15	0	0	0	0	512	510	0	0	
0	0	0	0	0	511	508	0	0	
1	0	0	0	0	514	510	0	0	
2	0	0	0	0	512	508	0	0	
3	0	0	0	0	512	510	0	0	
4	0	0	0	0	512	509	0	0	
5	0	0	0	0	509	508	0	0	
6	0	0	0	0	511	508	0	0	
7	0	0	0	0	510	505	0	0	
8	0	0	0	0	509	508	0	0	
9	0	0	0	0	508	507	0	0	
10	0	0	0	0	508	506	0	0	
11	0	0	0	0	508	505	0	0	
12	0	0	0	0	509	508	0	0	
13	0	0	0	0	511	509	0	0	
14	0	0	0	0	510	509	0	0	
15	0	0	0	0	515	508	0	0	
0	0	0	0	0	512	508	0	0	
1	0	0	0	0	512	508	0	0	
2	0	0	0	0	513	508	0	0	
3	0	0	0	0	513	508	0	0	
4	0	0	0	0	513	509	0	0	
5	0	0	0	0	513	510	0	0	
6	0	0	0	0	512	507	0	0	
7	0	0	0	0	512	510	0	0	
8	0	0	0	0	511	510	0	0	
9	0	0	0	0	511	510	0	0	
10	0	0	0	0	508	510	0	0	
11	0	0	0	0	511	507	0	0	
12	0	0	0	0	510	506	0	0	
13	0	0	0	0	509	507	0	0	
14	0	0	0	0	508	504	0	0	
15	0	0	0	0	510	505	0	0	
0	0	0	0	0	508	506	0	0	
1	0	0	0	0	510	508	0	0	
2	0	0	0	0	512	509	0	0	
3	0	0	0	0	511	509	0	0	
4	0	0	0	0	513	508	0	0	
5	0	0	0	0	512	508	0	0	
6	0	0	0	0	512	510	0	0	
7	0	0	0	0	512	508	0	0	
8	0	0	0	0	512	508	0	0	
9	0	0	0	0	514	508	0	0	
10	0	0	0	0	512	510	0	0	
11	0	0	0	0	513	508	0	0	
12	0	0	0	0	512	507	0	0	
13	0	0	0	0	510	506	0	0	
14	0	0	0	0	509	508	0	0	
15	0	0	0	0	507	507	0	0	
0	0	0	0	0	508	507	0	0	
1	0	0	0	0	508	508	0	0	
2	0	0	0	0	511	508	0	0	
3	0	0	0	0	507	507	0	0	
4	0	0	0	0	511	507	0	0	
5	0	0	0	0	511	510	0	0	
6	0	0	0	0	511	508	0	0	
7	0	0	0	0	511	507	0	0	
8	0	0	0	0	511	507	0	0	
9	0	0	0	0	512	507	0	0	
10	0	0	0	0	512	511	0	0	
11	0	0	0	0	512	511	0	0	
12	0	0	0	0	512	509	0	0	
13	0	0	0	0	514	509	0	0	
14	0	0	0	0	516	508	0	0	
15	0	0	0	0	511	505	0	0	
0	0	0	0	0	511	506	0	0	
1	0	0	0	0	512	509	0	0	
2	0	0	0	0	509	510	0	0	
3	0	0	0	0	509	508	0	0	
4	0	0	0	0	509	507	0	0	
5	0	0	0	0	511	507	0	0	
6	0	0	0	0	509	509	0	0	
7	0	0	0	0	509	505	0	0	
8	0	0	0	0	510	507	0	0	
9	0	0	0	0	510	509	0	0	
10	0	0	0	0	510	509	0	0	
11	0	0	0	0	514	509	0	0	
12	0	0	0	0	513	506	0	0	
13	0	0	0	0	512	508	0	0	
14	0	0	0	0	515	509	0	0	
15	0	0	0	0	512	510	0	0	
0	0	0	0	0	512	510	0	0	
1	0	0	0	0	513	510	0	0	
2	0	0	0	0	512	508	0	0	
3	0	0	0	0	511	508	0	0	
4	0	0	0	0	511	505	0	0	
5	0	0	0	0	511	508	0	0	
6	0	0	0	0	510	505	0	0	
7	0	0	0	0	509	508	0	0	
8	0	0	0	0	510	508	0	0	
9	0	0	0	0	507	507	0	0	
10	0	0	0	0	510	509	0	0	
11	0	0	0	0	509	508	0	0	
12	0	0	0	0	508	508	0	0	
13	0	0	0	0	513	511	0	0	
14	0	0	0	0	511	510	0	0	
15	0	0	0	0	511	506	0	0	
0	0	0	0	0	511	508	0	0	
1	0	0	0	0	515	508	0	0	
2	0	0	0	0	514	511	0	0	
3	0	0	0	0	512	510	0	0	
4	0	0	0	0	513	509	0	0	
5	0	0	0	0	513	508	0	0	
6	0	0	0	0	514	508	0	0	
7	0	0	0	0	513	508	0	0	
8	0	0	0	0	512	508	0	0	
9	0	0	0	0	509	505	0	0	
10	0	0	0	0	508	507	0	0	
11	0	0	0	0	508	506	0	0	
12	0	0	0	0	510	508	0	0	
13	0	0	0	0	510	507	0	0	
14	0	0	0	0	510	508	0	0	
15	0	0	0	0	510	508	0	0	
0	0	0	0	0	509	508	0	0	
1	0	0	0	0	511	509	0	0	
2	0	0	0	0	511	508	0	0	
3	0	0	0	0	510	508	0	0	
4	0	0	0	0	511	507	0	0	
5	0	0	0	0	514	508	0	0	
6	0	0	0	0	513	508	0	0	
7	0	0	0	0	512	508	0	0	
8	0	0	0	0	513	508	0	0	
9	0	0	0	0	512	510	0	0	
10	0	0	0	0	515	508	0	0	
11	0	0	0	0	512	508	0	0	
12	0	0	0	0	512	510	0	0	
13	0	0	0	0	508	510	0	0	
14	0	0	0	0	508	507	0	0	
15	0	0	0	0	508	508	0	0	
0	0	0	0	0	510	507	0	0	
1	0	0	0	0	508	506	0	0	
2	0	0	0	0	508	508	0	0	
3	0	0	0	0	508	508	0	0	
4	0	0	0	0	509	508	0	0	
5	0	0	0	0	510	507	0	0	
6	0	0	0	0	512	508	0	0	
7	0	0	0	0	512	508	0	0	
8	0	0	0	0	511	510	0	0	
9	0	0	0	0	513	508	0	0	
10	0	0	0	0	513	510	0	0	
11	0	0	0	0	512	509	0	0	
12	0	0	0	0	511	508	0	0	
13	0	0	0	0	512	510	0	0	
14	0	0	0	0	511	507	0	0	
15	0	0	0	0	511	507	0	0	
0	0	0	0	0	513	508	0	0	
1	0	0	0	0	511	508	0	0	
2	0	0	0	0	510	508	0	0	
3	0	0	0	0	509	508	0	0	
4	0	0	0	0	509	507	0	0	
5	0	0	0	0	508	508	0	0	
6	0	0	0	0	510	507	0	0	
7	0	0	0	0	510	508	0	0	
8	0	0	0	0	514	508	0	0	
9	0	0	0	0	511	508	0	0	
10	0	0	0	0	511	508	0	0	
11	0	0	0	0	512	507	0	0	
12	0	0	0	0	513	508	0	0	
13	0	0	0	0	513	508	0	0	
14	0	0	0	0	511	509	0	0	
15	0	0	0	0	512	509	0	0	
0	0	0	0	0	513	505	0	0	
1	0	0	0	0	513	509	0	0	
2	0	0	0	0	512	509	0	0	
3	0	0	0	0	511	507	0	0	
4	0	0	0	0	511	509	0	0	
5	0	0	0	0	511	508	0	0	
6	0	0	0	0	510	510	0	0	
7	0	0	0	0	509	507	0	0	
8	0	0	0	0	509	507	0	0	
9	0	0	0	0	510	508	0	0	
10	0	0	0	0	509	507	0	0	
11	0	0	0	0	512	507	0	0	
12	0	0	0	0	510	507	0	0	
13	0	0	0	0	512	509	0	0	
14	0	0	0	0	512	509	0	0	
15	0	0	0	0	511	508	0	0	
0	0	0	0	0	511	510	0	0	
1	0	0	0	0	512	507	0	0	
2	0	0	0	0	512	507	0	0	
3	0	0	0	0	514	508	0	0	
4	0	0	0	0	512	508	0	0	
5	0	0	0	0	514	509	0	0	
6	0	0	0	0	512	507	0	0	
7	0	0	0	0	511	508	0	0	
8	0	0	0	0	511	510	0	0	
9	0	0	0	0	510	509	0	0	
10	0	0	0	0	510	508	0	0	
11	0	0	0	0	507	508	0	0	
12	0	0	0	0	509	507	0	0	
13	0	0	0	0	509	509	0	0	
14	0	0	0	0	507	508	0	0	
15	0	0	0	0	509	507	0	0	
0	0	0	0	0	510	506	0	0	
1	0	0	0	0	511	507	0	0	
2	0	0	0	0	510	508	0	0	
3	0	0	0	0	511	505	0	0	
4	0	0	0	0	512	508	0	0	
5	0	0	0	0	512	511	0	0	
6	0	0	0	0	513	509	0	0	
7	0	0	0	0	516	510	0	0	
8	0	0	0	0	512	508	0	0	
9	0	0	0	0	512	510	0	0	
10	0	0	0	0	511	508	0	0	
11	0	0	0	0	512	508	0	0	
12	0	0	0	0	512	509	0	0	
13	0	0	0	0	511	507	0	0	
14	0	0	0	0	510	507	0	0	
15	0	0	0	0	509	508	0	0	
0	0	0	0	0	509	508	0	0	
1	0	0	0	0	510	507	0	0	
2	0	0	0	0	510	508	0	0	
3	0	0	0	0	509	508	0	0	
4	0	0	0	0	508	507	0	0	
5	0	0	0	0	512	508	0	0	
6	0	0	0	0	510	507	0	0	
7	0	0	0	0	511	507	0	0	
8	0	0	0	0	512	507	0	0	
9	0	0	0	0	512	508	0	0	
10	0	0	0	0	511	511	0	0	
11	0	0	0	0	512	510	0	0	
12	0	0	0	0	514	508	0	0	
13	0	0	0	0	513	508	0	0	
14	0	0	0	0	514	508	0	0	
15	0	0	0	0	512	509	0	0	
0	0	0	0	0	512	507	0	0	
1	0	0	0	0	510	507	0	0	
2	0	0	0	0	508	507	0	0	
3	0	0	0	0	511	510	0	0	
4	0	0	0	0	508	506	0	0	
5	0	0	0	0	511	506	0	0	
6	0	0	0	0	509	507	0	0	
7	0	0	0	0	508	508	0	0	
8	0	0	0	0	508	509	0	0	
9	0	0	0	0	512	508	0	0	
10	0	0	0	0	510	507	0	0	
11	0	0	0	0	510	508	0	0	
12	0	0	0	0	512	508	0	0	
13	0	0	0	0	513	509	0	0	
14	0	0	0	0	514	509	0	0	
