# OpenSignals Text File Format. Version 1
# {"20:18:06:13:21:78": {"position": 0, "device": "bitalino_rev", "device name": "20:18:06:13:21:78", "device connection": "BTH20:18:06:13:21:78", "sampling rate": 1000, "resolution": [4, 1, 1, 1, 1, 10, 10, 10, 10], "firmware version": 1281, "comments": "", "keywords": "", "mode": 0, "sync interval": 2, "date": "2023-5-29", "time": "18:48:55.824", "channels": [1, 2, 3, 4], "sensor": ["RAW", "RAW", "EMGBITREV", "EMGBITREV"], "label": ["A1", "A2", "A3", "A4"], "column": ["nSeq", "I1", "I2", "O1", "O2", "A1", "A2", "A3", "A4"], "special": [{}, {}, {}, {}], "digital IO": [0, 0, 1, 1]}}
# EndOfHeader
0	0	0	0	0	507	508	0	0			
1	0	0	0	0	508	507	0	0			
2	0	0	0	0	510	508	0	0			
3	0	0	0	0	516	510	0	0			
4	0	0	0	0	517	511	0	0			
5	0	0	0	0	513	508	0	0			
6	0	0	0	0	510	510	0	0			
7	0	0	0	0	508	507	0	0			
8	0	0	0	0	519	507	0	0			
9	0	0	0	0	517	510	0	0			
10	0	0	0	0	516	507	0	0			
11	0	0	0	0	513	506	0	0			
12	0	0	0	0	511	507	0	0			
13	0	0	0	0	507	505	0	0			
14	0	0	0	0	509	508	0	0			
15	0	0	0	0	507	506	0	0			
0	0	0	0	0	507	507	0	0			
1	0	0	0	0	504	507	0	0			
2	0	0	0	0	505	507	0	0			
3	0	0	0	0	508	507	0	0			
4	0	0	0	0	507	508	0	0			
5	0	0	0	0	510	510	0	0			
6	0	0	0	0	513	508	0	0			
7	0	0	0	0	513	508	0	0			
8	0	0	0	0	515	510	0	0			
9	0	0	0	0	514	508	0	0			
10	0	0	0	0	513	508	0	0			
11	0	0	0	0	514	510	0	0			
12	0	0	0	0	516	511	0	0			
13	0	0	0	0	516	509	0	0			
14	0	0	0	0	511	507	0	0			
15	0	0	0	0	511	507	0	0			
0	0	0	0	0	510	508	0	0			
1	0	0	0	0	509	506	0	0			
2	0	0	0	0	505	508	0	0			
3	0	0	0	0	504	505	0	0			
4	0	0	0	0	503	505	0	0			
5	0	0	0	0	508	508	0	0			
6	0	0	0	0	509	508	0	0			
7	0	0	0	0	510	508	0	0			
8	0	0	0	0	509	508	0	0			
9	0	0	0	0	509	509	0	0			
10	0	0	0	0	511	510	0	0			
11	0	0	0	0	512	508	0	0			
12	0	0	0	0	512	510	0	0			
13	0	0	0	0	512	509	0	0			
14	0	0	0	0	517	507	0	0			
15	0	0	0	0	517	508	0	0			
0	0	0	0	0	514	509	0	0			
1	0	0	0	0	514	508	0	0			
2	0	0	0	0	512	507	0	0			
3	0	0	0	0	511	508	0	0			
4	0	0	0	0	510	507	0	0			
5	0	0	0	0	508	507	0	0			
6	0	0	0	0	503	507	0	0			
7	0	0	0	0	505	508	0	0			
8	0	0	0	0	507	507	0	0			
9	0	0	0	0	503	508	0	0			
10	0	0	0	0	505	508	0	0			
11	0	0	0	0	507	508	0	0			
12	0	0	0	0	509	508	0	0			
13	0	0	0	0	512	508	0	0			
14	0	0	0	0	516	509	0	0			
15	0	0	0	0	516	510	0	0			
0	0	0	0	0	514	508	0	0			
1	0	0	0	0	515	507	0	0			
2	0	0	0	0	515	509	0	0			
3	0	0	0	0	516	508	0	0			
4	0	0	0	0	514	507	0	0			
5	0	0	0	0	514	507	0	0			
6	0	0	0	0	511	509	0	0			
7	0	0	0	0	511	508	0	0			
8	0	0	0	0	508	508	0	0			
9	0	0	0	0	505	506	0	0			
10	0	0	0	0	508	508	0	0			
11	0	0	0	0	510	506	0	0			
12	0	0	0	0	505	506	0	0			
13	0	0	0	0	504	507	0	0			
14	0	0	0	0	505	507	0	0			
15	0	0	0	0	506	508	0	0			
0	0	0	0	0	508	508	0	0			
1	0	0	0	0	511	510	0	0			
2	0	0	0	0	513	507	0	0			
3	0	0	0	0	514	508	0	0			
4	0	0	0	0	515	508	0	0			
5	0	0	0	0	513	508	0	0			
6	0	0	0	0	513	510	0	0			
7	0	0	0	0	517	510	0	0			
8	0	0	0	0	513	508	0	0			
9	0	0	0	0	512	508	0	0			
10	0	0	0	0	512	507	0	0			
11	0	0	0	0	513	507	0	0			
12	0	0	0	0	510	507	0	0			
13	0	0	0	0	509	508	0	0			
14	0	0	0	0	505	508	0	0			
15	0	0	0	0	507	508	0	0			
0	0	0	0	0	505	506	0	0			
1	0	0	0	0	504	506	0	0			
2	0	0	0	0	504	508	0	0			
3	0	0	0	0	510	507	0	0			
4	0	0	0	0	511	509	0	0			
5	0	0	0	0	510	510	0	0			
6	0	0	0	0	512	506	0	0			
7	0	0	0	0	515	508	0	0			
8	0	0	0	0	513	511	0	0			
9	0	0	0	0	511	508	0	0			
10	0	0	0	0	512	511	0	0			
11	0	0	0	0	516	511	0	0			
12	0	0	0	0	518	510	0	0			
13	0	0	0	0	513	505	0	0			
14	0	0	0	0	513	505	0	0			
15	0	0	0	0	513	507	0	0			
0	0	0	0	0	511	506	0	0			
1	0	0	0	0	508	507	0	0			
2	0	0	0	0	506	508	0	0			
3	0	0	0	0	500	508	0	0			
4	0	0	0	0	505	507	0	0			
5	0	0	0	0	504	507	0	0			
6	0	0	0	0	507	508	0	0			
7	0	0	0	0	510	508	0	0			
8	0	0	0	0	511	508	0	0			
9	0	0	0	0	513	507	0	0			
10	0	0	0	0	514	507	0	0			
11	0	0	0	0	514	510	0	0			
12	0	0	0	0	512	510	0	0			
13	0	0	0	0	515	508	0	0			
14	0	0	0	0	514	510	0	0			
15	0	0	0	0	516	508	0	0			
0	0	0	0	0	516	509	0	0			
1	0	0	0	0	514	508	0	0			
2	0	0	0	0	512	507	0	0			
3	0	0	0	0	512	508	0	0			
4	0	0	0	0	508	508	0	0			
5	0	0	0	0	504	507	0	0			
6	0	0	0	0	505	507	0	0			
7	0	0	0	0	512	508	0	0			
8	0	0	0	0	507	506	0	0			
9	0	0	0	0	503	506	0	0			
10	0	0	0	0	507	507	0	0			
11	0	0	0	0	507	508	0	0			
12	0	0	0	0	510	508	0	0			
13	0	0	0	0	510	508	0	0			
14	0	0	0	0	514	509	0	0			
15	0	0	0	0	513	509	0	0			
0	0	0	0	0	514	508	0	0			
1	0	0	0	0	515	508	0	0			
2	0	0	0	0	512	510	0	0			
3	0	0	0	0	515	509	0	0			
4	0	0	0	0	514	508	0	0			
5	0	0	0	0	513	507	0	0			
6	0	0	0	0	511	508	0	0			
7	0	0	0	0	512	507	0	0			
8	0	0	0	0	509	507	0	0			
9	0	0	0	0	509	508	0	0			
10	0	0	0	0	508	507	0	0			
11	0	0	0	0	509	508	0	0			
12	0	0	0	0	508	507	0	0			
13	0	0	0	0	504	508	0	0			
14	0	0	0	0	505	508	0	0			
15	0	0	0	0	504	510	0	0			
0	0	0	0	0	506	509	0	0			
1	0	0	0	0	508	508	0	0			
2	0	0	0	0	510	507	0	0			
3	0	0	0	0	513	508	0	0			
4	0	0	0	0	515	510	0	0			
5	0	0	0	0	511	507	0	0			
6	0	0	0	0	516	508	0	0			
7	0	0	0	0	514	507	0	0			
8	0	0	0	0	515	510	0	0			
9	0	0	0	0	514	510	0	0			
10	0	0	0	0	513	506	0	0			
11	0	0	0	0	511	507	0	0			
12	0	0	0	0	508	506	0	0			
13	0	0	0	0	510	511	0	0			
14	0	0	0	0	511	507	0	0			
15	0	0	0	0	510	508	0	0			
0	0	0	0	0	509	508	0	0			
1	0	0	0	0	506	507	0	0			
2	0	0	0	0	507	507	0	0			
3	0	0	0	0	506	507	0	0			
4	0	0	0	0	511	510	0	0			
5	0	0	0	0	507	509	0	0			
6	0	0	0	0	512	507	0	0			
7	0	0	0	0	512	509	0	0			
8	0	0	0	0	515	509	0	0			
9	0	0	0	0	511	508	0	0			
10	0	0	0	0	513	510	0	0			
11	0	0	0	0	516	509	0	0			
12	0	0	0	0	518	508	0	0			
13	0	0	0	0	514	508	0	0			
14	0	0	0	0	512	508	0	0			
15	0	0	0	0	508	507	0	0			
0	0	0	0	0	508	506	0	0			
1	0	0	0	0	508	508	0	0			
2	0	0	0	0	508	505	0	0			
3	0	0	0	0	509	509	0	0			
4	0	0	0	0	509	507	0	0			
5	0	0	0	0	505	505	0	0			
6	0	0	0	0	507	508	0	0			
7	0	0	0	0	507	510	0	0			
8	0	0	0	0	509	507	0	0			
9	0	0	0	0	508	507	0	0			
10	0	0	0	0	511	508	0	0			
11	0	0	0	0	511	510	0	0			
12	0	0	0	0	514	508	0	0			
13	0	0	0	0	516	508	0	0			
14	0	0	0	0	515	506	0	0			
15	0	0	0	0	515	508	0	0			
0	0	0	0	0	514	508	0	0			
1	0	0	0	0	513	507	0	0			
2	0	0	0	0	512	507	0	0			
3	0	0	0	0	512	507	0	0			
4	0	0	0	0	508	506	0	0			
5	0	0	0	0	510	508	0	0			
6	0	0	0	0	509	509	0	0			
7	0	0	0	0	508	508	0	0			
8	0	0	0	0	506	506	0	0			
9	0	0	0	0	505	506	0	0			
10	0	0	0	0	506	508	0	0			
11	0	0	0	0	504	506	0	0			
12	0	0	0	0	511	508	0	0			
13	0	0	0	0	511	508	0	0			
14	0	0	0	0	513	510	0	0			
15	0	0	0	0	514	509	0	0			
0	0	0	0	0	514	509	0	0			
1	0	0	0	0	514	507	0	0			
2	0	0	0	0	512	508	0	0			
3	0	0	0	0	511	507	0	0			
4	0	0	0	0	517	508	0	0			
5	0	0	0	0	515	510	0	0			
6	0	0	0	0	510	508	0	0			
7	0	0	0	0	509	507	0	0			
8	0	0	0	0	509	507	0	0			
9	0	0	0	0	511	506	0	0			
10	0	0	0	0	508	508	0	0			
11	0	0	0	0	509	506	0	0			
12	0	0	0	0	510	508	0	0			
13	0	0	0	0	506	508	0	0			
14	0	0	0	0	505	509	0	0			
15	0	0	0	0	505	507	0	0			
0	0	0	0	0	507	510	0	0			
1	0	0	0	0	509	509	0	0			
2	0	0	0	0	511	508	0	0			
3	0	0	0	0	513	510	0	0			
4	0	0	0	0	518	507	0	0			
5	0	0	0	0	518	508	0	0			
6	0	0	0	0	516	508	0	0			
7	0	0	0	0	515	509	0	0			
8	0	0	0	0	515	508	0	0			
9	0	0	0	0	513	508	0	0			
10	0	0	0	0	513	508	0	0			
11	0	0	0	0	511	506	0	0			
12	0	0	0	0	511	507	0	0			
13	0	0	0	0	505	506	0	0			
14	0	0	0	0	503	507	0	0			
15	0	0	0	0	508	506	0	0			
0	0	0	0	0	508	507	0	0			
1	0	0	0	0	508	507	0	0			
2	0	0	0	0	508	510	0	0			
3	0	0	0	0	505	509	0	0			
4	0	0	0	0	508	510	0	0			
5	0	0	0	0	509	508	0	0			
6	0	0	0	0	512	506	0	0			
7	0	0	0	0	511	509	0	0			
8	0	0	0	0	515	510	0	0			
9	0	0	0	0	515	508	0	0			
10	0	0	0	0	517	508	0	0			
11	0	0	0	0	518	506	0	0			
12	0	0	0	0	517	506	0	0			
13	0	0	0	0	516	508	0	0			
14	0	0	0	0	512	508	0	0			
15	0	0	0	0	510	508	0	0			
0	0	0	0	0	509	507	0	0			
1	0	0	0	0	509	508	0	0			
2	0	0	0	0	508	507	0	0			
3	0	0	0	0	508	509	0	0			
4	0	0	0	0	507	507	0	0			
5	0	0	0	0	506	507	0	0			
6	0	0	0	0	507	508	0	0			
7	0	0	0	0	507	509	0	0			
8	0	0	0	0	508	507	0	0			
9	0	0	0	0	508	508	0	0			
10	0	0	0	0	511	508	0	0			
11	0	0	0	0	511	508	0	0			
12	0	0	0	0	513	510	0	0			
13	0	0	0	0	513	509	0	0			
14	0	0	0	0	513	508	0	0			
15	0	0	0	0	513	510	0	0			
0	0	0	0	0	516	509	0	0			
1	0	0	0	0	515	507	0	0			
2	0	0	0	0	515	508	0	0			
3	0	0	0	0	513	506	0	0			
4	0	0	0	0	512	508	0	0			
5	0	0	0	0	508	507	0	0			
6	0	0	0	0	507	506	0	0			
7	0	0	0	0	504	508	0	0			
8	0	0	0	0	507	507	0	0			
9	0	0	0	0	504	506	0	0			
10	0	0	0	0	504	508	0	0			
11	0	0	0	0	509	509	0	0			
12	0	0	0	0	510	508	0	0			
13	0	0	0	0	509	509	0	0			
14	0	0	0	0	511	508	0	0			
15	0	0	0	0	515	508	0	0			
0	0	0	0	0	516	507	0	0			
1	0	0	0	0	514	507	0	0			
2	0	0	0	0	515	510	0	0			
3	0	0	0	0	513	508	0	0			
4	0	0	0	0	515	508	0	0			
5	0	0	0	0	516	508	0	0			
6	0	0	0	0	514	508	0	0			
7	0	0	0	0	512	511	0	0			
8	0	0	0	0	510	508	0	0			
9	0	0	0	0	508	507	0	0			
10	0	0	0	0	508	507	0	0			
11	0	0	0	0	507	509	0	0			
12	0	0	0	0	504	505	0	0			
13	0	0	0	0	502	505	0	0			
14	0	0	0	0	503	508	0	0			
15	0	0	0	0	505	508	0	0			
0	0	0	0	0	507	508	0	0			
1	0	0	0	0	512	507	0	0			
2	0	0	0	0	513	508	0	0			
3	0	0	0	0	511	506	0	0			
4	0	0	0	0	519	508	0	0			
5	0	0	0	0	516	509	0	0			
6	0	0	0	0	514	510	0	0			
7	0	0	0	0	514	508	0	0			
8	0	0	0	0	515	510	0	0			
9	0	0	0	0	513	507	0	0			
10	0	0	0	0	513	507	0	0			
11	0	0	0	0	514	508	0	0			
12	0	0	0	0	509	508	0	0			
13	0	0	0	0	509	508	0	0			
14	0	0	0	0	507	509	0	0			
15	0	0	0	0	508	507	0	0			
0	0	0	0	0	505	505	0	0			
1	0	0	0	0	504	508	0	0			
2	0	0	0	0	502	507	0	0			
3	0	0	0	0	502	508	0	0			
4	0	0	0	0	507	508	0	0			
5	0	0	0	0	510	509	0	0			
6	0	0	0	0	514	507	0	0			
7	0	0	0	0	515	507	0	0			
8	0	0	0	0	515	507	0	0			
9	0	0	0	0	513	508	0	0			
10	0	0	0	0	513	511	0	0			
11	0	0	0	0	515	513	0	0			
12	0	0	0	0	517	510	0	0			
13	0	0	0	0	517	507	0	0			
14	0	0	0	0	516	507	0	0			
15	0	0	0	0	512	508	0	0			
0	0	0	0	0	510	508	0	0			
1	0	0	0	0	508	507	0	0			
2	0	0	0	0	507	506	0	0			
3	0	0	0	0	505	507	0	0			
4	0	0	0	0	507	508	0	0			
5	0	0	0	0	506	508	0	0			
6	0	0	0	0	503	505	0	0			
7	0	0	0	0	506	507	0	0			
8	0	0	0	0	509	508	0	0			
9	0	0	0	0	512	509	0	0			
10	0	0	0	0	513	507	0	0			
11	0	0	0	0	515	508	0	0			
12	0	0	0	0	515	510	0	0			
13	0	0	0	0	516	507	0	0			
14	0	0	0	0	513	509	0	0			
15	0	0	0	0	515	510	0	0			
0	0	0	0	0	515	508	0	0			
1	0	0	0	0	512	508	0	0			
2	0	0	0	0	512	509	0	0			
3	0	0	0	0	514	508	0	0			
4	0	0	0	0	512	509	0	0			
5	0	0	0	0	509	507	0	0			
6	0	0	0	0	508	506	0	0			
7	0	0	0	0	504	508	0	0			
8	0	0	0	0	505	506	0	0			
9	0	0	0	0	505	506	0	0			
10	0	0	0	0	505	506	0	0			
11	0	0	0	0	508	510	0	0			
12	0	0	0	0	507	506	0	0			
13	0	0	0	0	509	508	0	0			
14	0	0	0	0	513	509	0	0			
15	0	0	0	0	515	509	0	0			
0	0	0	0	0	516	508	0	0			
1	0	0	0	0	516	508	0	0			
2	0	0	0	0	515	507	0	0			
3	0	0	0	0	513	509	0	0			
4	0	0	0	0	512	510	0	0			
5	0	0	0	0	513	508	0	0			
6	0	0	0	0	513	508	0	0			
7	0	0	0	0	510	508	0	0			
8	0	0	0	0	508	506	0	0			
9	0	0	0	0	508	507	0	0			
10	0	0	0	0	510	505	0	0			
11	0	0	0	0	508	507	0	0			
12	0	0	0	0	508	506	0	0			
13	0	0	0	0	505	506	0	0			
14	0	0	0	0	507	508	0	0			
15	0	0	0	0	507	508	0	0			
0	0	0	0	0	505	508	0	0			
1	0	0	0	0	508	509	0	0			
2	0	0	0	0	510	510	0	0			
3	0	0	0	0	510	510	0	0			
4	0	0	0	0	512	507	0	0			
5	0	0	0	0	515	508	0	0			
6	0	0	0	0	515	509	0	0			
7	0	0	0	0	515	509	0	0			
8	0	0	0	0	514	508	0	0			
9	0	0	0	0	514	508	0	0			
10	0	0	0	0	514	507	0	0			
11	0	0	0	0	513	507	0	0			
12	0	0	0	0	509	508	0	0			
13	0	0	0	0	508	506	0	0			
14	0	0	0	0	508	507	0	0			
15	0	0	0	0	508	507	0	0			
0	0	0	0	0	507	508	0	0			
1	0	0	0	0	505	508	0	0			
2	0	0	0	0	507	508	0	0			
3	0	0	0	0	507	510	0	0			
4	0	0	0	0	509	509	0	0			
5	0	0	0	0	514	511	0	0			
6	0	0	0	0	512	508	0	0			
7	0	0	0	0	511	507	0	0			
8	0	0	0	0	513	508	0	0			
9	0	0	0	0	515	510	0	0			
10	0	0	0	0	514	509	0	0			
11	0	0	0	0	515	511	0	0			
12	0	0	0	0	516	509	0	0			
13	0	0	0	0	512	508	0	0			
14	0	0	0	0	511	508	0	0			
15	0	0	0	0	510	507	0	0			
0	0	0	0	0	512	507	0	0			
1	0	0	0	0	507	507	0	0			
2	0	0	0	0	508	508	0	0			
3	0	0	0	0	505	508	0	0			
4	0	0	0	0	508	507	0	0			
5	0	0	0	0	508	506	0	0			
6	0	0	0	0	508	508	0	0			
7	0	0	0	0	505	508	0	0			
8	0	0	0	0	506	507	0	0			
9	0	0	0	0	509	508	0	0			
10	0	0	0	0	513	507	0	0			
11	0	0	0	0	515	508	0	0			
12	0	0	0	0	515	508	0	0			
13	0	0	0	0	513	510	0	0			
14	0	0	0	0	516	511	0	0			
15	0	0	0	0	513	510	0	0			
0	0	0	0	0	511	508	0	0			
1	0	0	0	0	513	505	0	0			
2	0	0	0	0	513	507	0	0			
3	0	0	0	0	513	508	0	0			
4	0	0	0	0	512	508	0	0			
5	0	0	0	0	509	507	0	0			
6	0	0	0	0	508	507	0	0			
7	0	0	0	0	506	508	0	0			
8	0	0	0	0	508	505	0	0			
9	0	0	0	0	505	504	0	0			
10	0	0	0	0	504	506	0	0			
11	0	0	0	0	505	507	0	0			
12	0	0	0	0	508	510	0	0			
13	0	0	0	0	509	508	0	0			
14	0	0	0	0	511	509	0	0			
15	0	0	0	0	516	508	0	0			
0	0	0	0	0	517	508	0	0			
1	0	0	0	0	515	508	0	0			
2	0	0	0	0	513	507	0	0			
3	0	0	0	0	516	510	0	0			
4	0	0	0	0	518	508	0	0			
5	0	0	0	0	513	509	0	0			
6	0	0	0	0	510	507	0	0			
7	0	0	0	0	511	508	0	0			
8	0	0	0	0	510	507	0	0			
9	0	0	0	0	507	507	0	0			
10	0	0	0	0	508	508	0	0			
11	0	0	0	0	511	508	0	0			
12	0	0	0	0	508	507	0	0			
13	0	0	0	0	506	505	0	0			
14	0	0	0	0	505	508	0	0			
15	0	0	0	0	507	508	0	0			
0	0	0	0	0	505	508	0	0			
1	0	0	0	0	507	508	0	0			
2	0	0	0	0	509	509	0	0			
3	0	0	0	0	518	509	0	0			
4	0	0	0	0	517	508	0	0			
5	0	0	0	0	515	509	0	0			
6	0	0	0	0	514	508	0	0			
7	0	0	0	0	510	509	0	0			
8	0	0	0	0	513	510	0	0			
9	0	0	0	0	512	509	0	0			
10	0	0	0	0	512	505	0	0			
11	0	0	0	0	518	507	0	0			
12	0	0	0	0	512	507	0	0			
13	0	0	0	0	509	507	0	0			
14	0	0	0	0	508	506	0	0			
15	0	0	0	0	507	510	0	0			
0	0	0	0	0	508	507	0	0			
1	0	0	0	0	506	508	0	0			
2	0	0	0	0	505	507	0	0			
3	0	0	0	0	505	508	0	0			
4	0	0	0	0	505	510	0	0			
5	0	0	0	0	509	509	0	0			
6	0	0	0	0	510	507	0	0			
7	0	0	0	0	511	508	0	0			
8	0	0	0	0	514	509	0	0			
9	0	0	0	0	514	509	0	0			
10	0	0	0	0	515	507	0	0			
11	0	0	0	0	517	511	0	0			
12	0	0	0	0	516	508	0	0			
13	0	0	0	0	518	509	0	0			
14	0	0	0	0	514	508	0	0			
15	0	0	0	0	511	507	0	0			
0	0	0	0	0	511	506	0	0			
1	0	0	0	0	510	508	0	0			
2	0	0	0	0	508	509	0	0			
3	0	0	0	0	508	506	0	0			
4	0	0	0	0	507	506	0	0			
5	0	0	0	0	504	506	0	0			
6	0	0	0	0	503	507	0	0			
7	0	0	0	0	505	508	0	0			
8	0	0	0	0	507	508	0	0			
9	0	0	0	0	508	510	0	0			
10	0	0	0	0	512	510	0	0			
11	0	0	0	0	508	508	0	0			
12	0	0	0	0	514	510	0	0			
13	0	0	0	0	515	509	0	0			
14	0	0	0	0	515	508	0	0			
15	0	0	0	0	516	509	0	0			
0	0	0	0	0	517	510	0	0			
1	0	0	0	0	515	507	0	0			
2	0	0	0	0	515	508	0	0			
3	0	0	0	0	512	507	0	0			
4	0	0	0	0	512	506	0	0			
5	0	0	0	0	508	507	0	0			
6	0	0	0	0	508	508	0	0			
7	0	0	0	0	510	505	0	0			
8	0	0	0	0	508	505	0	0			
9	0	0	0	0	504	507	0	0			
10	0	0	0	0	506	507	0	0			
11	0	0	0	0	508	508	0	0			
12	0	0	0	0	509	507	0	0			
13	0	0	0	0	509	506	0	0			
14	0	0	0	0	512	509	0	0			
15	0	0	0	0	512	508	0	0			
0	0	0	0	0	512	507	0	0			
1	0	0	0	0	514	507	0	0			
2	0	0	0	0	518	509	0	0			
3	0	0	0	0	516	510	0	0			
4	0	0	0	0	512	509	0	0			
5	0	0	0	0	511	508	0	0			
6	0	0	0	0	512	504	0	0			
7	0	0	0	0	515	507	0	0			
8	0	0	0	0	513	508	0	0			
9	0	0	0	0	514	509	0	0			
10	0	0	0	0	506	506	0	0			
11	0	0	0	0	507	507	0	0			
12	0	0	0	0	505	506	0	0			
13	0	0	0	0	504	507	0	0			
14	0	0	0	0	504	507	0	0			
15	0	0	0	0	506	508	0	0			
0	0	0	0	0	506	507	0	0			
1	0	0	0	0	508	507	0	0			
2	0	0	0	0	511	508	0	0			
3	0	0	0	0	513	510	0	0			
4	0	0	0	0	514	510	0	0			
5	0	0	0	0	514	509	0	0			
6	0	0	0	0	510	509	0	0			
7	0	0	0	0	518	510	0	0			
8	0	0	0	0	516	508	0	0			
9	0	0	0	0	513	509	0	0			
10	0	0	0	0	514	508	0	0			
11	0	0	0	0	513	507	0	0			
12	0	0	0	0	511	508	0	0			
13	0	0	0	0	508	506	0	0			
14	0	0	0	0	511	507	0	0			
15	0	0	0	0	506	508	0	0			
0	0	0	0	0	508	507	0	0			
1	0	0	0	0	505	507	0	0			
2	0	0	0	0	508	505	0	0			
3	0	0	0	0	508	507	0	0			
4	0	0	0	0	509	507	0	0			
5	0	0	0	0	509	508	0	0			
6	0	0	0	0	510	507	0	0			
7	0	0	0	0	509	509	0	0			
8	0	0	0	0	515	509	0	0			
9	0	0	0	0	514	508	0	0			
10	0	0	0	0	515	511	0	0			
11	0	0	0	0	518	511	0	0			
12	0	0	0	0	513	508	0	0			
13	0	0	0	0	512	510	0	0			
14	0	0	0	0	513	508	0	0			
15	0	0	0	0	511	507	0	0			
0	0	0	0	0	508	505	0	0			
1	0	0	0	0	511	507	0	0			
2	0	0	0	0	508	508	0	0			
3	0	0	0	0	508	508	0	0			
4	0	0	0	0	507	507	0	0			
5	0	0	0	0	505	510	0	0			
6	0	0	0	0	505	507	0	0			
7	0	0	0	0	507	508	0	0			
8	0	0	0	0	504	508	0	0			
9	0	0	0	0	505	508	0	0			
10	0	0	0	0	508	508	0	0			
11	0	0	0	0	521	508	0	0			
12	0	0	0	0	519	508	0	0			
13	0	0	0	0	515	507	0	0			
14	0	0	0	0	513	508	0	0			
15	0	0	0	0	514	510	0	0			
0	0	0	0	0	515	509	0	0			
1	0	0	0	0	514	508	0	0			
2	0	0	0	0	511	507	0	0			
3	0	0	0	0	509	509	0	0			
4	0	0	0	0	510	507	0	0			
5	0	0	0	0	515	508	0	0			
6	0	0	0	0	512	508	0	0			
7	0	0	0	0	510	506	0	0			
8	0	0	0	0	505	505	0	0			
9	0	0	0	0	506	508	0	0			
10	0	0	0	0	503	507	0	0			
11	0	0	0	0	507	508	0	0			
12	0	0	0	0	507	508	0	0			
13	0	0	0	0	509	510	0	0			
14	0	0	0	0	511	510	0	0			
15	0	0	0	0	514	508	0	0			
0	0	0	0	0	514	505	0	0			
1	0	0	0	0	513	510	0	0			
2	0	0	0	0	513	510	0	0			
3	0	0	0	0	517	509	0	0			
4	0	0	0	0	513	508	0	0			
5	0	0	0	0	513	506	0	0			
6	0	0	0	0	514	507	0	0			
7	0	0	0	0	512	507	0	0			
8	0	0	0	0	510	507	0	0			
9	0	0	0	0	510	507	0	0			
10	0	0	0	0	508	506	0	0			
11	0	0	0	0	506	507	0	0			
12	0	0	0	0	505	508	0	0			
13	0	0	0	0	503	507	0	0			
14	0	0	0	0	505	506	0	0			
15	0	0	0	0	508	508	0	0			
0	0	0	0	0	511	508	0	0			
1	0	0	0	0	512	507	0	0			
2	0	0	0	0	510	507	0	0			
3	0	0	0	0	512	507	0	0			
4	0	0	0	0	515	508	0	0			
5	0	0	0	0	516	508	0	0			
6	0	0	0	0	516	510	0	0			
7	0	0	0	0	516	510	0	0			
8	0	0	0	0	514	509	0	0			
9	0	0	0	0	511	508	0	0			
10	0	0	0	0	510	507	0	0			
11	0	0	0	0	510	508	0	0			
12	0	0	0	0	514	507	0	0			
13	0	0	0	0	515	508	0	0			
14	0	0	0	0	508	508	0	0			
15	0	0	0	0	508	508	0	0			
0	0	0	0	0	507	508	0	0			
1	0	0	0	0	505	506	0	0			
2	0	0	0	0	505	506	0	0			
3	0	0	0	0	505	508	0	0			
4	0	0	0	0	507	510	0	0			
5	0	0	0	0	509	511	0	0			
6	0	0	0	0	513	508	0	0			
7	0	0	0	0	511	506	0	0			
8	0	0	0	0	513	508	0	0			
9	0	0	0	0	511	508	0	0			
10	0	0	0	0	513	508	0	0			
11	0	0	0	0	515	510	0	0			
12	0	0	0	0	518	508	0	0			
13	0	0	0	0	514	508	0	0			
14	0	0	0	0	512	508	0	0			
15	0	0	0	0	510	505	0	0			
0	0	0	0	0	507	508	0	0			
1	0	0	0	0	510	507	0	0			
2	0	0	0	0	507	507	0	0			
3	0	0	0	0	509	509	0	0			
4	0	0	0	0	509	507	0	0			
5	0	0	0	0	508	504	0	0			
6	0	0	0	0	506	506	0	0			
7	0	0	0	0	507	509	0	0			
8	0	0	0	0	510	509	0	0			
9	0	0	0	0	510	507	0	0			
10	0	0	0	0	511	507	0	0			
11	0	0	0	0	515	509	0	0			
12	0	0	0	0	513	510	0	0			
13	0	0	0	0	514	509	0	0			
14	0	0	0	0	511	508	0	0			
15	0	0	0	0	513	510	0	0			
0	0	0	0	0	516	510	0	0			
1	0	0	0	0	516	508	0	0			
2	0	0	0	0	513	507	0	0			
3	0	0	0	0	513	507	0	0			
4	0	0	0	0	510	508	0	0			
5	0	0	0	0	511	507	0	0			
6	0	0	0	0	507	508	0	0			
7	0	0	0	0	508	507	0	0			
8	0	0	0	0	508	507	0	0			
9	0	0	0	0	506	506	0	0			
10	0	0	0	0	505	506	0	0			
11	0	0	0	0	506	510	0	0			
12	0	0	0	0	509	508	0	0			
13	0	0	0	0	510	509	0	0			
14	0	0	0	0	512	510	0	0			
15	0	0	0	0	512	508	0	0			
0	0	0	0	0	511	507	0	0			
1	0	0	0	0	515	508	0	0			
2	0	0	0	0	513	508	0	0			
3	0	0	0	0	513	510	0	0			
4	0	0	0	0	517	510	0	0			
5	0	0	0	0	513	507	0	0			
6	0	0	0	0	513	509	0	0			
7	0	0	0	0	514	505	0	0			
8	0	0	0	0	511	509	0	0			
9	0	0	0	0	504	507	0	0			
10	0	0	0	0	507	508	0	0			
11	0	0	0	0	513	505	0	0			
12	0	0	0	0	512	508	0	0			
13	0	0	0	0	506	508	0	0			
14	0	0	0	0	503	506	0	0			
15	0	0	0	0	508	506	0	0			
0	0	0	0	0	509	506	0	0			
1	0	0	0	0	507	509	0	0			
2	0	0	0	0	508	508	0	0			
3	0	0	0	0	511	509	0	0			
4	0	0	0	0	508	509	0	0			
5	0	0	0	0	510	508	0	0			
6	0	0	0	0	510	509	0	0			
7	0	0	0	0	524	511	0	0			
8	0	0	0	0	521	510	0	0			
9	0	0	0	0	518	507	0	0			
10	0	0	0	0	513	508	0	0			
11	0	0	0	0	512	507	0	0			
12	0	0	0	0	510	507	0	0			
13	0	0	0	0	512	506	0	0			
14	0	0	0	0	510	507	0	0			
15	0	0	0	0	505	507	0	0			
0	0	0	0	0	505	508	0	0			
1	0	0	0	0	505	507	0	0			
2	0	0	0	0	505	506	0	0			
3	0	0	0	0	506	506	0	0			
4	0	0	0	0	508	508	0	0			
5	0	0	0	0	507	507	0	0			
6	0	0	0	0	509	508	0	0			
7	0	0	0	0	513	508	0	0			
8	0	0	0	0	514	510	0	0			
9	0	0	0	0	513	509	0	0			
10	0	0	0	0	514	507	0	0			
11	0	0	0	0	517	509	0	0			
12	0	0	0	0	516	510	0	0			
13	0	0	0	0	515	508	0	0			
14	0	0	0	0	513	509	0	0			
15	0	0	0	0	511	507	0	0			
0	0	0	0	0	510	507	0	0			
1	0	0	0	0	510	503	0	0			
2	0	0	0	0	508	507	0	0			
3	0	0	0	0	507	508	0	0			
4	0	0	0	0	508	506	0	0			
5	0	0	0	0	506	508	0	0			
6	0	0	0	0	503	507	0	0			
7	0	0	0	0	505	509	0	0			
8	0	0	0	0	507	509	0	0			
9	0	0	0	0	509	509	0	0			
10	0	0	0	0	512	509	0	0			
11	0	0	0	0	511	506	0	0			
12	0	0	0	0	513	510	0	0			
13	0	0	0	0	515	510	0	0			
14	0	0	0	0	512	509	0	0			
15	0	0	0	0	511	508	0	0			
0	0	0	0	0	517	508	0	0			
1	0	0	0	0	516	508	0	0			
2	0	0	0	0	516	507	0	0			
3	0	0	0	0	513	506	0	0			
4	0	0	0	0	509	507	0	0			
5	0	0	0	0	507	508	0	0			
6	0	0	0	0	508	508	0	0			
7	0	0	0	0	509	506	0	0			
8	0	0	0	0	506	508	0	0			
9	0	0	0	0	507	508	0	0			
10	0	0	0	0	505	508	0	0			
11	0	0	0	0	503	508	0	0			
12	0	0	0	0	509	509	0	0			
13	0	0	0	0	508	508	0	0			
14	0	0	0	0	510	510	0	0			
15	0	0	0	0	511	511	0	0			
0	0	0	0	0	516	508	0	0			
1	0	0	0	0	515	508	0	0			
2	0	0	0	0	515	508	0	0			
3	0	0	0	0	514	509	0	0			
4	0	0	0	0	512	511	0	0			
5	0	0	0	0	510	510	0	0			
6	0	0	0	0	512	508	0	0			
7	0	0	0	0	513	507	0	0			
8	0	0	0	0	512	504	0	0			
9	0	0	0	0	511	504	0	0			
10	0	0	0	0	510	508	0	0			
11	0	0	0	0	509	506	0	0			
12	0	0	0	0	508	508	0	0			
13	0	0	0	0	508	506	0	0			
14	0	0	0	0	505	507	0	0			
15	0	0	0	0	505	508	0	0			
0	0	0	0	0	507	508	0	0			
1	0	0	0	0	509	509	0	0			
2	0	0	0	0	513	511	0	0			
3	0	0	0	0	512	510	0	0			
4	0	0	0	0	514	508	0	0			
5	0	0	0	0	511	508	0	0			
6	0	0	0	0	513	510	0	0			
7	0	0	0	0	516	509	0	0			
8	0	0	0	0	516	511	0	0			
9	0	0	0	0	514	508	0	0			
10	0	0	0	0	513	506	0	0			
11	0	0	0	0	512	507	0	0			
12	0	0	0	0	511	507	0	0			
13	0	0	0	0	509	508	0	0			
14	0	0	0	0	509	505	0	0			
15	0	0	0	0	508	506	0	0			
0	0	0	0	0	507	507	0	0			
1	0	0	0	0	505	508	0	0			
2	0	0	0	0	508	506	0	0			
3	0	0	0	0	506	508	0	0			
4	0	0	0	0	509	510	0	0			
5	0	0	0	0	510	508	0	0			
6	0	0	0	0	511	509	0	0			
7	0	0	0	0	512	509	0	0			
8	0	0	0	0	515	511	0	0			
9	0	0	0	0	515	508	0	0			
10	0	0	0	0	515	508	0	0			
11	0	0	0	0	516	509	0	0			
12	0	0	0	0	514	509	0	0			
13	0	0	0	0	514	508	0	0			
14	0	0	0	0	505	510	0	0			
15	0	0	0	0	514	507	0	0			
0	0	0	0	0	515	507	0	0			
1	0	0	0	0	509	506	0	0			
2	0	0	0	0	507	507	0	0			
3	0	0	0	0	509	505	0	0			
4	0	0	0	0	510	508	0	0			
5	0	0	0	0	508	506	0	0			
6	0	0	0	0	508	507	0	0			
7	0	0	0	0	507	509	0	0			
8	0	0	0	0	508	508	0	0			
9	0	0	0	0	510	509	0	0			
10	0	0	0	0	513	510	0	0			
11	0	0	0	0	515	510	0	0			
12	0	0	0	0	512	511	0	0			
13	0	0	0	0	510	508	0	0			
14	0	0	0	0	511	509	0	0			
15	0	0	0	0	513	508	0	0			
0	0	0	0	0	516	510	0	0			
1	0	0	0	0	513	505	0	0			
2	0	0	0	0	511	506	0	0			
3	0	0	0	0	511	505	0	0			
4	0	0	0	0	507	506	0	0			
5	0	0	0	0	509	508	0	0			
6	0	0	0	0	509	507	0	0			
7	0	0	0	0	508	507	0	0			
8	0	0	0	0	509	508	0	0			
9	0	0	0	0	507	507	0	0			
10	0	0	0	0	506	507	0	0			
11	0	0	0	0	511	507	0	0			
12	0	0	0	0	509	508	0	0			
13	0	0	0	0	510	508	0	0			
14	0	0	0	0	512	508	0	0			
15	0	0	0	0	514	509	0	0			
0	0	0	0	0	514	509	0	0			
1	0	0	0	0	512	509	0	0			
2	0	0	0	0	512	509	0	0			
3	0	0	0	0	514	508	0	0			
4	0	0	0	0	516	510	0	0			
5	0	0	0	0	515	509	0	0			
6	0	0	0	0	513	509	0	0			
7	0	0	0	0	515	507	0	0			
8	0	0	0	0	511	505	0	0			
9	0	0	0	0	509	506	0	0			
10	0	0	0	0	507	507	0	0			
11	0	0	0	0	508	509	0	0			
12	0	0	0	0	509	508	0	0			
13	0	0	0	0	506	506	0	0			
14	0	0	0	0	506	508	0	0			
15	0	0	0	0	504	508	0	0			
0	0	0	0	0	505	508	0	0			
1	0	0	0	0	504	508	0	0			
2	0	0	0	0	512	508	0	0			
3	0	0	0	0	515	510	0	0			
4	0	0	0	0	516	510	0	0			
5	0	0	0	0	514	510	0	0			
6	0	0	0	0	514	508	0	0			
7	0	0	0	0	515	509	0	0			
8	0	0	0	0	513	508	0	0			
9	0	0	0	0	513	508	0	0			
10	0	0	0	0	512	508	0	0			
11	0	0	0	0	510	508	0	0			
12	0	0	0	0	509	506	0	0			
13	0	0	0	0	507	505	0	0			
14	0	0	0	0	513	505	0	0			
15	0	0	0	0	510	504	0	0			
0	0	0	0	0	508	506	0	0			
1	0	0	0	0	505	508	0	0			
2	0	0	0	0	505	508	0	0			
3	0	0	0	0	508	508	0	0			
4	0	0	0	0	511	509	0	0			
5	0	0	0	0	511	509	0	0			
6	0	0	0	0	510	509	0	0			
7	0	0	0	0	513	507	0	0			
8	0	0	0	0	515	508	0	0			
9	0	0	0	0	512	510	0	0			
10	0	0	0	0	512	509	0	0			
11	0	0	0	0	512	511	0	0			
12	0	0	0	0	515	509	0	0			
13	0	0	0	0	515	508	0	0			
14	0	0	0	0	512	506	0	0			
15	0	0	0	0	510	506	0	0			
0	0	0	0	0	512	507	0	0			
1	0	0	0	0	509	508	0	0			
2	0	0	0	0	508	506	0	0			
3	0	0	0	0	508	508	0	0			
4	0	0	0	0	506	508	0	0			
5	0	0	0	0	507	505	0	0			
6	0	0	0	0	505	507	0	0			
7	0	0	0	0	507	507	0	0			
8	0	0	0	0	511	510	0	0			
9	0	0	0	0	512	509	0	0			
10	0	0	0	0	510	508	0	0			
11	0	0	0	0	508	510	0	0			
12	0	0	0	0	511	510	0	0			
13	0	0	0	0	515	510	0	0			
14	0	0	0	0	516	508	0	0			
15	0	0	0	0	515	508	0	0			
0	0	0	0	0	511	509	0	0			
1	0	0	0	0	513	507	0	0			
2	0	0	0	0	520	507	0	0			
3	0	0	0	0	518	508	0	0			
4	0	0	0	0	512	507	0	0			
5	0	0	0	0	510	509	0	0			
6	0	0	0	0	508	507	0	0			
7	0	0	0	0	507	505	0	0			
8	0	0	0	0	507	508	0	0			
9	0	0	0	0	506	507	0	0			
10	0	0	0	0	502	508	0	0			
11	0	0	0	0	505	507	0	0			
12	0	0	0	0	510	508	0	0			
13	0	0	0	0	508	509	0	0			
14	0	0	0	0	511	510	0	0			
15	0	0	0	0	512	508	0	0			
0	0	0	0	0	513	508	0	0			
1	0	0	0	0	513	508	0	0			
2	0	0	0	0	515	508	0	0			
3	0	0	0	0	513	508	0	0			
4	0	0	0	0	514	509	0	0			
5	0	0	0	0	511	510	0	0			
6	0	0	0	0	510	507	0	0			
7	0	0	0	0	511	509	0	0			
8	0	0	0	0	512	508	0	0			
9	0	0	0	0	512	507	0	0			
10	0	0	0	0	509	508	0	0			
11	0	0	0	0	507	507	0	0			
12	0	0	0	0	510	506	0	0			
13	0	0	0	0	509	507	0	0			
14	0	0	0	0	506	508	0	0			
15	0	0	0	0	508	506	0	0			
0	0	0	0	0	508	507	0	0			
1	0	0	0	0	511	508	0	0			
2	0	0	0	0	509	508	0	0			
3	0	0	0	0	512	509	0	0			
4	0	0	0	0	512	511	0	0			
5	0	0	0	0	511	507	0	0			
6	0	0	0	0	514	509	0	0			
7	0	0	0	0	514	508	0	0			
8	0	0	0	0	513	508	0	0			
9	0	0	0	0	512	510	0	0			
10	0	0	0	0	509	507	0	0			
11	0	0	0	0	511	508	0	0			
12	0	0	0	0	510	505	0	0			
13	0	0	0	0	511	508	0	0			
14	0	0	0	0	511	507	0	0			
15	0	0	0	0	508	507	0	0			
0	0	0	0	0	509	507	0	0			
1	0	0	0	0	508	507	0	0			
2	0	0	0	0	507	510	0	0			
3	0	0	0	0	506	508	0	0			
4	0	0	0	0	502	506	0	0			
5	0	0	0	0	506	508	0	0			
6	0	0	0	0	510	507	0	0			
7	0	0	0	0	518	505	0	0			
8	0	0	0	0	516	510	0	0			
9	0	0	0	0	515	510	0	0			
10	0	0	0	0	512	510	0	0			
11	0	0	0	0	514	509	0	0			
12	0	0	0	0	515	509	0	0			
13	0	0	0	0	515	509	0	0			
14	0	0	0	0	515	508	0	0			
15	0	0	0	0	511	509	0	0			
0	0	0	0	0	511	508	0	0			
1	0	0	0	0	511	508	0	0			
2	0	0	0	0	510	508	0	0			
3	0	0	0	0	509	505	0	0			
4	0	0	0	0	508	506	0	0			
5	0	0	0	0	507	505	0	0			
6	0	0	0	0	505	505	0	0			
7	0	0	0	0	510	508	0	0			
8	0	0	0	0	509	508	0	0			
9	0	0	0	0	508	510	0	0			
10	0	0	0	0	510	507	0	0			
11	0	0	0	0	511	509	0	0			
12	0	0	0	0	514	508	0	0			
13	0	0	0	0	514	507	0	0			
14	0	0	0	0	514	510	0	0			
15	0	0	0	0	515	511	0	0			
0	0	0	0	0	513	509	0	0			
1	0	0	0	0	515	510	0	0			
2	0	0	0	0	518	506	0	0			
3	0	0	0	0	516	508	0	0			
4	0	0	0	0	512	507	0	0			
5	0	0	0	0	509	507	0	0			
6	0	0	0	0	507	506	0	0			
7	0	0	0	0	509	507	0	0			
8	0	0	0	0	507	507	0	0			
9	0	0	0	0	504	508	0	0			
10	0	0	0	0	507	507	0	0			
11	0	0	0	0	506	507	0	0			
12	0	0	0	0	505	509	0	0			
13	0	0	0	0	509	509	0	0			
14	0	0	0	0	511	508	0	0			
15	0	0	0	0	507	508	0	0			
0	0	0	0	0	508	509	0	0			
1	0	0	0	0	519	508	0	0			
2	0	0	0	0	518	509	0	0			
3	0	0	0	0	517	509	0	0			
4	0	0	0	0	515	510	0	0			
5	0	0	0	0	514	508	0	0			
6	0	0	0	0	513	506	0	0			
7	0	0	0	0	513	509	0	0			
8	0	0	0	0	513	506	0	0			
9	0	0	0	0	511	505	0	0			
10	0	0	0	0	508	508	0	0			
11	0	0	0	0	508	509	0	0			
12	0	0	0	0	508	508	0	0			
13	0	0	0	0	507	505	0	0			
14	0	0	0	0	505	508	0	0			
15	0	0	0	0	509	507	0	0			
0	0	0	0	0	505	506	0	0			
1	0	0	0	0	504	509	0	0			
2	0	0	0	0	508	506	0	0			
3	0	0	0	0	510	509	0	0			
4	0	0	0	0	514	510	0	0			
5	0	0	0	0	517	509	0	0			
6	0	0	0	0	513	508	0	0			
7	0	0	0	0	515	510	0	0			
8	0	0	0	0	516	509	0	0			
9	0	0	0	0	517	510	0	0			
10	0	0	0	0	513	509	0	0			
11	0	0	0	0	510	507	0	0			
12	0	0	0	0	509	507	0	0			
13	0	0	0	0	511	507	0	0			
14	0	0	0	0	509	506	0	0			
15	0	0	0	0	506	506	0	0			
0	0	0	0	0	507	505	0	0			
1	0	0	0	0	504	508	0	0			
2	0	0	0	0	504	508	0	0			
3	0	0	0	0	506	508	0	0			
4	0	0	0	0	506	508	0	0			
5	0	0	0	0	508	507	0	0			
6	0	0	0	0	510	505	0	0			
7	0	0	0	0	513	510	0	0			
8	0	0	0	0	513	508	0	0			
9	0	0	0	0	514	508	0	0			
10	0	0	0	0	511	510	0	0			
11	0	0	0	0	511	510	0	0			
12	0	0	0	0	513	509	0	0			
13	0	0	0	0	516	509	0	0			
14	0	0	0	0	512	508	0	0			
15	0	0	0	0	512	505	0	0			
0	0	0	0	0	515	505	0	0			
1	0	0	0	0	513	506	0	0			
2	0	0	0	0	509	508	0	0			
3	0	0	0	0	509	508	0	0			
4	0	0	0	0	505	507	0	0			
5	0	0	0	0	507	507	0	0			
6	0	0	0	0	506	509	0	0			
7	0	0	0	0	506	508	0	0			
8	0	0	0	0	507	510	0	0			
9	0	0	0	0	510	509	0	0			
10	0	0	0	0	510	510	0	0			
11	0	0	0	0	512	510	0	0			
12	0	0	0	0	513	509	0	0			
13	0	0	0	0	515	507	0	0			
14	0	0	0	0	513	508	0	0			
15	0	0	0	0	513	508	0	0			
0	0	0	0	0	515	510	0	0			
1	0	0	0	0	515	508	0	0			
2	0	0	0	0	511	507	0	0			
3	0	0	0	0	513	508	0	0			
4	0	0	0	0	510	508	0	0			
5	0	0	0	0	510	507	0	0			
6	0	0	0	0	511	506	0	0			
7	0	0	0	0	505	506	0	0			
8	0	0	0	0	505	507	0	0			
9	0	0	0	0	504	507	0	0			
10	0	0	0	0	508	508	0	0			
11	0	0	0	0	509	507	0	0			
12	0	0	0	0	508	509	0	0			
13	0	0	0	0	508	507	0	0			
14	0	0	0	0	511	508	0	0			
15	0	0	0	0	512	507	0	0			
0	0	0	0	0	514	509	0	0			
1	0	0	0	0	514	507	0	0			
2	0	0	0	0	512	510	0	0			
3	0	0	0	0	510	508	0	0			
4	0	0	0	0	512	508	0	0			
5	0	0	0	0	512	508	0	0			
6	0	0	0	0	510	506	0	0			
7	0	0	0	0	514	507	0	0			
8	0	0	0	0	513	509	0	0			
9	0	0	0	0	508	509	0	0			
10	0	0	0	0	507	508	0	0			
11	0	0	0	0	507	507	0	0			
12	0	0	0	0	508	506	0	0			
13	0	0	0	0	509	508	0	0			
14	0	0	0	0	505	506	0	0			
15	0	0	0	0	505	508	0	0			
0	0	0	0	0	506	509	0	0			
1	0	0	0	0	510	512	0	0			
2	0	0	0	0	512	507	0	0			
3	0	0	0	0	510	509	0	0			
4	0	0	0	0	511	508	0	0			
5	0	0	0	0	513	508	0	0			
6	0	0	0	0	515	510	0	0			
7	0	0	0	0	516	510	0	0			
8	0	0	0	0	515	509	0	0			
9	0	0	0	0	518	510	0	0			
10	0	0	0	0	515	508	0	0			
11	0	0	0	0	510	505	0	0			
12	0	0	0	0	508	505	0	0			
13	0	0	0	0	510	508	0	0			
14	0	0	0	0	508	507	0	0			
15	0	0	0	0	507	506	0	0			
0	0	0	0	0	508	506	0	0			
1	0	0	0	0	508	507	0	0			
2	0	0	0	0	504	506	0	0			
3	0	0	0	0	503	508	0	0			
4	0	0	0	0	500	509	0	0			
5	0	0	0	0	513	506	0	0			
6	0	0	0	0	513	508	0	0			
7	0	0	0	0	514	508	0	0			
8	0	0	0	0	516	509	0	0			
9	0	0	0	0	514	507	0	0			
10	0	0	0	0	513	509	0	0			
11	0	0	0	0	515	508	0	0			
12	0	0	0	0	515	511	0	0			
13	0	0	0	0	514	507	0	0			
14	0	0	0	0	515	508	0	0			
15	0	0	0	0	514	508	0	0			
0	0	0	0	0	510	506	0	0			
1	0	0	0	0	510	507	0	0			
2	0	0	0	0	507	507	0	0			
3	0	0	0	0	505	507	0	0			
4	0	0	0	0	508	509	0	0			
5	0	0	0	0	506	507	0	0			
6	0	0	0	0	501	508	0	0			
7	0	0	0	0	508	505	0	0			
8	0	0	0	0	508	505	0	0			
9	0	0	0	0	510	508	0	0			
10	0	0	0	0	511	508	0	0			
11	0	0	0	0	513	508	0	0			
12	0	0	0	0	514	509	0	0			
13	0	0	0	0	515	510	0	0			
14	0	0	0	0	515	509	0	0			
15	0	0	0	0	515	508	0	0			
0	0	0	0	0	515	510	0	0			
1	0	0	0	0	515	510	0	0			
2	0	0	0	0	512	508	0	0			
3	0	0	0	0	509	506	0	0			
4	0	0	0	0	509	508	0	0			
5	0	0	0	0	511	508	0	0			
6	0	0	0	0	509	509	0	0			
7	0	0	0	0	508	508	0	0			
8	0	0	0	0	507	507	0	0			
9	0	0	0	0	505	506	0	0			
10	0	0	0	0	504	507	0	0			
11	0	0	0	0	506	507	0	0			
12	0	0	0	0	510	507	0	0			
13	0	0	0	0	512	507	0	0			
14	0	0	0	0	511	511	0	0			
15	0	0	0	0	508	509	0	0			
0	0	0	0	0	515	508	0	0			
1	0	0	0	0	515	508	0	0			
2	0	0	0	0	514	508	0	0			
3	0	0	0	0	515	509	0	0			
4	0	0	0	0	516	510	0	0			
5	0	0	0	0	517	508	0	0			
6	0	0	0	0	514	506	0	0			
7	0	0	0	0	511	508	0	0			
8	0	0	0	0	509	507	0	0			
9	0	0	0	0	511	508	0	0			
10	0	0	0	0	511	508	0	0			
11	0	0	0	0	509	508	0	0			
12	0	0	0	0	506	507	0	0			
13	0	0	0	0	505	505	0	0			
14	0	0	0	0	505	507	0	0			
15	0	0	0	0	505	506	0	0			
0	0	0	0	0	509	507	0	0			
1	0	0	0	0	507	508	0	0			
2	0	0	0	0	510	511	0	0			
3	0	0	0	0	512	508	0	0			
4	0	0	0	0	515	510	0	0			
5	0	0	0	0	514	508	0	0			
6	0	0	0	0	513	508	0	0			
7	0	0	0	0	513	508	0	0			
8	0	0	0	0	514	509	0	0			
9	0	0	0	0	515	510	0	0			
10	0	0	0	0	514	507	0	0			
11	0	0	0	0	510	507	0	0			
12	0	0	0	0	510	507	0	0			
13	0	0	0	0	508	507	0	0			
14	0	0	0	0	511	507	0	0			
15	0	0	0	0	510	507	0	0			
0	0	0	0	0	506	507	0	0			
1	0	0	0	0	505	509	0	0			
2	0	0	0	0	506	506	0	0			
3	0	0	0	0	507	507	0	0			
4	0	0	0	0	507	508	0	0			
5	0	0	0	0	509	509	0	0			
6	0	0	0	0	510	508	0	0			
7	0	0	0	0	512	505	0	0			
8	0	0	0	0	518	508	0	0			
9	0	0	0	0	516	508	0	0			
10	0	0	0	0	516	510	0	0			
11	0	0	0	0	514	509	0	0			
12	0	0	0	0	512	510	0	0			
13	0	0	0	0	511	510	0	0			
14	0	0	0	0	512	507	0	0			
15	0	0	0	0	512	508	0	0			
0	0	0	0	0	512	506	0	0			
1	0	0	0	0	512	506	0	0			
2	0	0	0	0	508	508	0	0			
3	0	0	0	0	505	508	0	0			
4	0	0	0	0	506	508	0	0			
5	0	0	0	0	509	506	0	0			
6	0	0	0	0	505	507	0	0			
7	0	0	0	0	510	507	0	0			
8	0	0	0	0	508	508	0	0			
9	0	0	0	0	507	508	0	0			
10	0	0	0	0	510	510	0	0			
11	0	0	0	0	510	510	0	0			
12	0	0	0	0	511	509	0	0			
13	0	0	0	0	513	509	0	0			
14	0	0	0	0	516	508	0	0			
15	0	0	0	0	513	511	0	0			
0	0	0	0	0	512	510	0	0			
1	0	0	0	0	512	508	0	0			
2	0	0	0	0	518	509	0	0			
3	0	0	0	0	518	507	0	0			
4	0	0	0	0	511	506	0	0			
5	0	0	0	0	506	505	0	0			
6	0	0	0	0	513	506	0	0			
7	0	0	0	0	510	505	0	0			
8	0	0	0	0	508	507	0	0			
9	0	0	0	0	506	505	0	0			
10	0	0	0	0	505	506	0	0			
11	0	0	0	0	508	510	0	0			
12	0	0	0	0	509	507	0	0			
13	0	0	0	0	507	507	0	0			
14	0	0	0	0	509	508	0	0			
15	0	0	0	0	511	509	0	0			
0	0	0	0	0	515	508	0	0			
1	0	0	0	0	512	508	0	0			
2	0	0	0	0	513	509	0	0			
3	0	0	0	0	511	509	0	0			
4	0	0	0	0	513	510	0	0			
5	0	0	0	0	512	509	0	0			
6	0	0	0	0	514	509	0	0			
7	0	0	0	0	516	507	0	0			
8	0	0	0	0	512	507	0	0			
9	0	0	0	0	511	510	0	0			
10	0	0	0	0	510	506	0	0			
11	0	0	0	0	507	507	0	0			
12	0	0	0	0	508	508	0	0			
13	0	0	0	0	505	506	0	0			
14	0	0	0	0	503	506	0	0			
15	0	0	0	0	504	508	0	0			
0	0	0	0	0	507	508	0	0			
1	0	0	0	0	509	507	0	0			
2	0	0	0	0	510	508	0	0			
3	0	0	0	0	511	510	0	0			
4	0	0	0	0	512	508	0	0			
5	0	0	0	0	514	508	0	0			
6	0	0	0	0	514	509	0	0			
7	0	0	0	0	515	508	0	0			
8	0	0	0	0	518	508	0	0			
9	0	0	0	0	516	510	0	0			
10	0	0	0	0	513	508	0	0			
11	0	0	0	0	511	510	0	0			
12	0	0	0	0	513	506	0	0			
13	0	0	0	0	512	507	0	0			
14	0	0	0	0	511	507	0	0			
15	0	0	0	0	505	507	0	0			
0	0	0	0	0	508	507	0	0			
1	0	0	0	0	507	507	0	0			
2	0	0	0	0	506	506	0	0			
3	0	0	0	0	502	507	0	0			
4	0	0	0	0	507	508	0	0			
5	0	0	0	0	512	508	0	0			
6	0	0	0	0	511	508	0	0			
7	0	0	0	0	511	508	0	0			
8	0	0	0	0	511	509	0	0			
9	0	0	0	0	512	510	0	0			
10	0	0	0	0	513	507	0	0			
11	0	0	0	0	516	508	0	0			
12	0	0	0	0	517	509	0	0			
13	0	0	0	0	513	509	0	0			
14	0	0	0	0	514	507	0	0			
15	0	0	0	0	511	507	0	0			
0	0	0	0	0	511	508	0	0			
1	0	0	0	0	509	508	0	0			
2	0	0	0	0	507	505	0	0			
3	0	0	0	0	511	505	0	0			
4	0	0	0	0	510	508	0	0			
5	0	0	0	0	507	508	0	0			
6	0	0	0	0	504	508	0	0			
7	0	0	0	0	508	508	0	0			
8	0	0	0	0	506	507	0	0			
9	0	0	0	0	508	508	0	0			
10	0	0	0	0	508	508	0	0			
11	0	0	0	0	511	509	0	0			
12	0	0	0	0	514	508	0	0			
13	0	0	0	0	515	509	0	0			
14	0	0	0	0	514	507	0	0			
15	0	0	0	0	512	510	0	0			
0	0	0	0	0	512	509	0	0			
1	0	0	0	0	513	508	0	0			
2	0	0	0	0	514	508	0	0			
3	0	0	0	0	512	506	0	0			
4	0	0	0	0	511	505	0	0			
5	0	0	0	0	512	507	0	0			
6	0	0	0	0	511	509	0	0			
7	0	0	0	0	509	507	0	0			
8	0	0	0	0	510	510	0	0			
9	0	0	0	0	508	506	0	0			
10	0	0	0	0	502	506	0	0			
11	0	0	0	0	505	506	0	0			
12	0	0	0	0	507	508	0	0			
13	0	0	0	0	510	509	0	0			
14	0	0	0	0	509	508	0	0			
15	0	0	0	0	510	509	0	0			
0	0	0	0	0	513	510	0	0			
1	0	0	0	0	514	508	0	0			
2	0	0	0	0	516	510	0	0			
3	0	0	0	0	517	508	0	0			
4	0	0	0	0	515	509	0	0			
5	0	0	0	0	513	508	0	0			
6	0	0	0	0	515	507	0	0			
7	0	0	0	0	513	507	0	0			
8	0	0	0	0	511	508	0	0			
9	0	0	0	0	508	507	0	0			
10	0	0	0	0	508	508	0	0			
11	0	0	0	0	507	507	0	0			
12	0	0	0	0	508	508	0	0			
13	0	0	0	0	506	504	0	0			
14	0	0	0	0	504	507	0	0			
15	0	0	0	0	505	507	0	0			
0	0	0	0	0	507	509	0	0			
1	0	0	0	0	515	508	0	0			
2	0	0	0	0	513	507	0	0			
3	0	0	0	0	513	509	0	0			
4	0	0	0	0	512	511	0	0			
5	0	0	0	0	515	508	0	0			
6	0	0	0	0	514	510	0	0			
7	0	0	0	0	514	509	0	0			
8	0	0	0	0	513	510	0	0			
9	0	0	0	0	514	508	0	0			
10	0	0	0	0	512	510	0	0			
11	0	0	0	0	511	506	0	0			
12	0	0	0	0	510	505	0	0			
13	0	0	0	0	511	507	0	0			
14	0	0	0	0	508	507	0	0			
15	0	0	0	0	505	507	0	0			
0	0	0	0	0	506	507	0	0			
1	0	0	0	0	509	504	0	0			
2	0	0	0	0	507	505	0	0			
3	0	0	0	0	507	508	0	0			
4	0	0	0	0	508	507	0	0			
5	0	0	0	0	507	509	0	0			
6	0	0	0	0	510	508	0	0			
7	0	0	0	0	512	508	0	0			
8	0	0	0	0	513	510	0	0			
9	0	0	0	0	514	510	0	0			
10	0	0	0	0	512	509	0	0			
11	0	0	0	0	517	510	0	0			
12	0	0	0	0	515	508	0	0			
13	0	0	0	0	517	509	0	0			
14	0	0	0	0	512	509	0	0			
15	0	0	0	0	510	506	0	0			
0	0	0	0	0	509	505	0	0			
1	0	0	0	0	510	507	0	0			
2	0	0	0	0	512	508	0	0			
3	0	0	0	0	509	506	0	0			
4	0	0	0	0	509	509	0	0			
5	0	0	0	0	509	507	0	0			
6	0	0	0	0	507	506	0	0			
7	0	0	0	0	505	508	0	0			
8	0	0	0	0	508	508	0	0			
9	0	0	0	0	510	509	0	0			
10	0	0	0	0	511	510	0	0			
11	0	0	0	0	511	508	0	0			
12	0	0	0	0	513	510	0	0			
13	0	0	0	0	511	509	0	0			
14	0	0	0	0	514	508	0	0			
15	0	0	0	0	512	510	0	0			
0	0	0	0	0	513	509	0	0			
1	0	0	0	0	513	507	0	0			
2	0	0	0	0	514	507	0	0			
3	0	0	0	0	511	507	0	0			
4	0	0	0	0	510	509	0	0			
5	0	0	0	0	510	506	0	0			
6	0	0	0	0	508	508	0	0			
7	0	0	0	0	508	506	0	0			
8	0	0	0	0	508	507	0	0			
9	0	0	0	0	507	507	0	0			
10	0	0	0	0	504	507	0	0			
11	0	0	0	0	505	508	0	0			
12	0	0	0	0	507	508	0	0			
13	0	0	0	0	509	507	0	0			
14	0	0	0	0	508	510	0	0			
15	0	0	0	0	512	508	0	0			
0	0	0	0	0	515	508	0	0			
1	0	0	0	0	514	509	0	0			
2	0	0	0	0	513	509	0	0			
3	0	0	0	0	513	508	0	0			
4	0	0	0	0	515	509	0	0			
5	0	0	0	0	515	508	0	0			
6	0	0	0	0	513	505	0	0			
7	0	0	0	0	512	510	0	0			
8	0	0	0	0	512	508	0	0			
9	0	0	0	0	508	507	0	0			
10	0	0	0	0	507	506	0	0			
11	0	0	0	0	507	508	0	0			
12	0	0	0	0	504	508	0	0			
13	0	0	0	0	504	506	0	0			
14	0	0	0	0	506	506	0	0			
15	0	0	0	0	510	505	0	0			
0	0	0	0	0	511	509	0	0			
1	0	0	0	0	511	509	0	0			
2	0	0	0	0	512	508	0	0			
3	0	0	0	0	511	509	0	0			
4	0	0	0	0	512	508	0	0			
5	0	0	0	0	512	510	0	0			
6	0	0	0	0	512	508	0	0			
7	0	0	0	0	515	509	0	0			
8	0	0	0	0	513	507	0	0			
9	0	0	0	0	515	507	0	0			
10	0	0	0	0	509	508	0	0			
11	0	0	0	0	510	508	0	0			
12	0	0	0	0	508	507	0	0			
13	0	0	0	0	509	509	0	0			
14	0	0	0	0	511	508	0	0			
15	0	0	0	0	511	507	0	0			
0	0	0	0	0	511	505	0	0			
1	0	0	0	0	505	506	0	0			
2	0	0	0	0	504	507	0	0			
3	0	0	0	0	508	506	0	0			
4	0	0	0	0	508	508	0	0			
5	0	0	0	0	512	512	0	0			
6	0	0	0	0	512	508	0	0			
7	0	0	0	0	512	509	0	0			
8	0	0	0	0	511	508	0	0			
9	0	0	0	0	511	506	0	0			
10	0	0	0	0	512	509	0	0			
11	0	0	0	0	515	510	0	0			
12	0	0	0	0	515	509	0	0			
13	0	0	0	0	519	510	0	0			
14	0	0	0	0	514	509	0	0			
15	0	0	0	0	511	508	0	0			
0	0	0	0	0	510	506	0	0			
1	0	0	0	0	512	508	0	0			
2	0	0	0	0	510	509	0	0			
3	0	0	0	0	507	507	0	0			
4	0	0	0	0	510	507	0	0			
5	0	0	0	0	507	507	0	0			
6	0	0	0	0	505	508	0	0			
7	0	0	0	0	507	506	0	0			
8	0	0	0	0	511	508	0	0			
9	0	0	0	0	507	508	0	0			
10	0	0	0	0	510	507	0	0			
11	0	0	0	0	511	511	0	0			
12	0	0	0	0	513	510	0	0			
13	0	0	0	0	511	510	0	0			
14	0	0	0	0	513	508	0	0			
15	0	0	0	0	513	508	0	0			
0	0	0	0	0	514	510	0	0			
1	0	0	0	0	514	508	0	0			
2	0	0	0	0	512	507	0	0			
3	0	0	0	0	514	506	0	0			
4	0	0	0	0	511	506	0	0			
5	0	0	0	0	510	507	0	0			
6	0	0	0	0	512	507	0	0			
7	0	0	0	0	505	507	0	0			
8	0	0	0	0	509	508	0	0			
9	0	0	0	0	508	507	0	0			
10	0	0	0	0	503	506	0	0			
11	0	0	0	0	504	506	0	0			
12	0	0	0	0	506	507	0	0			
13	0	0	0	0	508	509	0	0			
14	0	0	0	0	511	508	0	0			
15	0	0	0	0	516	509	0	0			
0	0	0	0	0	514	508	0	0			
1	0	0	0	0	511	509	0	0			
2	0	0	0	0	513	509	0	0			
3	0	0	0	0	514	509	0	0			
4	0	0	0	0	518	509	0	0			
5	0	0	0	0	515	507	0	0			
6	0	0	0	0	512	507	0	0			
7	0	0	0	0	512	507	0	0			
8	0	0	0	0	512	507	0	0			
9	0	0	0	0	508	508	0	0			
10	0	0	0	0	510	508	0	0			
11	0	0	0	0	509	508	0	0			
12	0	0	0	0	510	508	0	0			
13	0	0	0	0	506	506	0	0			
14	0	0	0	0	507	508	0	0			
15	0	0	0	0	507	507	0	0			
0	0	0	0	0	505	507	0	0			
1	0	0	0	0	507	510	0	0			
2	0	0	0	0	508	508	0	0			
3	0	0	0	0	510	508	0	0			
4	0	0	0	0	511	509	0	0			
5	0	0	0	0	515	510	0	0			
6	0	0	0	0	512	509	0	0			
7	0	0	0	0	514	510	0	0			
8	0	0	0	0	515	510	0	0			
9	0	0	0	0	513	509	0	0			
10	0	0	0	0	515	508	0	0			
11	0	0	0	0	514	508	0	0			
12	0	0	0	0	514	505	0	0			
13	0	0	0	0	512	507	0	0			
14	0	0	0	0	507	506	0	0			
15	0	0	0	0	504	507	0	0			
0	0	0	0	0	507	508	0	0			
1	0	0	0	0	507	505	0	0			
2	0	0	0	0	507	508	0	0			
3	0	0	0	0	506	508	0	0			
4	0	0	0	0	507	509	0	0			
5	0	0	0	0	509	508	0	0			
6	0	0	0	0	511	510	0	0			
7	0	0	0	0	512	507	0	0			
8	0	0	0	0	513	509	0	0			
9	0	0	0	0	513	507	0	0			
10	0	0	0	0	512	508	0	0			
11	0	0	0	0	511	508	0	0			
12	0	0	0	0	514	509	0	0			
13	0	0	0	0	515	508	0	0			
14	0	0	0	0	516	509	0	0			
15	0	0	0	0	512	507	0	0			
0	0	0	0	0	513	507	0	0			
1	0	0	0	0	511	506	0	0			
2	0	0	0	0	509	507	0	0			
3	0	0	0	0	511	507	0	0			
4	0	0	0	0	512	507	0	0			
5	0	0	0	0	506	509	0	0			
6	0	0	0	0	507	509	0	0			
7	0	0	0	0	505	508	0	0			
8	0	0	0	0	507	508	0	0			
9	0	0	0	0	508	508	0	0			
10	0	0	0	0	509	507	0	0			
11	0	0	0	0	511	507	0	0			
12	0	0	0	0	508	509	0	0			
13	0	0	0	0	510	511	0	0			
14	0	0	0	0	515	510	0	0			
15	0	0	0	0	515	509	0	0			
0	0	0	0	0	515	508	0	0			
1	0	0	0	0	515	508	0	0			
2	0	0	0	0	513	507	0	0			
3	0	0	0	0	514	509	0	0			
4	0	0	0	0	510	506	0	0			
5	0	0	0	0	508	505	0	0			
6	0	0	0	0	509	505	0	0			
7	0	0	0	0	511	507	0	0			
8	0	0	0	0	509	507	0	0			
9	0	0	0	0	506	506	0	0			
10	0	0	0	0	505	507	0	0			
11	0	0	0	0	511	508	0	0			
12	0	0	0	0	508	509	0	0			
13	0	0	0	0	507	508	0	0			
14	0	0	0	0	508	507	0	0			
15	0	0	0	0	509	509	0	0			
0	0	0	0	0	514	510	0	0			
1	0	0	0	0	513	508	0	0			
2	0	0	0	0	514	508	0	0			
3	0	0	0	0	513	510	0	0			
4	0	0	0	0	514	509	0	0			
5	0	0	0	0	513	508	0	0			
6	0	0	0	0	513	508	0	0			
7	0	0	0	0	512	507	0	0			
8	0	0	0	0	511	507	0	0			
9	0	0	0	0	508	507	0	0			
10	0	0	0	0	507	505	0	0			
11	0	0	0	0	507	506	0	0			
12	0	0	0	0	505	507	0	0			
13	0	0	0	0	508	508	0	0			
14	0	0	0	0	507	508	0	0			
15	0	0	0	0	508	507	0	0			
0	0	0	0	0	504	506	0	0			
1	0	0	0	0	513	507	0	0			
2	0	0	0	0	515	507	0	0			
3	0	0	0	0	510	508	0	0			
4	0	0	0	0	513	510	0	0			
5	0	0	0	0	513	511	0	0			
6	0	0	0	0	513	508	0	0			
7	0	0	0	0	515	510	0	0			
8	0	0	0	0	515	510	0	0			
9	0	0	0	0	515	508	0	0			
10	0	0	0	0	512	507	0	0			
11	0	0	0	0	512	508	0	0			
12	0	0	0	0	514	507	0	0			
13	0	0	0	0	512	507	0	0			
14	0	0	0	0	509	506	0	0			
15	0	0	0	0	509	507	0	0			
0	0	0	0	0	509	507	0	0			
1	0	0	0	0	509	507	0	0			
2	0	0	0	0	503	506	0	0			
3	0	0	0	0	501	508	0	0			
4	0	0	0	0	504	508	0	0			
5	0	0	0	0	506	508	0	0			
6	0	0	0	0	507	507	0	0			
7	0	0	0	0	512	510	0	0			
8	0	0	0	0	514	508	0	0			
9	0	0	0	0	513	507	0	0			
10	0	0	0	0	515	508	0	0			
11	0	0	0	0	515	508	0	0			
12	0	0	0	0	513	510	0	0			
13	0	0	0	0	516	508	0	0			
14	0	0	0	0	513	510	0	0			
15	0	0	0	0	513	507	0	0			
0	0	0	0	0	511	508	0	0			
1	0	0	0	0	511	506	0	0			
2	0	0	0	0	510	506	0	0			
3	0	0	0	0	510	508	0	0			
4	0	0	0	0	511	508	0	0			
5	0	0	0	0	508	507	0	0			
6	0	0	0	0	505	509	0	0			
7	0	0	0	0	505	507	0	0			
8	0	0	0	0	508	507	0	0			
9	0	0	0	0	506	508	0	0			
10	0	0	0	0	510	509	0	0			
11	0	0	0	0	509	508	0	0			
12	0	0	0	0	511	508	0	0			
13	0	0	0	0	514	509	0	0			
14	0	0	0	0	513	509	0	0			
15	0	0	0	0	514	509	0	0			
0	0	0	0	0	513	510	0	0			
1	0	0	0	0	512	508	0	0			
2	0	0	0	0	512	509	0	0			
3	0	0	0	0	512	508	0	0			
4	0	0	0	0	519	505	0	0			
5	0	0	0	0	513	506	0	0			
6	0	0	0	0	508	508	0	0			
7	0	0	0	0	507	508	0	0			
8	0	0	0	0	508	508	0	0			
9	0	0	0	0	507	507	0	0			
10	0	0	0	0	508	508	0	0			
11	0	0	0	0	508	508	0	0			
12	0	0	0	0	508	508	0	0			
13	0	0	0	0	509	507	0	0			
14	0	0	0	0	511	508	0	0			
15	0	0	0	0	510	509	0	0			
0	0	0	0	0	512	508	0	0			
1	0	0	0	0	513	509	0	0			
2	0	0	0	0	514	511	0	0			
3	0	0	0	0	513	509	0	0			
4	0	0	0	0	512	510	0	0			
5	0	0	0	0	514	510	0	0			
6	0	0	0	0	513	509	0	0			
7	0	0	0	0	514	507	0	0			
8	0	0	0	0	511	504	0	0			
9	0	0	0	0	507	508	0	0			
10	0	0	0	0	507	508	0	0			
11	0	0	0	0	509	506	0	0			
12	0	0	0	0	511	508	0	0			
13	0	0	0	0	511	508	0	0			
14	0	0	0	0	506	507	0	0			
15	0	0	0	0	504	507	0	0			
0	0	0	0	0	505	508	0	0			
1	0	0	0	0	507	506	0	0			
2	0	0	0	0	508	510	0	0			
3	0	0	0	0	508	508	0	0			
4	0	0	0	0	508	508	0	0			
5	0	0	0	0	509	508	0	0			
6	0	0	0	0	517	507	0	0			
7	0	0	0	0	522	508	0	0			
8	0	0	0	0	517	507	0	0			
9	0	0	0	0	514	510	0	0			
10	0	0	0	0	514	506	0	0			
11	0	0	0	0	510	507	0	0			
12	0	0	0	0	513	508	0	0			
13	0	0	0	0	512	506	0	0			
14	0	0	0	0	512	508	0	0			
15	0	0	0	0	509	507	0	0			
0	0	0	0	0	508	508	0	0			
1	0	0	0	0	507	507	0	0			
2	0	0	0	0	505	507	0	0			
3	0	0	0	0	507	508	0	0			
4	0	0	0	0	506	507	0	0			
5	0	0	0	0	505	508	0	0			
6	0	0	0	0	509	510	0	0			
7	0	0	0	0	511	509	0	0			
8	0	0	0	0	514	508	0	0			
9	0	0	0	0	514	508	0	0			
10	0	0	0	0	515	508	0	0			
11	0	0	0	0	514	509	0	0			
12	0	0	0	0	513	510	0	0			
13	0	0	0	0	512	507	0	0			
14	0	0	0	0	514	508	0	0			
15	0	0	0	0	513	506	0	0			
0	0	0	0	0	512	508	0	0			
1	0	0	0	0	514	509	0	0			
2	0	0	0	0	512	508	0	0			
3	0	0	0	0	507	507	0	0			
4	0	0	0	0	506	508	0	0			
5	0	0	0	0	505	507	0	0			
6	0	0	0	0	507	505	0	0			
7	0	0	0	0	507	507	0	0			
8	0	0	0	0	506	507	0	0			
9	0	0	0	0	507	507	0	0			
10	0	0	0	0	509	510	0	0			
11	0	0	0	0	511	509	0	0			
12	0	0	0	0	513	508	0	0			
13	0	0	0	0	513	508	0	0			
14	0	0	0	0	513	509	0	0			
15	0	0	0	0	513	510	0	0			
0	0	0	0	0	514	508	0	0			
1	0	0	0	0	511	507	0	0			
2	0	0	0	0	514	508	0	0			
3	0	0	0	0	513	507	0	0			
4	0	0	0	0	511	507	0	0			
5	0	0	0	0	510	505	0	0			
6	0	0	0	0	510	508	0	0			
7	0	0	0	0	510	508	0	0			
8	0	0	0	0	508	509	0	0			
9	0	0	0	0	508	508	0	0			
10	0	0	0	0	505	508	0	0			
11	0	0	0	0	504	506	0	0			
12	0	0	0	0	503	507	0	0			
13	0	0	0	0	512	509	0	0			
14	0	0	0	0	511	510	0	0			
15	0	0	0	0	508	508	0	0			
0	0	0	0	0	510	508	0	0			
1	0	0	0	0	515	509	0	0			
2	0	0	0	0	514	507	0	0			
3	0	0	0	0	517	511	0	0			
4	0	0	0	0	516	509	0	0			
5	0	0	0	0	518	510	0	0			
6	0	0	0	0	513	509	0	0			
7	0	0	0	0	509	508	0	0			
8	0	0	0	0	511	505	0	0			
9	0	0	0	0	511	507	0	0			
10	0	0	0	0	510	508	0	0			
11	0	0	0	0	510	506	0	0			
12	0	0	0	0	511	509	0	0			
13	0	0	0	0	510	507	0	0			
14	0	0	0	0	506	505	0	0			
15	0	0	0	0	505	508	0	0			
0	0	0	0	0	507	508	0	0			
1	0	0	0	0	508	507	0	0			
2	0	0	0	0	510	509	0	0			
3	0	0	0	0	509	510	0	0			
4	0	0	0	0	512	509	0	0			
5	0	0	0	0	514	510	0	0			
6	0	0	0	0	515	508	0	0			
7	0	0	0	0	513	508	0	0			
8	0	0	0	0	516	508	0	0			
9	0	0	0	0	514	510	0	0			
10	0	0	0	0	512	507	0	0			
11	0	0	0	0	512	508	0	0			
12	0	0	0	0	511	506	0	0			
13	0	0	0	0	508	507	0	0			
14	0	0	0	0	508	506	0	0			
15	0	0	0	0	505	507	0	0			
0	0	0	0	0	509	510	0	0			
1	0	0	0	0	507	507	0	0			
2	0	0	0	0	504	507	0	0			
3	0	0	0	0	505	508	0	0			
4	0	0	0	0	505	506	0	0			
5	0	0	0	0	509	509	0	0			
6	0	0	0	0	511	507	0	0			
7	0	0	0	0	514	508	0	0			
8	0	0	0	0	515	510	0	0			
9	0	0	0	0	512	509	0	0			
10	0	0	0	0	514	509	0	0			
11	0	0	0	0	513	508	0	0			
12	0	0	0	0	513	509	0	0			
13	0	0	0	0	516	509	0	0			
14	0	0	0	0	510	505	0	0			
15	0	0	0	0	516	508	0	0			
0	0	0	0	0	517	507	0	0			
1	0	0	0	0	512	508	0	0			
2	0	0	0	0	508	505	0	0			
3	0	0	0	0	508	508	0	0			
4	0	0	0	0	509	508	0	0			
5	0	0	0	0	508	507	0	0			
6	0	0	0	0	507	507	0	0			
7	0	0	0	0	507	504	0	0			
8	0	0	0	0	504	507	0	0			
9	0	0	0	0	505	508	0	0			
10	0	0	0	0	504	509	0	0			
11	0	0	0	0	508	508	0	0			
12	0	0	0	0	512	507	0	0			
13	0	0	0	0	513	508	0	0			
14	0	0	0	0	516	508	0	0			
15	0	0	0	0	516	509	0	0			
0	0	0	0	0	515	508	0	0			
1	0	0	0	0	514	509	0	0			
2	0	0	0	0	514	509	0	0			
3	0	0	0	0	516	509	0	0			
4	0	0	0	0	515	507	0	0			
5	0	0	0	0	509	507	0	0			
6	0	0	0	0	507	508	0	0			
7	0	0	0	0	508	506	0	0			
8	0	0	0	0	508	508	0	0			
9	0	0	0	0	508	506	0	0			
10	0	0	0	0	506	507	0	0			
11	0	0	0	0	504	507	0	0			
12	0	0	0	0	506	507	0	0			
13	0	0	0	0	507	506	0	0			
14	0	0	0	0	508	507	0	0			
15	0	0	0	0	512	508	0	0			
0	0	0	0	0	513	511	0	0			
1	0	0	0	0	513	507	0	0			
2	0	0	0	0	514	508	0	0			
3	0	0	0	0	513	508	0	0			
4	0	0	0	0	513	510	0	0			
5	0	0	0	0	515	509	0	0			
6	0	0	0	0	514	507	0	0			
7	0	0	0	0	514	508	0	0			
8	0	0	0	0	511	509	0	0			
9	0	0	0	0	510	506	0	0			
10	0	0	0	0	507	508	0	0			
11	0	0	0	0	510	507	0	0			
12	0	0	0	0	509	507	0	0			
13	0	0	0	0	510	507	0	0			
14	0	0	0	0	508	505	0	0			
15	0	0	0	0	504	507	0	0			
0	0	0	0	0	504	507	0	0			
1	0	0	0	0	504	511	0	0			
2	0	0	0	0	507	507	0	0			
3	0	0	0	0	506	509	0	0			
4	0	0	0	0	514	509	0	0			
5	0	0	0	0	514	508	0	0			
6	0	0	0	0	513	509	0	0			
7	0	0	0	0	515	509	0	0			
8	0	0	0	0	514	510	0	0			
9	0	0	0	0	515	510	0	0			
10	0	0	0	0	515	507	0	0			
11	0	0	0	0	513	506	0	0			
12	0	0	0	0	513	508	0	0			
13	0	0	0	0	512	508	0	0			
14	0	0	0	0	513	508	0	0			
15	0	0	0	0	508	507	0	0			
0	0	0	0	0	507	507	0	0			
1	0	0	0	0	505	507	0	0			
2	0	0	0	0	504	508	0	0			
3	0	0	0	0	510	507	0	0			
4	0	0	0	0	516	507	0	0			
5	0	0	0	0	510	508	0	0			
6	0	0	0	0	508	510	0	0			
7	0	0	0	0	507	508	0	0			
8	0	0	0	0	513	510	0	0			
9	0	0	0	0	513	507	0	0			
10	0	0	0	0	512	508	0	0			
11	0	0	0	0	513	509	0	0			
12	0	0	0	0	513	510	0	0			
13	0	0	0	0	514	510	0	0			
14	0	0	0	0	519	507	0	0			
15	0	0	0	0	513	506	0	0			
0	0	0	0	0	508	503	0	0			
1	0	0	0	0	509	508	0	0			
2	0	0	0	0	512	508	0	0			
3	0	0	0	0	514	508	0	0			
4	0	0	0	0	506	507	0	0			
5	0	0	0	0	507	507	0	0			
6	0	0	0	0	506	504	0	0			
7	0	0	0	0	505	506	0	0			
8	0	0	0	0	507	506	0	0			
9	0	0	0	0	505	507	0	0			
10	0	0	0	0	507	508	0	0			
11	0	0	0	0	509	511	0	0			
12	0	0	0	0	510	510	0	0			
13	0	0	0	0	512	508	0	0			
14	0	0	0	0	513	508	0	0			
15	0	0	0	0	515	509	0	0			
0	0	0	0	0	513	509	0	0			
1	0	0	0	0	514	510	0	0			
2	0	0	0	0	515	507	0	0			
3	0	0	0	0	516	509	0	0			
4	0	0	0	0	516	507	0	0			
5	0	0	0	0	510	508	0	0			
6	0	0	0	0	512	506	0	0			
7	0	0	0	0	511	505	0	0			
8	0	0	0	0	509	508	0	0			
9	0	0	0	0	508	508	0	0			
10	0	0	0	0	506	506	0	0			
11	0	0	0	0	504	508	0	0			
12	0	0	0	0	502	509	0	0			
13	0	0	0	0	507	508	0	0			
14	0	0	0	0	508	508	0	0			
15	0	0	0	0	512	507	0	0			
0	0	0	0	0	514	510	0	0			
1	0	0	0	0	515	510	0	0			
2	0	0	0	0	514	508	0	0			
3	0	0	0	0	514	508	0	0			
4	0	0	0	0	513	508	0	0			
5	0	0	0	0	516	509	0	0			
6	0	0	0	0	516	509	0	0			
7	0	0	0	0	512	508	0	0			
8	0	0	0	0	514	506	0	0			
9	0	0	0	0	514	508	0	0			
10	0	0	0	0	510	508	0	0			
11	0	0	0	0	510	508	0	0			
12	0	0	0	0	508	508	0	0			
13	0	0	0	0	505	506	0	0			
14	0	0	0	0	502	506	0	0			
15	0	0	0	0	504	508	0	0			
0	0	0	0	0	503	508	0	0			
1	0	0	0	0	507	508	0	0			
2	0	0	0	0	510	507	0	0			
3	0	0	0	0	513	507	0	0			
4	0	0	0	0	513	509	0	0			
5	0	0	0	0	514	509	0	0			
6	0	0	0	0	513	509	0	0			
7	0	0	0	0	513	508	0	0			
8	0	0	0	0	513	511	0	0			
9	0	0	0	0	516	508	0	0			
10	0	0	0	0	516	508	0	0			
11	0	0	0	0	513	506	0	0			
12	0	0	0	0	511	505	0	0			
13	0	0	0	0	511	507	0	0			
14	0	0	0	0	507	508	0	0			
15	0	0	0	0	508	505	0	0			
0	0	0	0	0	506	509	0	0			
1	0	0	0	0	509	509	0	0			
2	0	0	0	0	508	507	0	0			
3	0	0	0	0	506	508	0	0			
4	0	0	0	0	505	510	0	0			
5	0	0	0	0	506	509	0	0			
6	0	0	0	0	508	508	0	0			
7	0	0	0	0	512	509	0	0			
8	0	0	0	0	515	509	0	0			
9	0	0	0	0	518	510	0	0			
10	0	0	0	0	518	508	0	0			
11	0	0	0	0	516	508	0	0			
12	0	0	0	0	515	509	0	0			
13	0	0	0	0	514	507	0	0			
14	0	0	0	0	512	506	0	0			
15	0	0	0	0	513	507	0	0			
0	0	0	0	0	512	508	0	0			
1	0	0	0	0	511	507	0	0			
2	0	0	0	0	508	507	0	0			
3	0	0	0	0	508	508	0	0			
4	0	0	0	0	507	508	0	0			
5	0	0	0	0	505	507	0	0			
6	0	0	0	0	502	508	0	0			
7	0	0	0	0	503	505	0	0			
8	0	0	0	0	506	508	0	0			
9	0	0	0	0	505	508	0	0			
10	0	0	0	0	509	509	0	0			
11	0	0	0	0	511	507	0	0			
12	0	0	0	0	517	508	0	0			
13	0	0	0	0	520	508	0	0			
14	0	0	0	0	520	508	0	0			
15	0	0	0	0	516	510	0	0			
0	0	0	0	0	520	510	0	0			
1	0	0	0	0	518	508	0	0			
2	0	0	0	0	514	507	0	0			
3	0	0	0	0	510	507	0	0			
4	0	0	0	0	510	507	0	0			
5	0	0	0	0	509	505	0	0			
6	0	0	0	0	508	506	0	0			
7	0	0	0	0	505	507	0	0			
8	0	0	0	0	505	506	0	0			
9	0	0	0	0	505	506	0	0			
10	0	0	0	0	504	507	0	0			
11	0	0	0	0	502	509	0	0			
12	0	0	0	0	504	508	0	0			
13	0	0	0	0	505	507	0	0			
14	0	0	0	0	507	508	0	0			
15	0	0	0	0	512	509	0	0			
0	0	0	0	0	515	509	0	0			
1	0	0	0	0	519	509	0	0			
2	0	0	0	0	517	508	0	0			
3	0	0	0	0	516	509	0	0			
4	0	0	0	0	515	510	0	0			
5	0	0	0	0	516	509	0	0			
6	0	0	0	0	514	508	0	0			
7	0	0	0	0	512	508	0	0			
8	0	0	0	0	512	508	0	0			
9	0	0	0	0	508	508	0	0			
10	0	0	0	0	506	510	0	0			
11	0	0	0	0	505	506	0	0			
12	0	0	0	0	506	505	0	0			
13	0	0	0	0	505	507	0	0			
14	0	0	0	0	504	506	0	0			
15	0	0	0	0	505	505	0	0			
0	0	0	0	0	504	509	0	0			
1	0	0	0	0	504	508	0	0			
2	0	0	0	0	509	507	0	0			
3	0	0	0	0	513	508	0	0			
4	0	0	0	0	515	509	0	0			
5	0	0	0	0	518	507	0	0			
6	0	0	0	0	518	509	0	0			
7	0	0	0	0	515	510	0	0			
8	0	0	0	0	514	511	0	0			
9	0	0	0	0	516	506	0	0			
10	0	0	0	0	512	507	0	0			
11	0	0	0	0	515	509	0	0			
12	0	0	0	0	512	507	0	0			
13	0	0	0	0	507	506	0	0			
14	0	0	0	0	512	509	0	0			
15	0	0	0	0	508	511	0	0			
0	0	0	0	0	506	507	0	0			
1	0	0	0	0	502	505	0	0			
2	0	0	0	0	501	507	0	0			
3	0	0	0	0	506	506	0	0			
4	0	0	0	0	506	507	0	0			
5	0	0	0	0	505	508	0	0			
6	0	0	0	0	507	508	0	0			
7	0	0	0	0	511	509	0	0			
8	0	0	0	0	517	510	0	0			
9	0	0	0	0	517	509	0	0			
10	0	0	0	0	518	508	0	0			
11	0	0	0	0	516	508	0	0			
12	0	0	0	0	516	510	0	0			
13	0	0	0	0	515	510	0	0			
14	0	0	0	0	512	506	0	0			
15	0	0	0	0	514	507	0	0			
0	0	0	0	0	513	507	0	0			
1	0	0	0	0	512	507	0	0			
2	0	0	0	0	508	509	0	0			
3	0	0	0	0	508	508	0	0			
4	0	0	0	0	507	509	0	0			
5	0	0	0	0	506	506	0	0			
6	0	0	0	0	501	508	0	0			
7	0	0	0	0	501	508	0	0			
8	0	0	0	0	503	505	0	0			
9	0	0	0	0	506	508	0	0			
10	0	0	0	0	507	507	0	0			
11	0	0	0	0	512	508	0	0			
12	0	0	0	0	516	508	0	0			
13	0	0	0	0	518	511	0	0			
14	0	0	0	0	518	508	0	0			
15	0	0	0	0	516	508	0	0			
0	0	0	0	0	515	510	0	0			
1	0	0	0	0	513	509	0	0			
2	0	0	0	0	514	508	0	0			
3	0	0	0	0	513	508	0	0			
4	0	0	0	0	513	508	0	0			
5	0	0	0	0	515	507	0	0			
6	0	0	0	0	511	508	0	0			
7	0	0	0	0	505	507	0	0			
8	0	0	0	0	507	509	0	0			
9	0	0	0	0	507	506	0	0			
10	0	0	0	0	504	506	0	0			
11	0	0	0	0	500	509	0	0			
12	0	0	0	0	503	507	0	0			
13	0	0	0	0	507	507	0	0			
14	0	0	0	0	511	508	0	0			
15	0	0	0	0	512	509	0	0			
0	0	0	0	0	512	508	0	0			
1	0	0	0	0	515	508	0	0			
2	0	0	0	0	518	509	0	0			
3	0	0	0	0	513	510	0	0			
4	0	0	0	0	514	510	0	0			
5	0	0	0	0	517	511	0	0			
6	0	0	0	0	517	508	0	0			
7	0	0	0	0	515	507	0	0			
8	0	0	0	0	513	508	0	0			
9	0	0	0	0	512	508	0	0			
10	0	0	0	0	507	506	0	0			
11	0	0	0	0	508	506	0	0			
12	0	0	0	0	510	508	0	0			
13	0	0	0	0	506	506	0	0			
14	0	0	0	0	506	508	0	0			
15	0	0	0	0	502	507	0	0			
0	0	0	0	0	504	508	0	0			
1	0	0	0	0	505	508	0	0			
2	0	0	0	0	508	507	0	0			
3	0	0	0	0	510	507	0	0			
4	0	0	0	0	511	506	0	0			
5	0	0	0	0	514	507	0	0			
6	0	0	0	0	515	510	0	0			
7	0	0	0	0	514	510	0	0			
8	0	0	0	0	513	510	0	0			
9	0	0	0	0	516	510	0	0			
10	0	0	0	0	518	508	0	0			
11	0	0	0	0	515	508	0	0			
12	0	0	0	0	514	508	0	0			
13	0	0	0	0	510	508	0	0			
14	0	0	0	0	509	507	0	0			
15	0	0	0	0	509	508	0	0			
0	0	0	0	0	507	507	0	0			
1	0	0	0	0	505	506	0	0			
2	0	0	0	0	504	506	0	0			
3	0	0	0	0	505	506	0	0			
4	0	0	0	0	505	507	0	0			
5	0	0	0	0	504	508	0	0			
6	0	0	0	0	508	508	0	0			
7	0	0	0	0	512	508	0	0			
8	0	0	0	0	512	509	0	0			
9	0	0	0	0	514	508	0	0			
10	0	0	0	0	516	508	0	0			
11	0	0	0	0	514	510	0	0			
12	0	0	0	0	514	510	0	0			
13	0	0	0	0	516	510	0	0			
14	0	0	0	0	514	509	0	0			
15	0	0	0	0	513	509	0	0			
0	0	0	0	0	514	505	0	0			
1	0	0	0	0	510	508	0	0			
2	0	0	0	0	510	507	0	0			
3	0	0	0	0	510	507	0	0			
4	0	0	0	0	508	507	0	0			
5	0	0	0	0	508	507	0	0			
6	0	0	0	0	507	506	0	0			
7	0	0	0	0	504	508	0	0			
8	0	0	0	0	503	507	0	0			
9	0	0	0	0	507	508	0	0			
10	0	0	0	0	509	510	0	0			
11	0	0	0	0	509	510	0	0			
12	0	0	0	0	512	507	0	0			
13	0	0	0	0	516	505	0	0			
14	0	0	0	0	515	508	0	0			
15	0	0	0	0	517	508	0	0			
0	0	0	0	0	515	510	0	0			
1	0	0	0	0	517	509	0	0			
2	0	0	0	0	516	509	0	0			
3	0	0	0	0	513	505	0	0			
4	0	0	0	0	515	508	0	0			
5	0	0	0	0	511	508	0	0			
6	0	0	0	0	510	508	0	0			
7	0	0	0	0	506	507	0	0			
8	0	0	0	0	504	508	0	0			
9	0	0	0	0	502	508	0	0			
10	0	0	0	0	503	506	0	0			
11	0	0	0	0	507	508	0	0			
12	0	0	0	0	508	507	0	0			
13	0	0	0	0	509	509	0	0			
14	0	0	0	0	511	508	0	0			
15	0	0	0	0	512	507	0	0			
0	0	0	0	0	515	510	0	0			
1	0	0	0	0	516	506	0	0			
2	0	0	0	0	515	510	0	0			
3	0	0	0	0	513	509	0	0			
4	0	0	0	0	515	510	0	0			
5	0	0	0	0	513	509	0	0			
6	0	0	0	0	515	507	0	0			
7	0	0	0	0	516	508	0	0			
8	0	0	0	0	512	507	0	0			
9	0	0	0	0	512	506	0	0			
10	0	0	0	0	507	506	0	0			
11	0	0	0	0	507	509	0	0			
12	0	0	0	0	505	508	0	0			
13	0	0	0	0	506	508	0	0			
14	0	0	0	0	504	505	0	0			
15	0	0	0	0	505	507	0	0			
0	0	0	0	0	505	508	0	0			
1	0	0	0	0	507	508	0	0			
2	0	0	0	0	509	507	0	0			
3	0	0	0	0	508	510	0	0			
4	0	0	0	0	513	507	0	0			
5	0	0	0	0	514	508	0	0			
6	0	0	0	0	518	509	0	0			
7	0	0	0	0	516	510	0	0			
8	0	0	0	0	516	511	0	0			
9	0	0	0	0	515	509	0	0			
10	0	0	0	0	514	509	0	0			
11	0	0	0	0	516	506	0	0			
12	0	0	0	0	514	507	0	0			
13	0	0	0	0	511	508	0	0			
14	0	0	0	0	509	507	0	0			
15	0	0	0	0	510	506	0	0			
0	0	0	0	0	507	508	0	0			
1	0	0	0	0	506	508	0	0			
2	0	0	0	0	504	507	0	0			
3	0	0	0	0	504	508	0	0			
4	0	0	0	0	504	506	0	0			
5	0	0	0	0	507	507	0	0			
6	0	0	0	0	507	508	0	0			
7	0	0	0	0	512	507	0	0			
8	0	0	0	0	512	509	0	0			
9	0	0	0	0	514	508	0	0			
10	0	0	0	0	514	509	0	0			
11	0	0	0	0	515	508	0	0			
12	0	0	0	0	514	510	0	0			
13	0	0	0	0	514	510	0	0			
14	0	0	0	0	515	509	0	0			
15	0	0	0	0	515	505	0	0			
0	0	0	0	0	512	506	0	0			
1	0	0	0	0	512	508	0	0			
2	0	0	0	0	511	508	0	0			
3	0	0	0	0	509	508	0	0			
4	0	0	0	0	506	508	0	0			
5	0	0	0	0	505	507	0	0			
6	0	0	0	0	506	506	0	0			
7	0	0	0	0	503	506	0	0			
8	0	0	0	0	504	507	0	0			
9	0	0	0	0	507	512	0	0			
10	0	0	0	0	510	509	0	0			
11	0	0	0	0	511	507	0	0			
12	0	0	0	0	511	508	0	0			
13	0	0	0	0	513	508	0	0			
14	0	0	0	0	516	508	0	0			
15	0	0	0	0	519	508	0	0			
0	0	0	0	0	518	510	0	0			
1	0	0	0	0	516	510	0	0			
2	0	0	0	0	514	506	0	0			
3	0	0	0	0	515	508	0	0			
4	0	0	0	0	512	506	0	0			
5	0	0	0	0	511	508	0	0			
6	0	0	0	0	509	508	0	0			
7	0	0	0	0	506	506	0	0			
8	0	0	0	0	507	510	0	0			
9	0	0	0	0	506	506	0	0			
10	0	0	0	0	505	508	0	0			
11	0	0	0	0	504	507	0	0			
12	0	0	0	0	508	509	0	0			
13	0	0	0	0	508	507	0	0			
14	0	0	0	0	510	509	0	0			
15	0	0	0	0	509	510	0	0			
0	0	0	0	0	511	508	0	0			
1	0	0	0	0	510	507	0	0			
2	0	0	0	0	513	506	0	0			
3	0	0	0	0	513	507	0	0			
4	0	0	0	0	515	511	0	0			
5	0	0	0	0	515	508	0	0			
6	0	0	0	0	514	507	0	0			
7	0	0	0	0	513	508	0	0			
8	0	0	0	0	512	507	0	0			
9	0	0	0	0	513	507	0	0			
10	0	0	0	0	510	506	0	0			
11	0	0	0	0	509	509	0	0			
12	0	0	0	0	506	507	0	0			
13	0	0	0	0	508	507	0	0			
14	0	0	0	0	507	505	0	0			
15	0	0	0	0	506	508	0	0			
0	0	0	0	0	506	508	0	0			
1	0	0	0	0	508	508	0	0			
2	0	0	0	0	508	507	0	0			
3	0	0	0	0	510	509	0	0			
4	0	0	0	0	512	508	0	0			
5	0	0	0	0	514	508	0	0			
6	0	0	0	0	516	511	0	0			
7	0	0	0	0	514	509	0	0			
8	0	0	0	0	516	508	0	0			
9	0	0	0	0	514	510	0	0			
10	0	0	0	0	514	509	0	0			
11	0	0	0	0	514	509	0	0			
12	0	0	0	0	515	506	0	0			
13	0	0	0	0	511	508	0	0			
14	0	0	0	0	510	507	0	0			
15	0	0	0	0	509	508	0	0			
0	0	0	0	0	508	507	0	0			
1	0	0	0	0	504	506	0	0			
2	0	0	0	0	505	507	0	0			
3	0	0	0	0	505	507	0	0			
4	0	0	0	0	507	509	0	0			
5	0	0	0	0	504	508	0	0			
6	0	0	0	0	505	508	0	0			
7	0	0	0	0	509	508	0	0			
8	0	0	0	0	514	508	0	0			
9	0	0	0	0	514	508	0	0			
10	0	0	0	0	512	509	0	0			
11	0	0	0	0	513	511	0	0			
12	0	0	0	0	513	509	0	0			
13	0	0	0	0	512	510	0	0			
14	0	0	0	0	516	508	0	0			
15	0	0	0	0	519	505	0	0			
0	0	0	0	0	517	507	0	0			
1	0	0	0	0	511	507	0	0			
2	0	0	0	0	509	507	0	0			
3	0	0	0	0	508	506	0	0			
4	0	0	0	0	509	508	0	0			
5	0	0	0	0	507	507	0	0			
6	0	0	0	0	505	507	0	0			
7	0	0	0	0	506	507	0	0			
8	0	0	0	0	504	508	0	0			
9	0	0	0	0	507	510	0	0			
10	0	0	0	0	509	508	0	0			
11	0	0	0	0	508	507	0	0			
12	0	0	0	0	509	510	0	0			
13	0	0	0	0	515	508	0	0			
14	0	0	0	0	512	506	0	0			
15	0	0	0	0	512	509	0	0			
0	0	0	0	0	516	512	0	0			
1	0	0	0	0	516	508	0	0			
2	0	0	0	0	516	508	0	0			
3	0	0	0	0	515	508	0	0			
4	0	0	0	0	512	508	0	0			
5	0	0	0	0	509	508	0	0			
6	0	0	0	0	511	506	0	0			
7	0	0	0	0	508	506	0	0			
8	0	0	0	0	508	510	0	0			
9	0	0	0	0	505	507	0	0			
10	0	0	0	0	505	506	0	0			
11	0	0	0	0	505	508	0	0			
12	0	0	0	0	505	508	0	0			
13	0	0	0	0	507	507	0	0			
14	0	0	0	0	508	508	0	0			
15	0	0	0	0	509	508	0	0			
0	0	0	0	0	512	507	0	0			
1	0	0	0	0	515	509	0	0			
2	0	0	0	0	515	510	0	0			
3	0	0	0	0	516	510	0	0			
4	0	0	0	0	513	513	0	0			
5	0	0	0	0	515	509	0	0			
6	0	0	0	0	516	508	0	0			
7	0	0	0	0	515	509	0	0			
8	0	0	0	0	514	507	0	0			
9	0	0	0	0	511	505	0	0			
10	0	0	0	0	510	507	0	0			
11	0	0	0	0	508	507	0	0			
12	0	0	0	0	508	507	0	0			
13	0	0	0	0	508	508	0	0			
14	0	0	0	0	505	505	0	0			
15	0	0	0	0	503	506	0	0			
0	0	0	0	0	502	507	0	0			
1	0	0	0	0	508	508	0	0			
2	0	0	0	0	510	510	0	0			
3	0	0	0	0	511	508	0	0			
4	0	0	0	0	513	508	0	0			
5	0	0	0	0	512	506	0	0			
6	0	0	0	0	515	508	0	0			
7	0	0	0	0	514	509	0	0			
8	0	0	0	0	513	511	0	0			
9	0	0	0	0	513	508	0	0			
10	0	0	0	0	514	507	0	0			
11	0	0	0	0	516	509	0	0			
12	0	0	0	0	515	506	0	0			
13	0	0	0	0	510	507	0	0			
14	0	0	0	0	510	509	0	0			
15	0	0	0	0	509	508	0	0			
0	0	0	0	0	510	507	0	0			
1	0	0	0	0	509	509	0	0			
2	0	0	0	0	504	506	0	0			
3	0	0	0	0	503	508	0	0			
4	0	0	0	0	508	505	0	0			
5	0	0	0	0	507	506	0	0			
6	0	0	0	0	509	508	0	0			
7	0	0	0	0	510	507	0	0			
8	0	0	0	0	511	510	0	0			
9	0	0	0	0	512	509	0	0			
10	0	0	0	0	512	509	0	0			
11	0	0	0	0	514	509	0	0			
12	0	0	0	0	515	511	0	0			
13	0	0	0	0	513	508	0	0			
14	0	0	0	0	515	507	0	0			
15	0	0	0	0	512	507	0	0			
0	0	0	0	0	512	510	0	0			
1	0	0	0	0	511	509	0	0			
2	0	0	0	0	510	507	0	0			
3	0	0	0	0	507	506	0	0			
4	0	0	0	0	508	506	0	0			
5	0	0	0	0	508	505	0	0			
6	0	0	0	0	506	505	0	0			
7	0	0	0	0	506	507	0	0			
8	0	0	0	0	506	508	0	0			
9	0	0	0	0	506	508	0	0			
10	0	0	0	0	507	510	0	0			
11	0	0	0	0	512	508	0	0			
12	0	0	0	0	513	510	0	0			
13	0	0	0	0	515	509	0	0			
14	0	0	0	0	514	508	0	0			
15	0	0	0	0	514	510	0	0			
0	0	0	0	0	514	508	0	0			
1	0	0	0	0	514	510	0	0			
2	0	0	0	0	517	508	0	0			
3	0	0	0	0	515	506	0	0			
4	0	0	0	0	511	506	0	0			
5	0	0	0	0	509	507	0	0			
6	0	0	0	0	512	508	0	0			
7	0	0	0	0	507	507	0	0			
8	0	0	0	0	508	508	0	0			
9	0	0	0	0	511	506	0	0			
10	0	0	0	0	509	505	0	0			
11	0	0	0	0	505	508	0	0			
12	0	0	0	0	505	509	0	0			
13	0	0	0	0	506	507	0	0			
14	0	0	0	0	508	510	0	0			
15	0	0	0	0	510	507	0	0			
0	0	0	0	0	512	506	0	0			
1	0	0	0	0	512	508	0	0			
2	0	0	0	0	512	508	0	0			
3	0	0	0	0	512	509	0	0			
4	0	0	0	0	514	510	0	0			
5	0	0	0	0	516	510	0	0			
6	0	0	0	0	515	509	0	0			
7	0	0	0	0	514	508	0	0			
8	0	0	0	0	512	507	0	0			
9	0	0	0	0	512	506	0	0			
10	0	0	0	0	512	508	0	0			
11	0	0	0	0	509	508	0	0			
12	0	0	0	0	509	507	0	0			
13	0	0	0	0	511	507	0	0			
14	0	0	0	0	507	504	0	0			
15	0	0	0	0	503	506	0	0			
0	0	0	0	0	503	508	0	0			
1	0	0	0	0	507	508	0	0			
2	0	0	0	0	507	509	0	0			
3	0	0	0	0	508	507	0	0			
4	0	0	0	0	513	508	0	0			
5	0	0	0	0	513	508	0	0			
6	0	0	0	0	512	510	0	0			
7	0	0	0	0	514	508	0	0			
8	0	0	0	0	516	514	0	0			
9	0	0	0	0	515	511	0	0			
10	0	0	0	0	514	508	0	0			
11	0	0	0	0	515	506	0	0			
12	0	0	0	0	513	507	0	0			
13	0	0	0	0	513	507	0	0			
14	0	0	0	0	509	506	0	0			
15	0	0	0	0	509	507	0	0			
0	0	0	0	0	508	508	0	0			
1	0	0	0	0	508	507	0	0			
2	0	0	0	0	508	506	0	0			
3	0	0	0	0	507	506	0	0			
4	0	0	0	0	505	509	0	0			
5	0	0	0	0	508	507	0	0			
6	0	0	0	0	508	507	0	0			
7	0	0	0	0	510	510	0	0			
8	0	0	0	0	513	509	0	0			
9	0	0	0	0	513	508	0	0			
10	0	0	0	0	515	510	0	0			
11	0	0	0	0	511	511	0	0			
12	0	0	0	0	514	508	0	0			
13	0	0	0	0	515	508	0	0			
14	0	0	0	0	513	506	0	0			
15	0	0	0	0	513	507	0	0			
0	0	0	0	0	514	507	0	0			
1	0	0	0	0	513	508	0	0			
2	0	0	0	0	510	509	0	0			
3	0	0	0	0	510	508	0	0			
4	0	0	0	0	507	508	0	0			
5	0	0	0	0	507	505	0	0			
6	0	0	0	0	507	505	0	0			
7	0	0	0	0	504	508	0	0			
8	0	0	0	0	501	507	0	0			
9	0	0	0	0	507	511	0	0			
10	0	0	0	0	509	509	0	0			
11	0	0	0	0	508	506	0	0			
12	0	0	0	0	511	508	0	0			
13	0	0	0	0	512	508	0	0			
14	0	0	0	0	513	508	0	0			
15	0	0	0	0	515	509	0	0			
0	0	0	0	0	514	508	0	0			
1	0	0	0	0	515	509	0	0			
2	0	0	0	0	516	510	0	0			
3	0	0	0	0	513	508	0	0			
4	0	0	0	0	513	505	0	0			
5	0	0	0	0	513	507	0	0			
6	0	0	0	0	511	508	0	0			
7	0	0	0	0	509	507	0	0			
8	0	0	0	0	508	507	0	0			
9	0	0	0	0	508	507	0	0			
10	0	0	0	0	507	507	0	0			
11	0	0	0	0	506	508	0	0			
12	0	0	0	0	506	504	0	0			
13	0	0	0	0	506	508	0	0			
14	0	0	0	0	508	509	0	0			
15	0	0	0	0	508	508	0	0			
0	0	0	0	0	511	508	0	0			
1	0	0	0	0	509	507	0	0			
2	0	0	0	0	513	508	0	0			
3	0	0	0	0	518	507	0	0			
4	0	0	0	0	516	510	0	0			
5	0	0	0	0	516	508	0	0			
6	0	0	0	0	516	508	0	0			
7	0	0	0	0	515	506	0	0			
8	0	0	0	0	514	508	0	0			
9	0	0	0	0	512	509	0	0			
10	0	0	0	0	510	508	0	0			
11	0	0	0	0	509	507	0	0			
12	0	0	0	0	504	508	0	0			
13	0	0	0	0	504	507	0	0			
14	0	0	0	0	507	507	0	0			
15	0	0	0	0	510	508	0	0			
0	0	0	0	0	506	508	0	0			
1	0	0	0	0	511	508	0	0			
2	0	0	0	0	511	509	0	0			
3	0	0	0	0	510	507	0	0			
4	0	0	0	0	510	509	0	0			
5	0	0	0	0	509	507	0	0			
6	0	0	0	0	514	506	0	0			
7	0	0	0	0	513	509	0	0			
8	0	0	0	0	515	508	0	0			
9	0	0	0	0	514	508	0	0			
10	0	0	0	0	516	509	0	0			
11	0	0	0	0	512	504	0	0			
12	0	0	0	0	513	507	0	0			
13	0	0	0	0	513	507	0	0			
14	0	0	0	0	512	507	0	0			
15	0	0	0	0	507	508	0	0			
0	0	0	0	0	507	508	0	0			
1	0	0	0	0	507	507	0	0			
2	0	0	0	0	508	508	0	0			
3	0	0	0	0	505	508	0	0			
4	0	0	0	0	506	507	0	0			
5	0	0	0	0	509	509	0	0			
6	0	0	0	0	508	507	0	0			
7	0	0	0	0	510	509	0	0			
8	0	0	0	0	512	509	0	0			
9	0	0	0	0	511	509	0	0			
10	0	0	0	0	513	508	0	0			
11	0	0	0	0	516	508	0	0			
12	0	0	0	0	515	510	0	0			
13	0	0	0	0	516	507	0	0			
14	0	0	0	0	514	508	0	0			
15	0	0	0	0	514	508	0	0			
0	0	0	0	0	511	510	0	0			
1	0	0	0	0	512	506	0	0			
2	0	0	0	0	512	507	0	0			
3	0	0	0	0	508	507	0	0			
4	0	0	0	0	510	507	0	0			
5	0	0	0	0	510	508	0	0			
6	0	0	0	0	506	507	0	0			
7	0	0	0	0	504	508	0	0			
8	0	0	0	0	508	507	0	0			
9	0	0	0	0	509	510	0	0			
10	0	0	0	0	505	508	0	0			
11	0	0	0	0	508	507	0	0			
12	0	0	0	0	513	508	0	0			
13	0	0	0	0	514	507	0	0			
14	0	0	0	0	515	510	0	0			
15	0	0	0	0	515	510	0	0			
0	0	0	0	0	515	510	0	0			
1	0	0	0	0	514	509	0	0			
2	0	0	0	0	511	507	0	0			
3	0	0	0	0	511	508	0	0			
4	0	0	0	0	510	509	0	0			
5	0	0	0	0	511	506	0	0			
6	0	0	0	0	511	507	0	0			
7	0	0	0	0	510	508	0	0			
8	0	0	0	0	508	507	0	0			
9	0	0	0	0	512	507	0	0			
10	0	0	0	0	511	508	0	0			
11	0	0	0	0	508	508	0	0			
12	0	0	0	0	503	507	0	0			
13	0	0	0	0	506	506	0	0			
14	0	0	0	0	511	505	0	0			
15	0	0	0	0	514	506	0	0			
0	0	0	0	0	512	507	0	0			
1	0	0	0	0	514	508	0	0			
2	0	0	0	0	515	508	0	0			
3	0	0	0	0	513	510	0	0			
4	0	0	0	0	513	508	0	0			
5	0	0	0	0	514	511	0	0			
6	0	0	0	0	513	510	0	0			
7	0	0	0	0	513	508	0	0			
8	0	0	0	0	512	509	0	0			
9	0	0	0	0	505	506	0	0			
10	0	0	0	0	511	507	0	0			
11	0	0	0	0	513	508	0	0			
12	0	0	0	0	509	507	0	0			
13	0	0	0	0	508	507	0	0			
14	0	0	0	0	507	508	0	0			
15	0	0	0	0	505	507	0	0			
0	0	0	0	0	507	508	0	0			
1	0	0	0	0	510	509	0	0			
2	0	0	0	0	507	509	0	0			
3	0	0	0	0	507	509	0	0			
4	0	0	0	0	512	508	0	0			
5	0	0	0	0	515	509	0	0			
6	0	0	0	0	515	508	0	0			
7	0	0	0	0	512	510	0	0			
8	0	0	0	0	511	508	0	0			
9	0	0	0	0	512	508	0	0			
10	0	0	0	0	513	507	0	0			
11	0	0	0	0	513	508	0	0			
12	0	0	0	0	514	507	0	0			
13	0	0	0	0	513	507	0	0			
14	0	0	0	0	511	508	0	0			
15	0	0	0	0	509	506	0	0			
0	0	0	0	0	507	507	0	0			
1	0	0	0	0	508	508	0	0			
2	0	0	0	0	508	508	0	0			
3	0	0	0	0	504	508	0	0			
4	0	0	0	0	505	507	0	0			
5	0	0	0	0	504	507	0	0			
6	0	0	0	0	507	509	0	0			
7	0	0	0	0	510	510	0	0			
8	0	0	0	0	513	508	0	0			
9	0	0	0	0	514	509	0	0			
10	0	0	0	0	512	506	0	0			
11	0	0	0	0	515	510	0	0			
12	0	0	0	0	516	512	0	0			
13	0	0	0	0	514	509	0	0			
14	0	0	0	0	513	507	0	0			
15	0	0	0	0	513	509	0	0			
0	0	0	0	0	513	507	0	0			
1	0	0	0	0	512	508	0	0			
2	0	0	0	0	509	507	0	0			
3	0	0	0	0	505	504	0	0			
4	0	0	0	0	509	507	0	0			
5	0	0	0	0	508	506	0	0			
6	0	0	0	0	508	508	0	0			
7	0	0	0	0	506	509	0	0			
8	0	0	0	0	508	508	0	0			
9	0	0	0	0	508	509	0	0			
10	0	0	0	0	508	507	0	0			
11	0	0	0	0	509	509	0	0			
12	0	0	0	0	512	505	0	0			
13	0	0	0	0	511	509	0	0			
14	0	0	0	0	511	509	0	0			
15	0	0	0	0	513	511	0	0			
0	0	0	0	0	513	509	0	0			
1	0	0	0	0	514	511	0	0			
2	0	0	0	0	516	508	0	0			
3	0	0	0	0	513	506	0	0			
4	0	0	0	0	515	507	0	0			
5	0	0	0	0	512	508	0	0			
6	0	0	0	0	512	507	0	0			
7	0	0	0	0	509	507	0	0			
8	0	0	0	0	509	508	0	0			
9	0	0	0	0	509	507	0	0			
10	0	0	0	0	508	508	0	0			
11	0	0	0	0	508	505	0	0			
12	0	0	0	0	505	505	0	0			
13	0	0	0	0	507	508	0	0			
14	0	0	0	0	508	508	0	0			
15	0	0	0	0	508	508	0	0			
0	0	0	0	0	512	509	0	0			
1	0	0	0	0	512	510	0	0			
2	0	0	0	0	513	508	0	0			
3	0	0	0	0	512	509	0	0			
4	0	0	0	0	513	509	0	0			
5	0	0	0	0	517	508	0	0			
6	0	0	0	0	514	509	0	0			
7	0	0	0	0	513	508	0	0			
8	0	0	0	0	512	507	0	0			
9	0	0	0	0	512	507	0	0			
10	0	0	0	0	511	505	0	0			
11	0	0	0	0	510	506	0	0			
12	0	0	0	0	508	507	0	0			
13	0	0	0	0	507	507	0	0			
14	0	0	0	0	507	508	0	0			
15	0	0	0	0	506	505	0	0			
0	0	0	0	0	505	508	0	0			
1	0	0	0	0	507	508	0	0			
2	0	0	0	0	508	508	0	0			
3	0	0	0	0	510	509	0	0			
4	0	0	0	0	509	509	0	0			
5	0	0	0	0	513	508	0	0			
6	0	0	0	0	514	508	0	0			
7	0	0	0	0	516	507	0	0			
8	0	0	0	0	513	510	0	0			
9	0	0	0	0	511	510	0	0			
10	0	0	0	0	512	509	0	0			
11	0	0	0	0	514	508	0	0			
12	0	0	0	0	514	507	0	0			
13	0	0	0	0	511	507	0	0			
14	0	0	0	0	510	507	0	0			
15	0	0	0	0	508	507	0	0			
0	0	0	0	0	509	508	0	0			
1	0	0	0	0	511	508	0	0			
2	0	0	0	0	508	505	0	0			
3	0	0	0	0	505	508	0	0			
4	0	0	0	0	507	508	0	0			
5	0	0	0	0	507	508	0	0			
6	0	0	0	0	508	508	0	0			
7	0	0	0	0	509	508	0	0			
8	0	0	0	0	513	509	0	0			
9	0	0	0	0	513	508	0	0			
10	0	0	0	0	511	508	0	0			
11	0	0	0	0	513	510	0	0			
12	0	0	0	0	511	509	0	0			
13	0	0	0	0	515	509	0	0			
14	0	0	0	0	515	508	0	0			
15	0	0	0	0	515	507	0	0			
0	0	0	0	0	510	507	0	0			
1	0	0	0	0	510	507	0	0			
2	0	0	0	0	512	509	0	0			
3	0	0	0	0	510	508	0	0			
4	0	0	0	0	510	508	0	0			
5	0	0	0	0	510	507	0	0			
6	0	0	0	0	507	505	0	0			
7	0	0	0	0	504	506	0	0			
8	0	0	0	0	504	508	0	0			
9	0	0	0	0	506	508	0	0			
10	0	0	0	0	508	505	0	0			
11	0	0	0	0	511	510	0	0			
12	0	0	0	0	511	509	0	0			
13	0	0	0	0	514	508	0	0			
14	0	0	0	0	513	510	0	0			
15	0	0	0	0	517	507	0	0			
0	0	0	0	0	515	510	0	0			
1	0	0	0	0	513	508	0	0			
2	0	0	0	0	515	508	0	0			
3	0	0	0	0	514	508	0	0			
4	0	0	0	0	511	508	0	0			
5	0	0	0	0	511	507	0	0			
6	0	0	0	0	512	508	0	0			
7	0	0	0	0	507	507	0	0			
8	0	0	0	0	508	508	0	0			
9	0	0	0	0	507	507	0	0			
10	0	0	0	0	508	507	0	0			
11	0	0	0	0	505	506	0	0			
12	0	0	0	0	509	508	0	0			
13	0	0	0	0	510	507	0	0			
14	0	0	0	0	509	507	0	0			
15	0	0	0	0	508	508	0	0			
0	0	0	0	0	510	508	0	0			
1	0	0	0	0	513	509	0	0			
2	0	0	0	0	515	508	0	0			
3	0	0	0	0	513	509	0	0			
4	0	0	0	0	512	508	0	0			
5	0	0	0	0	514	508	0	0			
6	0	0	0	0	514	508	0	0			
7	0	0	0	0	513	508	0	0			
8	0	0	0	0	511	508	0	0			
9	0	0	0	0	512	506	0	0			
10	0	0	0	0	511	509	0	0			
11	0	0	0	0	510	507	0	0			
12	0	0	0	0	508	507	0	0			
13	0	0	0	0	508	507	0	0			
14	0	0	0	0	506	508	0	0			
15	0	0	0	0	503	505	0	0			
0	0	0	0	0	507	507	0	0			
1	0	0	0	0	509	509	0	0			
2	0	0	0	0	507	509	0	0			
3	0	0	0	0	508	508	0	0			
4	0	0	0	0	511	508	0	0			
5	0	0	0	0	511	507	0	0			
6	0	0	0	0	515	508	0	0			
7	0	0	0	0	516	510	0	0			
8	0	0	0	0	515	510	0	0			
9	0	0	0	0	514	511	0	0			
10	0	0	0	0	514	507	0	0			
11	0	0	0	0	513	507	0	0			
12	0	0	0	0	511	506	0	0			
13	0	0	0	0	512	505	0	0			
14	0	0	0	0	509	508	0	0			
15	0	0	0	0	507	506	0	0			
0	0	0	0	0	507	508	0	0			
1	0	0	0	0	507	507	0	0			
2	0	0	0	0	507	507	0	0			
3	0	0	0	0	504	508	0	0			
4	0	0	0	0	503	507	0	0			
5	0	0	0	0	508	508	0	0			
6	0	0	0	0	509	508	0	0			
7	0	0	0	0	509	510	0	0			
8	0	0	0	0	513	506	0	0			
9	0	0	0	0	513	509	0	0			
10	0	0	0	0	514	509	0	0			
11	0	0	0	0	514	510	0	0			
12	0	0	0	0	514	509	0	0			
13	0	0	0	0	516	508	0	0			
14	0	0	0	0	518	508	0	0			
15	0	0	0	0	516	509	0	0			
0	0	0	0	0	514	507	0	0			
1	0	0	0	0	511	507	0	0			
2	0	0	0	0	508	506	0	0			
3	0	0	0	0	505	507	0	0			
4	0	0	0	0	506	508	0	0			
5	0	0	0	0	509	507	0	0			
6	0	0	0	0	505	506	0	0			
7	0	0	0	0	504	507	0	0			
8	0	0	0	0	505	508	0	0			
9	0	0	0	0	508	507	0	0			
10	0	0	0	0	509	509	0	0			
11	0	0	0	0	511	508	0	0			
12	0	0	0	0	513	510	0	0			
13	0	0	0	0	512	509	0	0			
14	0	0	0	0	517	509	0	0			
15	0	0	0	0	516	508	0	0			
0	0	0	0	0	515	511	0	0			
1	0	0	0	0	514	510	0	0			
2	0	0	0	0	518	508	0	0			
3	0	0	0	0	514	508	0	0			
4	0	0	0	0	511	505	0	0			
5	0	0	0	0	509	506	0	0			
6	0	0	0	0	508	509	0	0			
7	0	0	0	0	508	506	0	0			
8	0	0	0	0	508	508	0	0			
9	0	0	0	0	508	508	0	0			
10	0	0	0	0	504	506	0	0			
11	0	0	0	0	504	507	0	0			
12	0	0	0	0	507	506	0	0			
13	0	0	0	0	505	507	0	0			
14	0	0	0	0	508	508	0	0			
15	0	0	0	0	511	508	0	0			
0	0	0	0	0	512	509	0	0			
1	0	0	0	0	513	510	0	0			
2	0	0	0	0	515	510	0	0			
3	0	0	0	0	516	508	0	0			
4	0	0	0	0	518	509	0	0			
5	0	0	0	0	513	508	0	0			
6	0	0	0	0	515	509	0	0			
7	0	0	0	0	516	509	0	0			
8	0	0	0	0	513	508	0	0			
9	0	0	0	0	510	508	0	0			
10	0	0	0	0	508	509	0	0			
11	0	0	0	0	507	506	0	0			
12	0	0	0	0	506	507	0	0			
13	0	0	0	0	507	507	0	0			
14	0	0	0	0	510	504	0	0			
15	0	0	0	0	505	507	0	0			
0	0	0	0	0	507	506	0	0			
1	0	0	0	0	508	509	0	0			
2	0	0	0	0	508	506	0	0			
3	0	0	0	0	511	507	0	0			
4	0	0	0	0	510	508	0	0			
5	0	0	0	0	512	508	0	0			
6	0	0	0	0	513	507	0	0			
7	0	0	0	0	515	508	0	0			
8	0	0	0	0	513	509	0	0			
9	0	0	0	0	515	509	0	0			
10	0	0	0	0	515	508	0	0			
11	0	0	0	0	513	508	0	0			
12	0	0	0	0	513	507	0	0			
13	0	0	0	0	510	508	0	0			
14	0	0	0	0	511	509	0	0			
15	0	0	0	0	510	505	0	0			
0	0	0	0	0	509	507	0	0			
1	0	0	0	0	507	507	0	0			
2	0	0	0	0	506	508	0	0			
3	0	0	0	0	508	507	0	0			
4	0	0	0	0	506	508	0	0			
5	0	0	0	0	507	508	0	0			
6	0	0	0	0	508	509	0	0			
7	0	0	0	0	510	510	0	0			
8	0	0	0	0	510	509	0	0			
9	0	0	0	0	515	508	0	0			
10	0	0	0	0	515	508	0	0			
11	0	0	0	0	515	508	0	0			
12	0	0	0	0	513	512	0	0			
13	0	0	0	0	514	510	0	0			
14	0	0	0	0	512	507	0	0			
15	0	0	0	0	511	508	0	0			
0	0	0	0	0	512	507	0	0			
1	0	0	0	0	512	507	0	0			
2	0	0	0	0	510	507	0	0			
3	0	0	0	0	508	506	0	0			
4	0	0	0	0	511	509	0	0			
5	0	0	0	0	507	509	0	0			
6	0	0	0	0	509	508	0	0			
7	0	0	0	0	506	506	0	0			
8	0	0	0	0	504	508	0	0			
9	0	0	0	0	507	506	0	0			
10	0	0	0	0	507	507	0	0			
11	0	0	0	0	510	508	0	0			
12	0	0	0	0	513	505	0	0			
13	0	0	0	0	515	508	0	0			
14	0	0	0	0	515	506	0	0			
15	0	0	0	0	514	508	0	0			
0	0	0	0	0	514	510	0	0			
1	0	0	0	0	514	511	0	0			
2	0	0	0	0	516	507	0	0			
3	0	0	0	0	515	508	0	0			
4	0	0	0	0	513	507	0	0			
5	0	0	0	0	513	508	0	0			
6	0	0	0	0	511	508	0	0			
7	0	0	0	0	508	508	0	0			
8	0	0	0	0	507	507	0	0			
9	0	0	0	0	506	507	0	0			
10	0	0	0	0	508	509	0	0			
11	0	0	0	0	506	506	0	0			
12	0	0	0	0	505	507	0	0			
13	0	0	0	0	506	508	0	0			
14	0	0	0	0	508	508	0	0			
15	0	0	0	0	508	507	0	0			
0	0	0	0	0	510	506	0	0			
1	0	0	0	0	511	508	0	0			
2	0	0	0	0	517	511	0	0			
3	0	0	0	0	519	510	0	0			
4	0	0	0	0	517	509	0	0			
5	0	0	0	0	514	507	0	0			
6	0	0	0	0	512	509	0	0			
7	0	0	0	0	512	508	0	0			
8	0	0	0	0	513	509	0	0			
9	0	0	0	0	510	507	0	0			
10	0	0	0	0	508	506	0	0			
11	0	0	0	0	509	508	0	0			
12	0	0	0	0	506	506	0	0			
13	0	0	0	0	508	507	0	0			
14	0	0	0	0	507	508	0	0			
15	0	0	0	0	508	506	0	0			
0	0	0	0	0	507	508	0	0			
1	0	0	0	0	511	508	0	0			
2	0	0	0	0	511	508	0	0			
3	0	0	0	0	510	507	0	0			
4	0	0	0	0	510	509	0	0			
5	0	0	0	0	516	508	0	0			
6	0	0	0	0	512	508	0	0			
7	0	0	0	0	511	509	0	0			
8	0	0	0	0	515	510	0	0			
9	0	0	0	0	516	508	0	0			
10	0	0	0	0	519	507	0	0			
11	0	0	0	0	515	508	0	0			
12	0	0	0	0	515	507	0	0			
13	0	0	0	0	512	506	0	0			
14	0	0	0	0	510	509	0	0			
15	0	0	0	0	508	507	0	0			
0	0	0	0	0	507	507	0	0			
1	0	0	0	0	506	506	0	0			
2	0	0	0	0	503	508	0	0			
3	0	0	0	0	504	506	0	0			
4	0	0	0	0	504	508	0	0			
5	0	0	0	0	508	507	0	0			
6	0	0	0	0	510	509	0	0			
7	0	0	0	0	510	508	0	0			
8	0	0	0	0	509	507	0	0			
9	0	0	0	0	514	508	0	0			
10	0	0	0	0	518	510	0	0			
11	0	0	0	0	516	508	0	0			
12	0	0	0	0	514	509	0	0			
13	0	0	0	0	514	509	0	0			
14	0	0	0	0	512	509	0	0			
15	0	0	0	0	513	508	0	0			
0	0	0	0	0	512	507	0	0			
1	0	0	0	0	511	505	0	0			
2	0	0	0	0	511	506	0	0			
3	0	0	0	0	511	508	0	0			
4	0	0	0	0	512	509	0	0			
5	0	0	0	0	507	508	0	0			
6	0	0	0	0	506	507	0	0			
7	0	0	0	0	505	506	0	0			
8	0	0	0	0	507	508	0	0			
9	0	0	0	0	507	508	0	0			
10	0	0	0	0	508	510	0	0			
11	0	0	0	0	509	509	0	0			
12	0	0	0	0	512	509	0	0			
13	0	0	0	0	514	509	0	0			
14	0	0	0	0	511	509	0	0			
15	0	0	0	0	512	509	0	0			
0	0	0	0	0	514	509	0	0			
1	0	0	0	0	518	509	0	0			
2	0	0	0	0	517	508	0	0			
3	0	0	0	0	512	507	0	0			
4	0	0	0	0	512	508	0	0			
5	0	0	0	0	511	507	0	0			
6	0	0	0	0	510	508	0	0			
7	0	0	0	0	507	506	0	0			
8	0	0	0	0	506	507	0	0			
9	0	0	0	0	508	508	0	0			
10	0	0	0	0	509	506	0	0			
11	0	0	0	0	504	508	0	0			
12	0	0	0	0	504	508	0	0			
13	0	0	0	0	505	508	0	0			
14	0	0	0	0	507	509	0	0			
15	0	0	0	0	511	508	0	0			
0	0	0	0	0	513	509	0	0			
1	0	0	0	0	513	508	0	0			
2	0	0	0	0	515	508	0	0			
3	0	0	0	0	515	508	0	0			
4	0	0	0	0	515	508	0	0			
5	0	0	0	0	513	507	0	0			
6	0	0	0	0	514	510	0	0			
7	0	0	0	0	514	508	0	0			
8	0	0	0	0	512	508	0	0			
9	0	0	0	0	511	506	0	0			
10	0	0	0	0	511	505	0	0			
11	0	0	0	0	511	508	0	0			
12	0	0	0	0	507	506	0	0			
13	0	0	0	0	508	507	0	0			
14	0	0	0	0	507	508	0	0			
15	0	0	0	0	503	509	0	0			
0	0	0	0	0	502	508	0	0			
1	0	0	0	0	506	510	0	0			
2	0	0	0	0	512	508	0	0			
3	0	0	0	0	512	509	0	0			
4	0	0	0	0	513	506	0	0			
5	0	0	0	0	512	505	0	0			
6	0	0	0	0	515	510	0	0			
7	0	0	0	0	514	510	0	0			
8	0	0	0	0	512	509	0	0			
9	0	0	0	0	512	509	0	0			
10	0	0	0	0	514	505	0	0			
11	0	0	0	0	515	508	0	0			
12	0	0	0	0	514	508	0	0			
13	0	0	0	0	510	507	0	0			
14	0	0	0	0	509	507	0	0			
15	0	0	0	0	507	507	0	0			
0	0	0	0	0	507	505	0	0			
1	0	0	0	0	506	508	0	0			
2	0	0	0	0	508	508	0	0			
3	0	0	0	0	506	508	0	0			
4	0	0	0	0	505	508	0	0			
5	0	0	0	0	505	508	0	0			
6	0	0	0	0	508	509	0	0			
7	0	0	0	0	512	507	0	0			
8	0	0	0	0	513	509	0	0			
9	0	0	0	0	513	508	0	0			
10	0	0	0	0	516	511	0	0			
11	0	0	0	0	514	508	0	0			
12	0	0	0	0	512	509	0	0			
13	0	0	0	0	514	509	0	0			
14	0	0	0	0	514	507	0	0			
15	0	0	0	0	512	508	0	0			
0	0	0	0	0	511	508	0	0			
1	0	0	0	0	511	507	0	0			
2	0	0	0	0	508	506	0	0			
3	0	0	0	0	508	507	0	0			
4	0	0	0	0	507	508	0	0			
5	0	0	0	0	508	506	0	0			
6	0	0	0	0	507	507	0	0			
7	0	0	0	0	505	506	0	0			
8	0	0	0	0	505	507	0	0			
9	0	0	0	0	505	508	0	0			
10	0	0	0	0	507	509	0	0			
11	0	0	0	0	508	509	0	0			
12	0	0	0	0	515	509	0	0			
13	0	0	0	0	515	508	0	0			
14	0	0	0	0	516	508	0	0			
15	0	0	0	0	513	507	0	0			
0	0	0	0	0	513	507	0	0			
1	0	0	0	0	515	510	0	0			
2	0	0	0	0	513	508	0	0			
3	0	0	0	0	516	507	0	0			
4	0	0	0	0	511	506	0	0			
5	0	0	0	0	511	506	0	0			
6	0	0	0	0	508	507	0	0			
7	0	0	0	0	510	506	0	0			
8	0	0	0	0	508	508	0	0			
9	0	0	0	0	507	509	0	0			
10	0	0	0	0	505	508	0	0			
11	0	0	0	0	507	508	0	0			
12	0	0	0	0	508	510	0	0			
13	0	0	0	0	506	508	0	0			
14	0	0	0	0	507	510	0	0			
15	0	0	0	0	509	509	0	0			
0	0	0	0	0	512	507	0	0			
1	0	0	0	0	513	508	0	0			
2	0	0	0	0	514	508	0	0			
3	0	0	0	0	514	508	0	0			
4	0	0	0	0	515	509	0	0			
5	0	0	0	0	513	510	0	0			
6	0	0	0	0	518	508	0	0			
7	0	0	0	0	517	508	0	0			
8	0	0	0	0	515	506	0	0			
9	0	0	0	0	514	505	0	0			
10	0	0	0	0	510	508	0	0			
11	0	0	0	0	508	507	0	0			
12	0	0	0	0	507	507	0	0			
13	0	0	0	0	504	507	0	0			
14	0	0	0	0	507	508	0	0			
15	0	0	0	0	506	508	0	0			
0	0	0	0	0	506	508	0	0			
1	0	0	0	0	507	508	0	0			
2	0	0	0	0	506	508	0	0			
3	0	0	0	0	510	508	0	0			
4	0	0	0	0	512	507	0	0			
5	0	0	0	0	513	508	0	0			
6	0	0	0	0	512	508	0	0			
7	0	0	0	0	516	506	0	0			
8	0	0	0	0	515	509	0	0			
9	0	0	0	0	513	511	0	0			
10	0	0	0	0	514	509	0	0			
11	0	0	0	0	514	507	0	0			
12	0	0	0	0	511	507	0	0			
13	0	0	0	0	511	508	0	0			
14	0	0	0	0	512	508	0	0			
15	0	0	0	0	511	507	0	0			
0	0	0	0	0	507	507	0	0			
1	0	0	0	0	505	507	0	0			
2	0	0	0	0	505	508	0	0			
3	0	0	0	0	505	509	0	0			
4	0	0	0	0	505	508	0	0			
5	0	0	0	0	508	509	0	0			
6	0	0	0	0	508	508	0	0			
7	0	0	0	0	509	507	0	0			
8	0	0	0	0	512	508	0	0			
9	0	0	0	0	515	508	0	0			
10	0	0	0	0	513	509	0	0			
11	0	0	0	0	513	507	0	0			
12	0	0	0	0	515	507	0	0			
13	0	0	0	0	515	510	0	0			
14	0	0	0	0	514	505	0	0			
15	0	0	0	0	513	508	0	0			
0	0	0	0	0	515	507	0	0			
1	0	0	0	0	511	507	0	0			
2	0	0	0	0	509	507	0	0			
3	0	0	0	0	510	508	0	0			
4	0	0	0	0	510	508	0	0			
5	0	0	0	0	510	508	0	0			
6	0	0	0	0	507	508	0	0			
7	0	0	0	0	504	505	0	0			
8	0	0	0	0	508	507	0	0			
9	0	0	0	0	509	508	0	0			
10	0	0	0	0	508	507	0	0			
11	0	0	0	0	510	508	0	0			
12	0	0	0	0	510	508	0	0			
13	0	0	0	0	512	507	0	0			
14	0	0	0	0	515	510	0	0			
15	0	0	0	0	514	507	0	0			
0	0	0	0	0	516	512	0	0			
1	0	0	0	0	515	511	0	0			
2	0	0	0	0	511	510	0	0			
3	0	0	0	0	510	507	0	0			
4	0	0	0	0	515	506	0	0			
5	0	0	0	0	515	506	0	0			
6	0	0	0	0	510	506	0	0			
7	0	0	0	0	509	508	0	0			
8	0	0	0	0	510	506	0	0			
9	0	0	0	0	505	507	0	0			
10	0	0	0	0	506	508	0	0			
11	0	0	0	0	506	508	0	0			
12	0	0	0	0	505	509	0	0			
13	0	0	0	0	505	508	0	0			
14	0	0	0	0	507	507	0	0			
15	0	0	0	0	511	506	0	0			
0	0	0	0	0	512	509	0	0			
1	0	0	0	0	512	508	0	0			
2	0	0	0	0	514	509	0	0			
3	0	0	0	0	510	509	0	0			
4	0	0	0	0	513	508	0	0			
5	0	0	0	0	515	509	0	0			
6	0	0	0	0	515	510	0	0			
7	0	0	0	0	515	508	0	0			
8	0	0	0	0	514	507	0	0			
9	0	0	0	0	510	507	0	0			
10	0	0	0	0	508	507	0	0			
11	0	0	0	0	507	507	0	0			
12	0	0	0	0	509	507	0	0			
13	0	0	0	0	508	508	0	0			
14	0	0	0	0	509	508	0	0			
15	0	0	0	0	506	505	0	0			
0	0	0	0	0	505	508	0	0			
1	0	0	0	0	508	509	0	0			
2	0	0	0	0	510	509	0	0			
3	0	0	0	0	511	508	0	0			
4	0	0	0	0	510	509	0	0			
5	0	0	0	0	510	508	0	0			
6	0	0	0	0	513	508	0	0			
7	0	0	0	0	515	510	0	0			
8	0	0	0	0	515	511	0	0			
9	0	0	0	0	516	511	0	0			
10	0	0	0	0	513	509	0	0			
11	0	0	0	0	512	509	0	0			
12	0	0	0	0	512	507	0	0			
13	0	0	0	0	511	506	0	0			
14	0	0	0	0	509	506	0	0			
15	0	0	0	0	509	507	0	0			
0	0	0	0	0	508	507	0	0			
1	0	0	0	0	507	509	0	0			
2	0	0	0	0	506	509	0	0			
3	0	0	0	0	506	505	0	0			
4	0	0	0	0	510	508	0	0			
5	0	0	0	0	511	507	0	0			
6	0	0	0	0	506	509	0	0			
7	0	0	0	0	508	509	0	0			
8	0	0	0	0	512	509	0	0			
9	0	0	0	0	509	508	0	0			
10	0	0	0	0	518	508	0	0			
11	0	0	0	0	515	509	0	0			
12	0	0	0	0	516	508	0	0			
13	0	0	0	0	513	508	0	0			
14	0	0	0	0	514	508	0	0			
15	0	0	0	0	514	507	0	0			
0	0	0	0	0	516	510	0	0			
1	0	0	0	0	511	507	0	0			
2	0	0	0	0	511	507	0	0			
3	0	0	0	0	507	507	0	0			
4	0	0	0	0	510	507	0	0			
5	0	0	0	0	508	505	0	0			
6	0	0	0	0	506	504	0	0			
7	0	0	0	0	506	506	0	0			
8	0	0	0	0	504	506	0	0			
9	0	0	0	0	506	510	0	0			
10	0	0	0	0	506	510	0	0			
11	0	0	0	0	509	509	0	0			
12	0	0	0	0	511	507	0	0			
13	0	0	0	0	513	508	0	0			
14	0	0	0	0	515	510	0	0			
15	0	0	0	0	516	510	0	0			
0	0	0	0	0	515	509	0	0			
1	0	0	0	0	515	509	0	0			
2	0	0	0	0	512	510	0	0			
3	0	0	0	0	512	510	0	0			
4	0	0	0	0	513	508	0	0			
5	0	0	0	0	515	506	0	0			
6	0	0	0	0	510	507	0	0			
7	0	0	0	0	508	506	0	0			
8	0	0	0	0	508	506	0	0			
9	0	0	0	0	507	509	0	0			
10	0	0	0	0	507	507	0	0			
11	0	0	0	0	504	507	0	0			
12	0	0	0	0	504	504	0	0			
13	0	0	0	0	508	506	0	0			
14	0	0	0	0	509	509	0	0			
15	0	0	0	0	509	509	0	0			
0	0	0	0	0	511	508	0	0			
1	0	0	0	0	512	511	0	0			
2	0	0	0	0	513	508	0	0			
3	0	0	0	0	517	510	0	0			
4	0	0	0	0	516	510	0	0			
5	0	0	0	0	512	508	0	0			
6	0	0	0	0	515	509	0	0			
7	0	0	0	0	518	508	0	0			
8	0	0	0	0	513	508	0	0			
9	0	0	0	0	514	505	0	0			
10	0	0	0	0	512	507	0	0			
11	0	0	0	0	508	507	0	0			
12	0	0	0	0	507	508	0	0			
13	0	0	0	0	504	508	0	0			
14	0	0	0	0	507	506	0	0			
15	0	0	0	0	504	508	0	0			
0	0	0	0	0	504	508	0	0			
1	0	0	0	0	505	509	0	0			
2	0	0	0	0	508	507	0	0			
3	0	0	0	0	512	508	0	0			
4	0	0	0	0	513	509	0	0			
5	0	0	0	0	513	508	0	0			
6	0	0	0	0	516	510	0	0			
7	0	0	0	0	514	508	0	0			
8	0	0	0	0	511	508	0	0			
9	0	0	0	0	513	510	0	0			
10	0	0	0	0	515	508	0	0			
11	0	0	0	0	514	507	0	0			
12	0	0	0	0	514	507	0	0			
13	0	0	0	0	511	506	0	0			
14	0	0	0	0	511	506	0	0			
15	0	0	0	0	508	507	0	0			
0	0	0	0	0	509	507	0	0			
1	0	0	0	0	508	508	0	0			
2	0	0	0	0	505	506	0	0			
3	0	0	0	0	505	507	0	0			
4	0	0	0	0	506	508	0	0			
5	0	0	0	0	507	509	0	0			
6	0	0	0	0	507	509	0	0			
7	0	0	0	0	511	511	0	0			
8	0	0	0	0	512	510	0	0			
9	0	0	0	0	513	510	0	0			
10	0	0	0	0	513	508	0	0			
11	0	0	0	0	514	508	0	0			
12	0	0	0	0	516	508	0	0			
13	0	0	0	0	514	510	0	0			
14	0	0	0	0	515	508	0	0			
15	0	0	0	0	514	508	0	0			
0	0	0	0	0	513	506	0	0			
1	0	0	0	0	509	506	0	0			
2	0	0	0	0	511	507	0	0			
3	0	0	0	0	510	504	0	0			
4	0	0	0	0	510	507	0	0			
5	0	0	0	0	507	508	0	0			
6	0	0	0	0	505	507	0	0			
7	0	0	0	0	504	507	0	0			
8	0	0	0	0	503	508	0	0			
9	0	0	0	0	506	509	0	0			
10	0	0	0	0	509	508	0	0			
11	0	0	0	0	510	508	0	0			
12	0	0	0	0	513	509	0	0			
13	0	0	0	0	513	508	0	0			
14	0	0	0	0	518	509	0	0			
15	0	0	0	0	518	508	0	0			
0	0	0	0	0	516	511	0	0			
1	0	0	0	0	514	511	0	0			
2	0	0	0	0	512	508	0	0			
3	0	0	0	0	515	507	0	0			
4	0	0	0	0	515	509	0	0			
5	0	0	0	0	509	508	0	0			
6	0	0	0	0	511	508	0	0			
7	0	0	0	0	510	507	0	0			
8	0	0	0	0	508	507	0	0			
9	0	0	0	0	505	507	0	0			
10	0	0	0	0	505	505	0	0			
11	0	0	0	0	507	506	0	0			
12	0	0	0	0	504	508	0	0			
13	0	0	0	0	503	507	0	0			
14	0	0	0	0	506	507	0	0			
15	0	0	0	0	511	508	0	0			
0	0	0	0	0	511	507	0	0			
1	0	0	0	0	516	508	0	0			
2	0	0	0	0	517	505	0	0			
3	0	0	0	0	516	510	0	0			
4	0	0	0	0	513	512	0	0			
5	0	0	0	0	513	510	0	0			
6	0	0	0	0	511	508	0	0			
7	0	0	0	0	513	508	0	0			
8	0	0	0	0	512	508	0	0			
9	0	0	0	0	513	507	0	0			
10	0	0	0	0	513	506	0	0			
11	0	0	0	0	509	506	0	0			
12	0	0	0	0	507	507	0	0			
13	0	0	0	0	508	509	0	0			
14	0	0	0	0	507	507	0	0			
15	0	0	0	0	505	507	0	0			
0	0	0	0	0	504	507	0	0			
1	0	0	0	0	505	505	0	0			
2	0	0	0	0	506	507	0	0			
3	0	0	0	0	508	510	0	0			
4	0	0	0	0	512	510	0	0			
5	0	0	0	0	515	511	0	0			
6	0	0	0	0	518	508	0	0			
7	0	0	0	0	517	510	0	0			
8	0	0	0	0	511	509	0	0			
9	0	0	0	0	512	510	0	0			
10	0	0	0	0	512	508	0	0			
11	0	0	0	0	511	511	0	0			
12	0	0	0	0	514	506	0	0			
13	0	0	0	0	512	506	0	0			
14	0	0	0	0	514	506	0	0			
15	0	0	0	0	516	505	0	0			
0	0	0	0	0	509	508	0	0			
1	0	0	0	0	504	508	0	0			
2	0	0	0	0	507	507	0	0			
3	0	0	0	0	502	507	0	0			
4	0	0	0	0	505	506	0	0			
5	0	0	0	0	507	508	0	0			
6	0	0	0	0	507	508	0	0			
7	0	0	0	0	507	507	0	0			
8	0	0	0	0	511	508	0	0			
9	0	0	0	0	513	509	0	0			
10	0	0	0	0	516	509	0	0			
11	0	0	0	0	518	509	0	0			
12	0	0	0	0	514	509	0	0			
13	0	0	0	0	515	510	0	0			
14	0	0	0	0	515	506	0	0			
15	0	0	0	0	512	508	0	0			
0	0	0	0	0	511	508	0	0			
1	0	0	0	0	513	507	0	0			
2	0	0	0	0	511	507	0	0			
3	0	0	0	0	506	504	0	0			
4	0	0	0	0	507	507	0	0			
5	0	0	0	0	507	508	0	0			
6	0	0	0	0	507	506	0	0			
7	0	0	0	0	507	506	0	0			
8	0	0	0	0	507	508	0	0			
9	0	0	0	0	506	509	0	0			
10	0	0	0	0	505	511	0	0			
11	0	0	0	0	507	507	0	0			
12	0	0	0	0	513	509	0	0			
13	0	0	0	0	516	508	0	0			
14	0	0	0	0	520	510	0	0			
15	0	0	0	0	515	507	0	0			
0	0	0	0	0	516	510	0	0			
1	0	0	0	0	515	509	0	0			
2	0	0	0	0	515	507	0	0			
3	0	0	0	0	510	508	0	0			
4	0	0	0	0	512	506	0	0			
5	0	0	0	0	512	505	0	0			
6	0	0	0	0	513	507	0	0			
7	0	0	0	0	511	509	0	0			
8	0	0	0	0	509	508	0	0			
9	0	0	0	0	507	507	0	0			
10	0	0	0	0	505	507	0	0			
11	0	0	0	0	505	506	0	0			
12	0	0	0	0	505	508	0	0			
13	0	0	0	0	505	507	0	0			
14	0	0	0	0	507	510	0	0			
15	0	0	0	0	511	509	0	0			
0	0	0	0	0	512	507	0	0			
1	0	0	0	0	515	508	0	0			
2	0	0	0	0	516	509	0	0			
3	0	0	0	0	515	508	0	0			
4	0	0	0	0	512	510	0	0			
5	0	0	0	0	513	510	0	0			
6	0	0	0	0	515	509	0	0			
7	0	0	0	0	512	508	0	0			
8	0	0	0	0	512	506	0	0			
9	0	0	0	0	511	506	0	0			
10	0	0	0	0	510	507	0	0			
11	0	0	0	0	508	507	0	0			
12	0	0	0	0	510	508	0	0			
13	0	0	0	0	505	508	0	0			
14	0	0	0	0	504	506	0	0			
15	0	0	0	0	505	506	0	0			
0	0	0	0	0	506	505	0	0			
1	0	0	0	0	503	508	0	0			
2	0	0	0	0	506	510	0	0			
3	0	0	0	0	509	509	0	0			
4	0	0	0	0	514	508	0	0			
5	0	0	0	0	515	510	0	0			
6	0	0	0	0	515	506	0	0			
7	0	0	0	0	517	509	0	0			
8	0	0	0	0	512	507	0	0			
9	0	0	0	0	514	511	0	0			
10	0	0	0	0	515	510	0	0			
11	0	0	0	0	515	510	0	0			
12	0	0	0	0	513	507	0	0			
13	0	0	0	0	513	505	0	0			
14	0	0	0	0	509	508	0	0			
15	0	0	0	0	506	507	0	0			
0	0	0	0	0	508	508	0	0			
1	0	0	0	0	508	506	0	0			
2	0	0	0	0	509	505	0	0			
3	0	0	0	0	505	506	0	0			
4	0	0	0	0	504	507	0	0			
5	0	0	0	0	505	510	0	0			
6	0	0	0	0	506	508	0	0			
7	0	0	0	0	510	508	0	0			
8	0	0	0	0	512	508	0	0			
9	0	0	0	0	514	508	0	0			
10	0	0	0	0	517	507	0	0			
11	0	0	0	0	516	510	0	0			
12	0	0	0	0	516	508	0	0			
13	0	0	0	0	515	510	0	0			
14	0	0	0	0	513	508	0	0			
15	0	0	0	0	513	509	0	0			
0	0	0	0	0	513	508	0	0			
1	0	0	0	0	512	510	0	0			
2	0	0	0	0	508	507	0	0			
3	0	0	0	0	505	508	0	0			
4	0	0	0	0	509	507	0	0			
5	0	0	0	0	505	506	0	0			
6	0	0	0	0	507	508	0	0			
7	0	0	0	0	505	505	0	0			
8	0	0	0	0	505	506	0	0			
9	0	0	0	0	505	511	0	0			
10	0	0	0	0	506	508	0	0			
11	0	0	0	0	508	509	0	0			
12	0	0	0	0	515	509	0	0			
13	0	0	0	0	514	508	0	0			
14	0	0	0	0	514	507	0	0			
15	0	0	0	0	515	508	0	0			
0	0	0	0	0	515	510	0	0			
1	0	0	0	0	521	510	0	0			
2	0	0	0	0	519	507	0	0			
3	0	0	0	0	514	505	0	0			
4	0	0	0	0	513	508	0	0			
5	0	0	0	0	512	508	0	0			
6	0	0	0	0	506	508	0	0			
7	0	0	0	0	507	507	0	0			
8	0	0	0	0	502	507	0	0			
9	0	0	0	0	504	508	0	0			
10	0	0	0	0	509	507	0	0			
11	0	0	0	0	505	505	0	0			
12	0	0	0	0	504	507	0	0			
13	0	0	0	0	505	508	0	0			
14	0	0	0	0	505	507	0	0			
15	0	0	0	0	510	510	0	0			
0	0	0	0	0	513	509	0	0			
1	0	0	0	0	516	509	0	0			
2	0	0	0	0	517	508	0	0			
3	0	0	0	0	516	507	0	0			
4	0	0	0	0	515	509	0	0			
5	0	0	0	0	515	511	0	0			
6	0	0	0	0	516	509	0	0			
7	0	0	0	0	513	506	0	0			
8	0	0	0	0	514	507	0	0			
9	0	0	0	0	512	507	0	0			
10	0	0	0	0	509	507	0	0			
11	0	0	0	0	507	507	0	0			
12	0	0	0	0	506	508	0	0			
13	0	0	0	0	508	507	0	0			
14	0	0	0	0	506	507	0	0			
15	0	0	0	0	505	507	0	0			
0	0	0	0	0	504	508	0	0			
1	0	0	0	0	507	508	0	0			
2	0	0	0	0	509	508	0	0			
3	0	0	0	0	509	508	0	0			
4	0	0	0	0	512	509	0	0			
5	0	0	0	0	516	510	0	0			
6	0	0	0	0	516	509	0	0			
7	0	0	0	0	515	508	0	0			
8	0	0	0	0	515	509	0	0			
9	0	0	0	0	512	509	0	0			
10	0	0	0	0	512	510	0	0			
11	0	0	0	0	514	507	0	0			
12	0	0	0	0	515	505	0	0			
13	0	0	0	0	513	507	0	0			
14	0	0	0	0	511	507	0	0			
15	0	0	0	0	510	508	0	0			
0	0	0	0	0	508	507	0	0			
1	0	0	0	0	505	507	0	0			
2	0	0	0	0	505	506	0	0			
3	0	0	0	0	506	508	0	0			
4	0	0	0	0	504	508	0	0			
5	0	0	0	0	506	508	0	0			
6	0	0	0	0	506	508	0	0			
7	0	0	0	0	509	508	0	0			
8	0	0	0	0	511	510	0	0			
9	0	0	0	0	509	507	0	0			
10	0	0	0	0	518	509	0	0			
11	0	0	0	0	513	510	0	0			
12	0	0	0	0	510	511	0	0			
13	0	0	0	0	515	508	0	0			
14	0	0	0	0	519	507	0	0			
15	0	0	0	0	516	508	0	0			
0	0	0	0	0	512	507	0	0			
1	0	0	0	0	509	507	0	0			
2	0	0	0	0	508	506	0	0			
3	0	0	0	0	510	507	0	0			
4	0	0	0	0	512	508	0	0			
5	0	0	0	0	504	508	0	0			
6	0	0	0	0	506	507	0	0			
7	0	0	0	0	506	506	0	0			
8	0	0	0	0	506	506	0	0			
9	0	0	0	0	505	507	0	0			
10	0	0	0	0	506	509	0	0			
11	0	0	0	0	510	508	0	0			
12	0	0	0	0	512	511	0	0			
13	0	0	0	0	515	509	0	0			
14	0	0	0	0	514	508	0	0			
15	0	0	0	0	516	508	0	0			
0	0	0	0	0	516	509	0	0			
1	0	0	0	0	516	510	0	0			
2	0	0	0	0	515	508	0	0			
3	0	0	0	0	516	507	0	0			
4	0	0	0	0	510	508	0	0			
5	0	0	0	0	511	507	0	0			
6	0	0	0	0	507	506	0	0			
7	0	0	0	0	506	506	0	0			
8	0	0	0	0	508	508	0	0			
9	0	0	0	0	510	508	0	0			
10	0	0	0	0	509	504	0	0			
11	0	0	0	0	503	507	0	0			
12	0	0	0	0	507	508	0	0			
13	0	0	0	0	506	506	0	0			
14	0	0	0	0	506	509	0	0			
15	0	0	0	0	509	510	0	0			
0	0	0	0	0	513	510	0	0			
1	0	0	0	0	514	510	0	0			
2	0	0	0	0	513	508	0	0			
3	0	0	0	0	518	508	0	0			
4	0	0	0	0	515	511	0	0			
5	0	0	0	0	517	507	0	0			
6	0	0	0	0	510	508	0	0			
7	0	0	0	0	510	508	0	0			
8	0	0	0	0	512	507	0	0			
9	0	0	0	0	510	506	0	0			
10	0	0	0	0	508	507	0	0			
11	0	0	0	0	509	505	0	0			
12	0	0	0	0	508	507	0	0			
13	0	0	0	0	508	507	0	0			
14	0	0	0	0	510	507	0	0			
15	0	0	0	0	505	507	0	0			
0	0	0	0	0	502	508	0	0			
1	0	0	0	0	504	510	0	0			
2	0	0	0	0	507	508	0	0			
3	0	0	0	0	514	510	0	0			
4	0	0	0	0	515	508	0	0			
5	0	0	0	0	513	507	0	0			
6	0	0	0	0	513	508	0	0			
7	0	0	0	0	515	508	0	0			
8	0	0	0	0	515	510	0	0			
9	0	0	0	0	518	509	0	0			
10	0	0	0	0	516	510	0	0			
11	0	0	0	0	512	508	0	0			
12	0	0	0	0	510	507	0	0			
13	0	0	0	0	511	507	0	0			
14	0	0	0	0	511	505	0	0			
15	0	0	0	0	511	508	0	0			
0	0	0	0	0	508	506	0	0			
1	0	0	0	0	508	507	0	0			
2	0	0	0	0	507	507	0	0			
3	0	0	0	0	502	506	0	0			
4	0	0	0	0	499	505	0	0			
5	0	0	0	0	503	509	0	0			
6	0	0	0	0	512	508	0	0			
7	0	0	0	0	511	509	0	0			
8	0	0	0	0	514	508	0	0			
9	0	0	0	0	512	507	0	0			
10	0	0	0	0	512	509	0	0			
11	0	0	0	0	515	509	0	0			
12	0	0	0	0	513	511	0	0			
13	0	0	0	0	516	510	0	0			
14	0	0	0	0	515	508	0	0			
15	0	0	0	0	513	509	0	0			
0	0	0	0	0	513	508	0	0			
1	0	0	0	0	510	505	0	0			
2	0	0	0	0	509	508	0	0			
3	0	0	0	0	509	508	0	0			
4	0	0	0	0	506	506	0	0			
5	0	0	0	0	504	509	0	0			
6	0	0	0	0	508	508	0	0			
7	0	0	0	0	510	505	0	0			
8	0	0	0	0	506	507	0	0			
9	0	0	0	0	512	508	0	0			
10	0	0	0	0	512	509	0	0			
11	0	0	0	0	508	509	0	0			
12	0	0	0	0	510	509	0	0			
13	0	0	0	0	513	508	0	0			
14	0	0	0	0	514	508	0	0			
15	0	0	0	0	513	510	0	0			
0	0	0	0	0	513	510	0	0			
1	0	0	0	0	513	509	0	0			
2	0	0	0	0	514	506	0	0			
3	0	0	0	0	515	507	0	0			
4	0	0	0	0	510	506	0	0			
5	0	0	0	0	510	507	0	0			
6	0	0	0	0	508	506	0	0			
7	0	0	0	0	507	508	0	0			
8	0	0	0	0	508	508	0	0			
9	0	0	0	0	510	508	0	0			
10	0	0	0	0	510	507	0	0			
11	0	0	0	0	506	505	0	0			
12	0	0	0	0	507	505	0	0			
13	0	0	0	0	506	507	0	0			
14	0	0	0	0	507	509	0	0			
15	0	0	0	0	510	508	0	0			
0	0	0	0	0	510	510	0	0			
1	0	0	0	0	512	509	0	0			
2	0	0	0	0	513	511	0	0			
3	0	0	0	0	513	510	0	0			
4	0	0	0	0	513	511	0	0			
5	0	0	0	0	513	509	0	0			
6	0	0	0	0	514	507	0	0			
7	0	0	0	0	515	508	0	0			
8	0	0	0	0	517	506	0	0			
9	0	0	0	0	512	507	0	0			
10	0	0	0	0	510	507	0	0			
11	0	0	0	0	511	505	0	0			
12	0	0	0	0	509	507	0	0			
13	0	0	0	0	510	508	0	0			
14	0	0	0	0	508	507	0	0			
15	0	0	0	0	507	508	0	0			
0	0	0	0	0	506	507	0	0			
1	0	0	0	0	507	506	0	0			
2	0	0	0	0	508	507	0	0			
3	0	0	0	0	509	507	0	0			
4	0	0	0	0	512	509	0	0			
5	0	0	0	0	511	510	0	0			
6	0	0	0	0	512	508	0	0			
7	0	0	0	0	512	511	0	0			
8	0	0	0	0	510	510	0	0			
9	0	0	0	0	514	510	0	0			
10	0	0	0	0	516	510	0	0			
11	0	0	0	0	515	506	0	0			
12	0	0	0	0	512	507	0	0			
13	0	0	0	0	510	508	0	0			
14	0	0	0	0	512	506	0	0			
15	0	0	0	0	513	508	0	0			
0	0	0	0	0	509	507	0	0			
1	0	0	0	0	507	508	0	0			
2	0	0	0	0	507	507	0	0			
3	0	0	0	0	504	506	0	0			
4	0	0	0	0	507	509	0	0			
5	0	0	0	0	507	510	0	0			
6	0	0	0	0	505	506	0	0			
7	0	0	0	0	505	508	0	0			
8	0	0	0	0	512	509	0	0			
9	0	0	0	0	516	509	0	0			
10	0	0	0	0	516	510	0	0			
11	0	0	0	0	514	510	0	0			
12	0	0	0	0	512	510	0	0			
13	0	0	0	0	514	508	0	0			
14	0	0	0	0	515	507	0	0			
15	0	0	0	0	514	508	0	0			
0	0	0	0	0	514	507	0	0			
1	0	0	0	0	513	508	0	0			
2	0	0	0	0	513	507	0	0			
3	0	0	0	0	508	507	0	0			
4	0	0	0	0	508	506	0	0			
5	0	0	0	0	507	506	0	0			
6	0	0	0	0	506	506	0	0			
7	0	0	0	0	508	506	0	0			
8	0	0	0	0	508	508	0	0			
9	0	0	0	0	507	508	0	0			
10	0	0	0	0	508	509	0	0			
11	0	0	0	0	511	508	0	0			
12	0	0	0	0	513	508	0	0			
13	0	0	0	0	510	507	0	0			
14	0	0	0	0	511	509	0	0			
15	0	0	0	0	514	510	0	0			
0	0	0	0	0	514	508	0	0			
1	0	0	0	0	511	508	0	0			
2	0	0	0	0	512	508	0	0			
3	0	0	0	0	512	508	0	0			
4	0	0	0	0	515	507	0	0			
5	0	0	0	0	511	507	0	0			
6	0	0	0	0	507	507	0	0			
7	0	0	0	0	510	508	0	0			
8	0	0	0	0	512	507	0	0			
9	0	0	0	0	512	508	0	0			
10	0	0	0	0	509	505	0	0			
11	0	0	0	0	505	506	0	0			
12	0	0	0	0	508	509	0	0			
13	0	0	0	0	507	507	0	0			
14	0	0	0	0	508	508	0	0			
15	0	0	0	0	509	510	0	0			
0	0	0	0	0	513	509	0	0			
1	0	0	0	0	511	510	0	0			
2	0	0	0	0	510	508	0	0			
3	0	0	0	0	514	509	0	0			
4	0	0	0	0	512	509	0	0			
5	0	0	0	0	514	508	0	0			
6	0	0	0	0	514	507	0	0			
7	0	0	0	0	513	509	0	0			
8	0	0	0	0	512	507	0	0			
9	0	0	0	0	512	507	0	0			
10	0	0	0	0	510	507	0	0			
11	0	0	0	0	511	507	0	0			
12	0	0	0	0	509	507	0	0			
13	0	0	0	0	508	508	0	0			
14	0	0	0	0	508	507	0	0			
15	0	0	0	0	506	506	0	0			
0	0	0	0	0	507	506	0	0			
1	0	0	0	0	507	506	0	0			
2	0	0	0	0	508	510	0	0			
3	0	0	0	0	507	508	0	0			
4	0	0	0	0	508	511	0	0			
5	0	0	0	0	512	509	0	0			
6	0	0	0	0	514	510	0	0			
7	0	0	0	0	516	509	0	0			
8	0	0	0	0	516	510	0	0			
9	0	0	0	0	514	510	0	0			
10	0	0	0	0	513	509	0	0			
11	0	0	0	0	512	507	0	0			
12	0	0	0	0	511	506	0	0			
13	0	0	0	0	514	507	0	0			
14	0	0	0	0	510	509	0	0			
15	0	0	0	0	510	506	0	0			
0	0	0	0	0	508	507	0	0			
1	0	0	0	0	508	507	0	0			
2	0	0	0	0	507	506	0	0			
3	0	0	0	0	504	506	0	0			
4	0	0	0	0	503	508	0	0			
5	0	0	0	0	507	507	0	0			
6	0	0	0	0	505	508	0	0			
7	0	0	0	0	507	509	0	0			
8	0	0	0	0	511	510	0	0			
9	0	0	0	0	518	508	0	0			
10	0	0	0	0	519	510	0	0			
11	0	0	0	0	515	509	0	0			
12	0	0	0	0	514	508	0	0			
13	0	0	0	0	517	510	0	0			
14	0	0	0	0	512	508	0	0			
15	0	0	0	0	513	508	0	0			
0	0	0	0	0	515	508	0	0			
1	0	0	0	0	511	508	0	0			
2	0	0	0	0	513	508	0	0			
3	0	0	0	0	508	506	0	0			
4	0	0	0	0	506	507	0	0			
5	0	0	0	0	507	506	0	0			
6	0	0	0	0	510	507	0	0			
7	0	0	0	0	508	506	0	0			
8	0	0	0	0	507	507	0	0			
9	0	0	0	0	509	508	0	0			
10	0	0	0	0	507	508	0	0			
11	0	0	0	0	508	510	0	0			
12	0	0	0	0	510	510	0	0			
13	0	0	0	0	511	508	0	0			
14	0	0	0	0	511	509	0	0			
15	0	0	0	0	512	508	0	0			
0	0	0	0	0	511	506	0	0			
1	0	0	0	0	514	510	0	0			
2	0	0	0	0	515	510	0	0			
3	0	0	0	0	514	507	0	0			
4	0	0	0	0	513	508	0	0			
5	0	0	0	0	514	507	0	0			
6	0	0	0	0	512	506	0	0			
7	0	0	0	0	507	505	0	0			
8	0	0	0	0	509	508	0	0			
9	0	0	0	0	508	507	0	0			
10	0	0	0	0	510	505	0	0			
11	0	0	0	0	509	505	0	0			
12	0	0	0	0	506	507	0	0			
13	0	0	0	0	507	508	0	0			
14	0	0	0	0	504	509	0	0			
15	0	0	0	0	508	508	0	0			
0	0	0	0	0	512	508	0	0			
1	0	0	0	0	511	508	0	0			
2	0	0	0	0	515	507	0	0			
3	0	0	0	0	513	511	0	0			
4	0	0	0	0	512	511	0	0			
5	0	0	0	0	517	511	0	0			
6	0	0	0	0	516	509	0	0			
7	0	0	0	0	512	508	0	0			
8	0	0	0	0	511	507	0	0			
9	0	0	0	0	510	508	0	0			
10	0	0	0	0	508	508	0	0			
11	0	0	0	0	507	504	0	0			
12	0	0	0	0	513	508	0	0			
13	0	0	0	0	513	507	0	0			
14	0	0	0	0	509	507	0	0			
15	0	0	0	0	506	506	0	0			
0	0	0	0	0	503	507	0	0			
1	0	0	0	0	502	508	0	0			
2	0	0	0	0	511	509	0	0			
3	0	0	0	0	510	509	0	0			
4	0	0	0	0	512	508	0	0			
5	0	0	0	0	511	509	0	0			
6	0	0	0	0	514	510	0	0			
7	0	0	0	0	514	508	0	0			
8	0	0	0	0	512	509	0	0			
9	0	0	0	0	514	508	0	0			
10	0	0	0	0	513	509	0	0			
11	0	0	0	0	516	508	0	0			
12	0	0	0	0	514	509	0	0			
13	0	0	0	0	512	507	0	0			
14	0	0	0	0	510	508	0	0			
15	0	0	0	0	507	506	0	0			
0	0	0	0	0	506	507	0	0			
1	0	0	0	0	505	508	0	0			
2	0	0	0	0	507	508	0	0			
3	0	0	0	0	509	506	0	0			
4	0	0	0	0	511	505	0	0			
5	0	0	0	0	508	505	0	0			
6	0	0	0	0	509	507	0	0			
7	0	0	0	0	509	510	0	0			
8	0	0	0	0	511	511	0	0			
9	0	0	0	0	513	509	0	0			
10	0	0	0	0	511	509	0	0			
11	0	0	0	0	513	507	0	0			
12	0	0	0	0	514	509	0	0			
13	0	0	0	0	515	510	0	0			
14	0	0	0	0	512	508	0	0			
15	0	0	0	0	513	508	0	0			
0	0	0	0	0	511	507	0	0			
1	0	0	0	0	511	506	0	0			
2	0	0	0	0	511	507	0	0			
3	0	0	0	0	511	506	0	0			
4	0	0	0	0	509	507	0	0			
5	0	0	0	0	510	507	0	0			
6	0	0	0	0	508	508	0	0			
7	0	0	0	0	508	508	0	0			
8	0	0	0	0	505	507	0	0			
9	0	0	0	0	507	509	0	0			
10	0	0	0	0	509	508	0	0			
11	0	0	0	0	507	508	0	0			
12	0	0	0	0	507	508	0	0			
13	0	0	0	0	513	508	0	0			
14	0	0	0	0	514	508	0	0			
15	0	0	0	0	516	508	0	0			
0	0	0	0	0	514	510	0	0			
1	0	0	0	0	511	509	0	0			
2	0	0	0	0	512	508	0	0			
3	0	0	0	0	513	507	0	0			
4	0	0	0	0	516	508	0	0			
5	0	0	0	0	513	508	0	0			
6	0	0	0	0	513	506	0	0			
7	0	0	0	0	510	508	0	0			
8	0	0	0	0	511	506	0	0			
9	0	0	0	0	510	507	0	0			
10	0	0	0	0	508	507	0	0			
11	0	0	0	0	506	505	0	0			
12	0	0	0	0	506	506	0	0			
13	0	0	0	0	506	508	0	0			
14	0	0	0	0	506	510	0	0			
15	0	0	0	0	507	510	0	0			
0	0	0	0	0	509	508	0	0			
1	0	0	0	0	513	508	0	0			
2	0	0	0	0	515	510	0	0			
3	0	0	0	0	517	510	0	0			
4	0	0	0	0	519	509	0	0			
5	0	0	0	0	516	509	0	0			
6	0	0	0	0	515	507	0	0			
7	0	0	0	0	512	507	0	0			
8	0	0	0	0	512	507	0	0			
9	0	0	0	0	512	507	0	0			
10	0	0	0	0	512	509	0	0			
11	0	0	0	0	508	505	0	0			
12	0	0	0	0	506	507	0	0			
13	0	0	0	0	509	506	0	0			
14	0	0	0	0	511	506	0	0			
15	0	0	0	0	508	506	0	0			
0	0	0	0	0	506	508	0	0			
1	0	0	0	0	507	510	0	0			
2	0	0	0	0	506	509	0	0			
3	0	0	0	0	507	508	0	0			
4	0	0	0	0	510	508	0	0			
5	0	0	0	0	512	508	0	0			
6	0	0	0	0	514	510	0	0			
7	0	0	0	0	512	510	0	0			
8	0	0	0	0	514	509	0	0			
9	0	0	0	0	513	511	0	0			
10	0	0	0	0	515	509	0	0			
11	0	0	0	0	516	508	0	0			
12	0	0	0	0	513	506	0	0			
13	0	0	0	0	510	505	0	0			
14	0	0	0	0	511	508	0	0			
15	0	0	0	0	510	507	0	0			
0	0	0	0	0	508	508	0	0			
1	0	0	0	0	509	507	0	0			
2	0	0	0	0	508	506	0	0			
3	0	0	0	0	508	507	0	0			
4	0	0	0	0	507	508	0	0			
5	0	0	0	0	507	510	0	0			
6	0	0	0	0	508	507	0	0			
7	0	0	0	0	506	508	0	0			
8	0	0	0	0	512	507	0	0			
9	0	0	0	0	511	509	0	0			
10	0	0	0	0	510	510	0	0			
11	0	0	0	0	512	508	0	0			
12	0	0	0	0	513	509	0	0			
13	0	0	0	0	515	511	0	0			
14	0	0	0	0	515	508	0	0			
15	0	0	0	0	517	508	0	0			
0	0	0	0	0	512	508	0	0			
1	0	0	0	0	512	507	0	0			
2	0	0	0	0	511	508	0	0			
3	0	0	0	0	510	505	0	0			
4	0	0	0	0	509	507	0	0			
5	0	0	0	0	508	507	0	0			
6	0	0	0	0	509	509	0	0			
7	0	0	0	0	506	508	0	0			
8	0	0	0	0	508	507	0	0			
9	0	0	0	0	503	506	0	0			
10	0	0	0	0	502	507	0	0			
11	0	0	0	0	509	508	0	0			
12	0	0	0	0	513	508	0	0			
13	0	0	0	0	513	509	0	0			
14	0	0	0	0	514	508	0	0			
15	0	0	0	0	513	508	0	0			
0	0	0	0	0	513	509	0	0			
1	0	0	0	0	513	510	0	0			
2	0	0	0	0	515	509	0	0			
3	0	0	0	0	511	508	0	0			
4	0	0	0	0	510	509	0	0			
5	0	0	0	0	516	506	0	0			
6	0	0	0	0	515	507	0	0			
7	0	0	0	0	511	507	0	0			
8	0	0	0	0	508	506	0	0			
9	0	0	0	0	508	508	0	0			
10	0	0	0	0	503	507	0	0			
11	0	0	0	0	500	504	0	0			
12	0	0	0	0	504	506	0	0			
13	0	0	0	0	511	509	0	0			
14	0	0	0	0	512	507	0	0			
15	0	0	0	0	511	508	0	0			
0	0	0	0	0	512	510	0	0			
1	0	0	0	0	510	508	0	0			
2	0	0	0	0	510	510	0	0			
3	0	0	0	0	516	509	0	0			
4	0	0	0	0	517	509	0	0			
5	0	0	0	0	515	510	0	0			
6	0	0	0	0	515	510	0	0			
7	0	0	0	0	515	509	0	0			
8	0	0	0	0	512	508	0	0			
9	0	0	0	0	512	508	0	0			
10	0	0	0	0	511	507	0	0			
11	0	0	0	0	507	506	0	0			
12	0	0	0	0	508	506	0	0			
13	0	0	0	0	509	508	0	0			
14	0	0	0	0	508	506	0	0			
15	0	0	0	0	508	506	0	0			
0	0	0	0	0	507	507	0	0			
1	0	0	0	0	505	508	0	0			
2	0	0	0	0	508	510	0	0			
3	0	0	0	0	508	506	0	0			
4	0	0	0	0	510	508	0	0			
5	0	0	0	0	512	506	0	0			
6	0	0	0	0	513	508	0	0			
7	0	0	0	0	512	509	0	0			
8	0	0	0	0	511	510	0	0			
9	0	0	0	0	512	508	0	0			
10	0	0	0	0	514	510	0	0			
11	0	0	0	0	516	509	0	0			
12	0	0	0	0	512	507	0	0			
13	0	0	0	0	512	505	0	0			
14	0	0	0	0	510	505	0	0			
15	0	0	0	0	511	507	0	0			
0	0	0	0	0	511	506	0	0			
1	0	0	0	0	509	507	0	0			
2	0	0	0	0	505	507	0	0			
3	0	0	0	0	503	508	0	0			
4	0	0	0	0	510	507	0	0			
5	0	0	0	0	512	508	0	0			
6	0	0	0	0	511	508	0	0			
7	0	0	0	0	511	508	0	0			
8	0	0	0	0	513	509	0	0			
9	0	0	0	0	511	509	0	0			
10	0	0	0	0	512	509	0	0			
11	0	0	0	0	513	508	0	0			
12	0	0	0	0	511	508	0	0			
13	0	0	0	0	514	509	0	0			
14	0	0	0	0	515	511	0	0			
15	0	0	0	0	514	509	0	0			
0	0	0	0	0	513	510	0	0			
1	0	0	0	0	513	508	0	0			
2	0	0	0	0	513	507	0	0			
3	0	0	0	0	508	507	0	0			
4	0	0	0	0	508	508	0	0			
5	0	0	0	0	508	505	0	0			
6	0	0	0	0	504	505	0	0			
7	0	0	0	0	508	507	0	0			
8	0	0	0	0	506	508	0	0			
9	0	0	0	0	508	508	0	0			
10	0	0	0	0	506	508	0	0			
11	0	0	0	0	508	505	0	0			
12	0	0	0	0	511	509	0	0			
13	0	0	0	0	513	508	0	0			
14	0	0	0	0	512	510	0	0			
15	0	0	0	0	513	508	0	0			
0	0	0	0	0	514	506	0	0			
1	0	0	0	0	516	508	0	0			
2	0	0	0	0	515	508	0	0			
3	0	0	0	0	513	509	0	0			
4	0	0	0	0	512	508	0	0			
5	0	0	0	0	513	508	0	0			
6	0	0	0	0	513	508	0	0			
7	0	0	0	0	509	506	0	0			
8	0	0	0	0	509	506	0	0			
9	0	0	0	0	508	508	0	0			
10	0	0	0	0	507	508	0	0			
11	0	0	0	0	505	506	0	0			
12	0	0	0	0	504	508	0	0			
13	0	0	0	0	508	508	0	0			
14	0	0	0	0	508	508	0	0			
15	0	0	0	0	509	508	0	0			
0	0	0	0	0	510	509	0	0			
1	0	0	0	0	513	508	0	0			
2	0	0	0	0	515	508	0	0			
3	0	0	0	0	514	509	0	0			
4	0	0	0	0	511	508	0	0			
5	0	0	0	0	515	510	0	0			
6	0	0	0	0	516	511	0	0			
7	0	0	0	0	513	508	0	0			
8	0	0	0	0	510	507	0	0			
9	0	0	0	0	510	508	0	0			
10	0	0	0	0	512	507	0	0			
11	0	0	0	0	508	506	0	0			
12	0	0	0	0	510	507	0	0			
13	0	0	0	0	510	508	0	0			
14	0	0	0	0	509	507	0	0			
15	0	0	0	0	505	506	0	0			
0	0	0	0	0	505	507	0	0			
1	0	0	0	0	506	508	0	0			
2	0	0	0	0	507	506	0	0			
3	0	0	0	0	511	511	0	0			
4	0	0	0	0	511	509	0	0			
5	0	0	0	0	513	508	0	0			
6	0	0	0	0	511	508	0	0			
7	0	0	0	0	511	508	0	0			
8	0	0	0	0	513	509	0	0			
9	0	0	0	0	514	510	0	0			
10	0	0	0	0	516	508	0	0			
11	0	0	0	0	516	507	0	0			
12	0	0	0	0	514	504	0	0			
13	0	0	0	0	512	508	0	0			
14	0	0	0	0	512	507	0	0			
15	0	0	0	0	510	507	0	0			
0	0	0	0	0	510	507	0	0			
1	0	0	0	0	508	506	0	0			
2	0	0	0	0	510	508	0	0			
3	0	0	0	0	508	508	0	0			
4	0	0	0	0	503	507	0	0			
5	0	0	0	0	504	508	0	0			
6	0	0	0	0	507	507	0	0			
7	0	0	0	0	510	509	0	0			
8	0	0	0	0	512	508	0	0			
9	0	0	0	0	512	511	0	0			
10	0	0	0	0	514	508	0	0			
11	0	0	0	0	513	509	0	0			
12	0	0	0	0	512	508	0	0			
13	0	0	0	0	513	508	0	0			
14	0	0	0	0	514	508	0	0			
15	0	0	0	0	512	508	0	0			
0	0	0	0	0	513	508	0	0			
1	0	0	0	0	513	509	0	0			
2	0	0	0	0	513	508	0	0			
3	0	0	0	0	509	507	0	0			
4	0	0	0	0	508	506	0	0			
5	0	0	0	0	507	507	0	0			
6	0	0	0	0	507	506	0	0			
7	0	0	0	0	508	506	0	0			
8	0	0	0	0	508	508	0	0			
9	0	0	0	0	507	509	0	0			
10	0	0	0	0	506	508	0	0			
11	0	0	0	0	508	509	0	0			
12	0	0	0	0	513	509	0	0			
13	0	0	0	0	511	507	0	0			
14	0	0	0	0	510	509	0	0			
15	0	0	0	0	512	507	0	0			
0	0	0	0	0	516	509	0	0			
1	0	0	0	0	516	508	0	0			
2	0	0	0	0	513	509	0	0			
3	0	0	0	0	512	510	0	0			
4	0	0	0	0	512	507	0	0			
5	0	0	0	0	512	508	0	0			
6	0	0	0	0	511	504	0	0			
7	0	0	0	0	508	507	0	0			
8	0	0	0	0	508	507	0	0			
9	0	0	0	0	509	507	0	0			
10	0	0	0	0	508	507	0	0			
11	0	0	0	0	506	507	0	0			
12	0	0	0	0	506	508	0	0			
13	0	0	0	0	509	509	0	0			
14	0	0	0	0	509	507	0	0			
15	0	0	0	0	505	509	0	0			
0	0	0	0	0	504	507	0	0			
1	0	0	0	0	510	508	0	0			
2	0	0	0	0	521	510	0	0			
3	0	0	0	0	520	508	0	0			
4	0	0	0	0	514	509	0	0			
5	0	0	0	0	512	511	0	0			
6	0	0	0	0	518	511	0	0			
7	0	0	0	0	517	509	0	0			
8	0	0	0	0	514	507	0	0			
9	0	0	0	0	511	508	0	0			
10	0	0	0	0	512	508	0	0			
11	0	0	0	0	511	507	0	0			
12	0	0	0	0	507	504	0	0			
13	0	0	0	0	508	509	0	0			
14	0	0	0	0	508	506	0	0			
15	0	0	0	0	507	504	0	0			
0	0	0	0	0	505	507	0	0			
1	0	0	0	0	505	509	0	0			
2	0	0	0	0	505	509	0	0			
3	0	0	0	0	506	508	0	0			
4	0	0	0	0	507	508	0	0			
5	0	0	0	0	512	508	0	0			
6	0	0	0	0	515	509	0	0			
7	0	0	0	0	516	509	0	0			
8	0	0	0	0	512	509	0	0			
9	0	0	0	0	513	510	0	0			
10	0	0	0	0	516	508	0	0			
11	0	0	0	0	514	508	0	0			
12	0	0	0	0	510	509	0	0			
13	0	0	0	0	506	506	0	0			
14	0	0	0	0	513	508	0	0			
15	0	0	0	0	512	507	0	0			
0	0	0	0	0	512	507	0	0			
1	0	0	0	0	508	506	0	0			
2	0	0	0	0	509	508	0	0			
3	0	0	0	0	508	506	0	0			
4	0	0	0	0	504	507	0	0			
5	0	0	0	0	507	508	0	0			
6	0	0	0	0	506	508	0	0			
7	0	0	0	0	510	507	0	0			
8	0	0	0	0	511	509	0	0			
9	0	0	0	0	512	509	0	0			
10	0	0	0	0	510	509	0	0			
11	0	0	0	0	511	509	0	0			
12	0	0	0	0	514	510	0	0			
13	0	0	0	0	515	510	0	0			
14	0	0	0	0	520	510	0	0			
15	0	0	0	0	515	509	0	0			
0	0	0	0	0	511	507	0	0			
1	0	0	0	0	510	504	0	0			
2	0	0	0	0	511	505	0	0			
3	0	0	0	0	510	505	0	0			
4	0	0	0	0	507	507	0	0			
5	0	0	0	0	505	508	0	0			
6	0	0	0	0	504	506	0	0			
7	0	0	0	0	511	508	0	0			
8	0	0	0	0	504	510	0	0			
9	0	0	0	0	507	508	0	0			
10	0	0	0	0	510	509	0	0			
11	0	0	0	0	511	509	0	0			
12	0	0	0	0	511	506	0	0			
13	0	0	0	0	506	507	0	0			
14	0	0	0	0	505	508	0	0			
15	0	0	0	0	519	510	0	0			
0	0	0	0	0	520	511	0	0			
1	0	0	0	0	516	511	0	0			
2	0	0	0	0	515	508	0	0			
3	0	0	0	0	515	511	0	0			
4	0	0	0	0	512	506	0	0			
5	0	0	0	0	507	507	0	0			
6	0	0	0	0	511	505	0	0			
7	0	0	0	0	513	507	0	0			
8	0	0	0	0	510	505	0	0			
9	0	0	0	0	508	508	0	0			
10	0	0	0	0	511	509	0	0			
11	0	0	0	0	507	507	0	0			
12	0	0	0	0	503	508	0	0			
13	0	0	0	0	504	508	0	0			
14	0	0	0	0	502	508	0	0			
15	0	0	0	0	512	507	0	0			
0	0	0	0	0	511	508	0	0			
1	0	0	0	0	515	506	0	0			
2	0	0	0	0	515	508	0	0			
3	0	0	0	0	513	509	0	0			
4	0	0	0	0	513	508	0	0			
5	0	0	0	0	513	508	0	0			
6	0	0	0	0	513	509	0	0			
7	0	0	0	0	512	509	0	0			
8	0	0	0	0	515	509	0	0			
9	0	0	0	0	513	508	0	0			
10	0	0	0	0	510	508	0	0			
11	0	0	0	0	504	508	0	0			
12	0	0	0	0	509	507	0	0			
13	0	0	0	0	513	509	0	0			
14	0	0	0	0	512	506	0	0			
15	0	0	0	0	507	506	0	0			
0	0	0	0	0	504	505	0	0			
1	0	0	0	0	504	508	0	0			
2	0	0	0	0	504	507	0	0			
3	0	0	0	0	508	508	0	0			
4	0	0	0	0	508	508	0	0			
5	0	0	0	0	512	507	0	0			
6	0	0	0	0	514	509	0	0			
7	0	0	0	0	510	508	0	0			
8	0	0	0	0	509	507	0	0			
9	0	0	0	0	515	510	0	0			
10	0	0	0	0	521	508	0	0			
11	0	0	0	0	519	508	0	0			
12	0	0	0	0	515	508	0	0			
13	0	0	0	0	513	508	0	0			
14	0	0	0	0	512	508	0	0			
15	0	0	0	0	509	506	0	0			
0	0	0	0	0	509	508	0	0			
1	0	0	0	0	507	508	0	0			
2	0	0	0	0	508	507	0	0			
3	0	0	0	0	503	508	0	0			
4	0	0	0	0	508	508	0	0			
5	0	0	0	0	509	508	0	0			
6	0	0	0	0	507	510	0	0			
7	0	0	0	0	504	508	0	0			
8	0	0	0	0	510	508	0	0			
9	0	0	0	0	510	508	0	0			
10	0	0	0	0	518	507	0	0			
11	0	0	0	0	519	507	0	0			
12	0	0	0	0	510	508	0	0			
13	0	0	0	0	512	509	0	0			
14	0	0	0	0	515	508	0	0			
15	0	0	0	0	513	507	0	0			
0	0	0	0	0	509	507	0	0			
1	0	0	0	0	511	510	0	0			
2	0	0	0	0	508	508	0	0			
3	0	0	0	0	512	508	0	0			
4	0	0	0	0	514	509	0	0			
5	0	0	0	0	511	507	0	0			
6	0	0	0	0	510	509	0	0			
7	0	0	0	0	504	504	0	0			
8	0	0	0	0	503	508	0	0			
9	0	0	0	0	509	510	0	0			
10	0	0	0	0	511	511	0	0			
11	0	0	0	0	510	508	0	0			
12	0	0	0	0	507	506	0	0			
13	0	0	0	0	508	508	0	0			
14	0	0	0	0	513	508	0	0			
15	0	0	0	0	512	508	0	0			
0	0	0	0	0	513	507	0	0			
1	0	0	0	0	512	509	0	0			
2	0	0	0	0	514	510	0	0			
3	0	0	0	0	513	508	0	0			
4	0	0	0	0	512	507	0	0			
5	0	0	0	0	515	507	0	0			
6	0	0	0	0	511	507	0	0			
7	0	0	0	0	508	506	0	0			
8	0	0	0	0	505	506	0	0			
9	0	0	0	0	500	505	0	0			
10	0	0	0	0	510	508	0	0			
11	0	0	0	0	512	507	0	0			
12	0	0	0	0	512	505	0	0			
13	0	0	0	0	502	508	0	0			
14	0	0	0	0	500	508	0	0			
15	0	0	0	0	509	509	0	0			
0	0	0	0	0	518	510	0	0			
1	0	0	0	0	521	508	0	0			
2	0	0	0	0	514	509	0	0			
3	0	0	0	0	510	508	0	0			
4	0	0	0	0	507	507	0	0			
5	0	0	0	0	523	511	0	0			
6	0	0	0	0	512	509	0	0			
7	0	0	0	0	508	504	0	0			
8	0	0	0	0	517	507	0	0			
9	0	0	0	0	523	511	0	0			
10	0	0	0	0	511	509	0	0			
11	0	0	0	0	508	507	0	0			
12	0	0	0	0	509	507	0	0			
13	0	0	0	0	505	506	0	0			
14	0	0	0	0	510	507	0	0			
15	0	0	0	0	504	507	0	0			
0	0	0	0	0	505	507	0	0			
1	0	0	0	0	509	506	0	0			
2	0	0	0	0	507	508	0	0			
3	0	0	0	0	505	507	0	0			
4	0	0	0	0	511	508	0	0			
5	0	0	0	0	512	511	0	0			
6	0	0	0	0	512	509	0	0			
7	0	0	0	0	514	508	0	0			
8	0	0	0	0	514	509	0	0			
9	0	0	0	0	511	508	0	0			
10	0	0	0	0	514	510	0	0			
11	0	0	0	0	510	509	0	0			
12	0	0	0	0	512	510	0	0			
13	0	0	0	0	511	508	0	0			
14	0	0	0	0	512	508	0	0			
15	0	0	0	0	511	507	0	0			
0	0	0	0	0	509	507	0	0			
1	0	0	0	0	505	505	0	0			
2	0	0	0	0	506	507	0	0			
3	0	0	0	0	503	508	0	0			
4	0	0	0	0	504	508	0	0			
5	0	0	0	0	508	509	0	0			
6	0	0	0	0	508	508	0	0			
7	0	0	0	0	511	509	0	0			
8	0	0	0	0	511	510	0	0			
9	0	0	0	0	515	507	0	0			
10	0	0	0	0	512	507	0	0			
11	0	0	0	0	515	508	0	0			
12	0	0	0	0	515	509	0	0			
13	0	0	0	0	513	509	0	0			
14	0	0	0	0	512	511	0	0			
15	0	0	0	0	515	508	0	0			
0	0	0	0	0	513	507	0	0			
1	0	0	0	0	517	507	0	0			
2	0	0	0	0	513	506	0	0			
3	0	0	0	0	508	506	0	0			
4	0	0	0	0	504	508	0	0			
5	0	0	0	0	507	507	0	0			
6	0	0	0	0	508	507	0	0			
7	0	0	0	0	509	508	0	0			
8	0	0	0	0	507	508	0	0			
9	0	0	0	0	506	506	0	0			
10	0	0	0	0	506	509	0	0			
11	0	0	0	0	505	509	0	0			
12	0	0	0	0	511	509	0	0			
13	0	0	0	0	513	508	0	0			
14	0	0	0	0	511	509	0	0			
15	0	0	0	0	513	509	0	0			
0	0	0	0	0	514	510	0	0			
1	0	0	0	0	516	508	0	0			
2	0	0	0	0	514	509	0	0			
3	0	0	0	0	517	510	0	0			
4	0	0	0	0	512	508	0	0			
5	0	0	0	0	514	505	0	0			
6	0	0	0	0	511	507	0	0			
7	0	0	0	0	514	507	0	0			
8	0	0	0	0	511	509	0	0			
9	0	0	0	0	509	509	0	0			
10	0	0	0	0	507	508	0	0			
11	0	0	0	0	503	505	0	0			
12	0	0	0	0	504	507	0	0			
13	0	0	0	0	502	507	0	0			
14	0	0	0	0	507	507	0	0			
15	0	0	0	0	509	510	0	0			
0	0	0	0	0	513	508	0	0			
1	0	0	0	0	521	508	0	0			
2	0	0	0	0	517	507	0	0			
3	0	0	0	0	512	508	0	0			
4	0	0	0	0	503	507	0	0			
5	0	0	0	0	520	513	0	0			
6	0	0	0	0	515	510	0	0			
7	0	0	0	0	501	503	0	0			
8	0	0	0	0	511	507	0	0			
9	0	0	0	0	515	512	0	0			
10	0	0	0	0	510	508	0	0			
11	0	0	0	0	511	508	0	0			
12	0	0	0	0	508	508	0	0			
13	0	0	0	0	502	506	0	0			
14	0	0	0	0	509	505	0	0			
15	0	0	0	0	512	507	0	0			
0	0	0	0	0	507	506	0	0			
1	0	0	0	0	510	508	0	0			
2	0	0	0	0	509	510	0	0			
3	0	0	0	0	509	507	0	0			
4	0	0	0	0	510	510	0	0			
5	0	0	0	0	510	508	0	0			
6	0	0	0	0	511	509	0	0			
7	0	0	0	0	511	507	0	0			
8	0	0	0	0	509	508	0	0			
9	0	0	0	0	510	509	0	0			
10	0	0	0	0	519	508	0	0			
11	0	0	0	0	513	508	0	0			
12	0	0	0	0	519	509	0	0			
13	0	0	0	0	514	507	0	0			
14	0	0	0	0	510	507	0	0			
15	0	0	0	0	513	506	0	0			
0	0	0	0	0	512	508	0	0			
1	0	0	0	0	508	509	0	0			
2	0	0	0	0	506	505	0	0			
3	0	0	0	0	509	508	0	0			
4	0	0	0	0	506	509	0	0			
5	0	0	0	0	506	506	0	0			
6	0	0	0	0	506	508	0	0			
7	0	0	0	0	505	509	0	0			
8	0	0	0	0	508	508	0	0			
9	0	0	0	0	512	509	0	0			
10	0	0	0	0	512	510	0	0			
11	0	0	0	0	512	508	0	0			
12	0	0	0	0	510	511	0	0			
13	0	0	0	0	512	510	0	0			
14	0	0	0	0	517	511	0	0			
15	0	0	0	0	519	509	0	0			
0	0	0	0	0	510	507	0	0			
1	0	0	0	0	510	504	0	0			
2	0	0	0	0	518	508	0	0			
3	0	0	0	0	511	507	0	0			
4	0	0	0	0	510	505	0	0			
5	0	0	0	0	507	506	0	0			
6	0	0	0	0	500	507	0	0			
7	0	0	0	0	506	506	0	0			
8	0	0	0	0	515	508	0	0			
9	0	0	0	0	511	511	0	0			
10	0	0	0	0	507	508	0	0			
11	0	0	0	0	502	508	0	0			
12	0	0	0	0	511	507	0	0			
13	0	0	0	0	518	508	0	0			
14	0	0	0	0	515	510	0	0			
15	0	0	0	0	516	508	0	0			
0	0	0	0	0	517	509	0	0			
1	0	0	0	0	513	509	0	0			
2	0	0	0	0	512	507	0	0			
3	0	0	0	0	513	506	0	0			
4	0	0	0	0	513	507	0	0			
5	0	0	0	0	512	511	0	0			
6	0	0	0	0	508	505	0	0			
7	0	0	0	0	509	508	0	0			
8	0	0	0	0	513	507	0	0			
9	0	0	0	0	513	508	0	0			
10	0	0	0	0	509	507	0	0			
11	0	0	0	0	509	507	0	0			
12	0	0	0	0	505	508	0	0			
13	0	0	0	0	504	509	0	0			
14	0	0	0	0	504	508	0	0			
15	0	0	0	0	509	508	0	0			
0	0	0	0	0	510	508	0	0			
1	0	0	0	0	515	506	0	0			
2	0	0	0	0	515	508	0	0			
3	0	0	0	0	508	509	0	0			
4	0	0	0	0	508	509	0	0			
5	0	0	0	0	504	508	0	0			
6	0	0	0	0	520	510	0	0			
7	0	0	0	0	518	508	0	0			
8	0	0	0	0	519	506	0	0			
9	0	0	0	0	515	508	0	0			
10	0	0	0	0	512	508	0	0			
11	0	0	0	0	512	508	0	0			
12	0	0	0	0	506	505	0	0			
13	0	0	0	0	492	504	0	0			
14	0	0	0	0	508	511	0	0			
15	0	0	0	0	510	508	0	0			
0	0	0	0	0	511	504	0	0			
1	0	0	0	0	508	507	0	0			
2	0	0	0	0	511	506	0	0			
3	0	0	0	0	511	509	0	0			
4	0	0	0	0	510	507	0	0			
5	0	0	0	0	511	509	0	0			
6	0	0	0	0	512	509	0	0			
7	0	0	0	0	511	509	0	0			
8	0	0	0	0	509	509	0	0			
9	0	0	0	0	514	510	0	0			
10	0	0	0	0	517	510	0	0			
11	0	0	0	0	516	507	0	0			
12	0	0	0	0	515	507	0	0			
13	0	0	0	0	514	507	0	0			
14	0	0	0	0	509	506	0	0			
15	0	0	0	0	508	507	0	0			
0	0	0	0	0	512	507	0	0			
1	0	0	0	0	508	507	0	0			
2	0	0	0	0	503	506	0	0			
3	0	0	0	0	511	507	0	0			
4	0	0	0	0	507	507	0	0			
5	0	0	0	0	509	507	0	0			
6	0	0	0	0	512	509	0	0			
7	0	0	0	0	506	508	0	0			
8	0	0	0	0	508	507	0	0			
9	0	0	0	0	514	509	0	0			
10	0	0	0	0	508	507	0	0			
11	0	0	0	0	510	510	0	0			
12	0	0	0	0	517	507	0	0			
13	0	0	0	0	515	508	0	0			
14	0	0	0	0	517	509	0	0			
15	0	0	0	0	512	507	0	0			
0	0	0	0	0	514	510	0	0			
1	0	0	0	0	512	508	0	0			
2	0	0	0	0	512	507	0	0			
3	0	0	0	0	514	507	0	0			
4	0	0	0	0	507	508	0	0			
5	0	0	0	0	502	507	0	0			
6	0	0	0	0	505	508	0	0			
7	0	0	0	0	502	508	0	0			
8	0	0	0	0	497	507	0	0			
9	0	0	0	0	497	505	0	0			
10	0	0	0	0	505	508	0	0			
11	0	0	0	0	526	508	0	0			
12	0	0	0	0	520	510	0	0			
13	0	0	0	0	509	510	0	0			
14	0	0	0	0	514	509	0	0			
15	0	0	0	0	519	510	0	0			
0	0	0	0	0	520	508	0	0			
1	0	0	0	0	509	507	0	0			
2	0	0	0	0	510	508	0	0			
3	0	0	0	0	518	509	0	0			
4	0	0	0	0	517	510	0	0			
5	0	0	0	0	520	509	0	0			
6	0	0	0	0	507	504	0	0			
7	0	0	0	0	510	505	0	0			
8	0	0	0	0	507	507	0	0			
9	0	0	0	0	508	508	0	0			
10	0	0	0	0	508	510	0	0			
11	0	0	0	0	509	508	0	0			
12	0	0	0	0	504	506	0	0			
13	0	0	0	0	507	507	0	0			
14	0	0	0	0	509	509	0	0			
15	0	0	0	0	499	508	0	0			
0	0	0	0	0	493	506	0	0			
1	0	0	0	0	508	508	0	0			
2	0	0	0	0	516	508	0	0			
3	0	0	0	0	518	508	0	0			
4	0	0	0	0	524	508	0	0			
5	0	0	0	0	519	510	0	0			
6	0	0	0	0	515	509	0	0			
7	0	0	0	0	516	510	0	0			
8	0	0	0	0	513	510	0	0			
9	0	0	0	0	511	509	0	0			
10	0	0	0	0	509	506	0	0			
11	0	0	0	0	512	507	0	0			
12	0	0	0	0	506	508	0	0			
13	0	0	0	0	492	502	0	0			
14	0	0	0	0	511	510	0	0			
15	0	0	0	0	512	510	0	0			
0	0	0	0	0	510	507	0	0			
1	0	0	0	0	509	507	0	0			
2	0	0	0	0	507	508	0	0			
3	0	0	0	0	507	507	0	0			
4	0	0	0	0	511	508	0	0			
5	0	0	0	0	512	507	0	0			
6	0	0	0	0	513	509	0	0			
7	0	0	0	0	513	507	0	0			
8	0	0	0	0	518	507	0	0			
9	0	0	0	0	517	509	0	0			
10	0	0	0	0	507	511	0	0			
11	0	0	0	0	511	509	0	0			
12	0	0	0	0	516	506	0	0			
13	0	0	0	0	510	508	0	0			
14	0	0	0	0	510	508	0	0			
15	0	0	0	0	513	506	0	0			
0	0	0	0	0	512	505	0	0			
1	0	0	0	0	512	508	0	0			
2	0	0	0	0	502	507	0	0			
3	0	0	0	0	504	508	0	0			
4	0	0	0	0	505	505	0	0			
5	0	0	0	0	514	509	0	0			
6	0	0	0	0	507	508	0	0			
7	0	0	0	0	508	506	0	0			
8	0	0	0	0	511	508	0	0			
9	0	0	0	0	510	506	0	0			
10	0	0	0	0	514	511	0	0			
11	0	0	0	0	514	507	0	0			
12	0	0	0	0	520	508	0	0			
13	0	0	0	0	515	510	0	0			
14	0	0	0	0	512	510	0	0			
15	0	0	0	0	511	509	0	0			
0	0	0	0	0	513	506	0	0			
1	0	0	0	0	512	507	0	0			
2	0	0	0	0	514	508	0	0			
3	0	0	0	0	512	508	0	0			
4	0	0	0	0	503	506	0	0			
5	0	0	0	0	510	507	0	0			
6	0	0	0	0	509	508	0	0			
7	0	0	0	0	506	509	0	0			
8	0	0	0	0	504	507	0	0			
9	0	0	0	0	504	507	0	0			
10	0	0	0	0	509	507	0	0			
11	0	0	0	0	508	507	0	0			
12	0	0	0	0	507	510	0	0			
13	0	0	0	0	519	512	0	0			
14	0	0	0	0	515	508	0	0			
15	0	0	0	0	511	507	0	0			
0	0	0	0	0	516	510	0	0			
1	0	0	0	0	515	512	0	0			
2	0	0	0	0	510	511	0	0			
3	0	0	0	0	517	507	0	0			
4	0	0	0	0	519	506	0	0			
5	0	0	0	0	514	508	0	0			
6	0	0	0	0	512	507	0	0			
7	0	0	0	0	506	508	0	0			
8	0	0	0	0	503	507	0	0			
9	0	0	0	0	509	507	0	0			
10	0	0	0	0	510	508	0	0			
11	0	0	0	0	510	507	0	0			
12	0	0	0	0	510	506	0	0			
13	0	0	0	0	505	507	0	0			
14	0	0	0	0	504	508	0	0			
15	0	0	0	0	505	510	0	0			
0	0	0	0	0	508	508	0	0			
1	0	0	0	0	511	506	0	0			
2	0	0	0	0	517	510	0	0			
3	0	0	0	0	519	510	0	0			
4	0	0	0	0	519	508	0	0			
5	0	0	0	0	508	510	0	0			
6	0	0	0	0	506	508	0	0			
7	0	0	0	0	509	508	0	0			
8	0	0	0	0	510	509	0	0			
9	0	0	0	0	516	508	0	0			
10	0	0	0	0	518	508	4	0			
11	0	0	0	0	508	505	0	0			
12	0	0	0	0	508	506	0	0			
13	0	0	0	0	513	507	0	0			
14	0	0	0	0	506	508	0	0			
15	0	0	0	0	503	508	0	0			
0	0	0	0	0	503	506	0	0			
1	0	0	0	0	504	505	0	0			
2	0	0	0	0	508	508	0	0			
3	0	0	0	0	511	508	0	0			
4	0	0	0	0	511	509	0	0			
5	0	0	0	0	511	507	0	0			
6	0	0	0	0	515	508	0	0			
7	0	0	0	0	512	508	0	0			
8	0	0	0	0	515	508	0	0			
9	0	0	0	0	514	509	0	0			
10	0	0	0	0	515	509	0	0			
11	0	0	0	0	513	512	0	0			
12	0	0	0	0	510	508	0	0			
13	0	0	0	0	512	508	0	0			
14	0	0	0	0	508	507	0	0			
15	0	0	0	0	505	505	0	0			
0	0	0	0	0	519	510	0	0			
1	0	0	0	0	511	507	0	0			
2	0	0	0	0	510	508	0	0			
3	0	0	0	0	502	509	0	0			
4	0	0	0	0	507	509	0	0			
5	0	0	0	0	513	509	0	0			
6	0	0	0	0	514	507	0	0			
7	0	0	0	0	505	505	0	0			
8	0	0	0	0	502	506	0	0			
9	0	0	0	0	516	508	0	0			
10	0	0	0	0	514	507	0	0			
11	0	0	0	0	512	509	5	0			
12	0	0	0	0	510	509	6	0			
13	0	0	0	0	516	507	6	0			
14	0	0	0	0	515	510	7	0			
15	0	0	0	0	515	510	8	0			
0	0	0	0	0	510	507	8	0			
1	0	0	0	0	511	507	9	0			
2	0	0	0	0	509	507	10	0			
3	0	0	0	0	511	507	9	0			
4	0	0	0	0	511	509	9	0			
5	0	0	0	0	505	506	10	0			
6	0	0	0	0	507	508	11	0			
7	0	0	0	0	506	508	11	0			
8	0	0	0	0	504	507	12	0			
9	0	0	0	0	505	507	11	0			
10	0	0	0	0	507	509	11	0			
11	0	0	0	0	507	505	11	0			
12	0	0	0	0	504	507	11	0			
13	0	0	0	0	512	509	12	0			
14	0	0	0	0	519	510	14	0			
15	0	0	0	0	517	506	14	0			
0	0	0	0	0	517	507	15	0			
1	0	0	0	0	510	508	16	0			
2	0	0	0	0	518	513	17	0			
3	0	0	0	0	512	509	16	0			
4	0	0	0	0	515	505	18	0			
5	0	0	0	0	512	509	19	0			
6	0	0	0	0	510	507	22	0			
7	0	0	0	0	509	507	21	0			
8	0	0	0	0	510	507	23	0			
9	0	0	0	0	508	508	23	0			
10	0	0	0	0	507	508	24	0			
11	0	0	0	0	507	504	22	0			
12	0	0	0	0	506	507	21	0			
13	0	0	0	0	507	507	22	0			
14	0	0	0	0	497	509	23	0			
15	0	0	0	0	503	507	23	0			
0	0	0	0	0	519	506	22	0			
1	0	0	0	0	507	505	23	0			
2	0	0	0	0	518	508	23	0			
3	0	0	0	0	518	506	22	0			
4	0	0	0	0	523	510	21	0			
5	0	0	0	0	516	511	22	0			
6	0	0	0	0	513	509	22	0			
7	0	0	0	0	516	511	23	0			
8	0	0	0	0	513	508	24	0			
9	0	0	0	0	506	507	24	0			
10	0	0	0	0	504	507	24	0			
11	0	0	0	0	513	506	22	0			
12	0	0	0	0	515	504	24	0			
13	0	0	0	0	515	508	24	0			
14	0	0	0	0	507	507	23	0			
15	0	0	0	0	503	507	22	0			
0	0	0	0	0	504	508	20	0			
1	0	0	0	0	502	508	19	0			
2	0	0	0	0	505	508	20	0			
3	0	0	0	0	507	508	18	0			
4	0	0	0	0	510	509	18	0			
5	0	0	0	0	512	509	19	0			
6	0	0	0	0	511	510	19	0			
7	0	0	0	0	511	508	19	0			
8	0	0	0	0	513	509	18	0			
9	0	0	0	0	512	508	18	0			
10	0	0	0	0	511	507	18	0			
11	0	0	0	0	517	507	20	0			
12	0	0	0	0	515	507	18	0			
13	0	0	0	0	512	508	19	0			
14	0	0	0	0	512	508	21	0			
15	0	0	0	0	509	506	21	0			
0	0	0	0	0	510	507	20	0			
1	0	0	0	0	508	505	20	0			
2	0	0	0	0	508	507	21	0			
3	0	0	0	0	508	508	21	0			
4	0	0	0	0	505	505	22	0			
5	0	0	0	0	505	507	23	0			
6	0	0	0	0	508	509	24	0			
7	0	0	0	0	510	509	23	0			
8	0	0	0	0	513	508	26	0			
9	0	0	0	0	512	507	28	0			
10	0	0	0	0	512	507	28	0			
11	0	0	0	0	515	510	33	0			
12	0	0	0	0	513	507	35	0			
13	0	0	0	0	512	511	35	0			
14	0	0	0	0	515	510	36	0			
15	0	0	0	0	519	507	36	0			
0	0	0	0	0	512	508	35	0			
1	0	0	0	0	511	508	33	0			
2	0	0	0	0	511	508	33	0			
3	0	0	0	0	511	508	32	0			
4	0	0	0	0	507	506	32	0			
5	0	0	0	0	505	509	33	0			
6	0	0	0	0	510	506	32	0			
7	0	0	0	0	508	507	32	0			
8	0	0	0	0	507	508	32	0			
9	0	0	0	0	507	509	33	0			
10	0	0	0	0	504	509	32	0			
11	0	0	0	0	504	507	33	0			
12	0	0	0	0	509	510	33	0			
13	0	0	0	0	508	508	33	0			
14	0	0	0	0	516	508	33	0			
15	0	0	0	0	518	508	32	0			
0	0	0	0	0	517	505	33	0			
1	0	0	0	0	514	508	33	0			
2	0	0	0	0	512	510	32	0			
3	0	0	0	0	512	509	31	0			
4	0	0	0	0	514	508	32	0			
5	0	0	0	0	514	509	33	0			
6	0	0	0	0	512	507	33	0			
7	0	0	0	0	510	507	33	0			
8	0	0	0	0	508	507	34	0			
9	0	0	0	0	511	508	34	0			
10	0	0	0	0	504	509	33	0			
