# OpenSignals Text File Format. Version 1
# {"20:18:06:13:21:78": {"position": 0, "device": "bitalino_rev", "device name": "20:18:06:13:21:78", "device connection": "BTH20:18:06:13:21:78", "sampling rate": 1000, "resolution": [4, 1, 1, 1, 1, 10, 10, 10, 10], "firmware version": 1281, "comments": "", "keywords": "", "mode": 0, "sync interval": 2, "date": "2023-6-5", "time": "20:37:42.299", "channels": [1, 2, 3, 4], "sensor": ["EMGBITREV", "EMGBITREV", "RAW", "RAW"], "label": ["A1", "A2", "A3", "A4"], "column": ["nSeq", "I1", "I2", "O1", "O2", "A1", "A2", "A3", "A4"], "special": [{}, {}, {}, {}], "digital IO": [0, 0, 1, 1]}}
# EndOfHeader
0	0	0	0	0	517	507	0	0	
1	0	0	0	0	515	508	0	0	
2	0	0	0	0	510	508	0	0	
3	0	0	0	0	509	508	0	0	
4	0	0	0	0	506	509	0	0	
5	0	0	0	0	504	508	0	0	
6	0	0	0	0	503	508	0	0	
7	0	0	0	0	504	510	0	0	
8	0	0	0	0	505	505	0	0	
9	0	0	0	0	503	508	0	0	
10	0	0	0	0	504	509	0	0	
11	0	0	0	0	506	510	0	0	
12	0	0	0	0	510	509	0	0	
13	0	0	0	0	514	507	0	0	
14	0	0	0	0	515	507	0	0	
15	0	0	0	0	519	508	0	0	
0	0	0	0	0	519	509	0	0	
1	0	0	0	0	519	510	0	0	
2	0	0	0	0	519	508	0	0	
3	0	0	0	0	517	506	0	0	
4	0	0	0	0	517	508	0	0	
5	0	0	0	0	516	507	0	0	
6	0	0	0	0	511	506	0	0	
7	0	0	0	0	508	508	0	0	
8	0	0	0	0	507	508	0	0	
9	0	0	0	0	503	508	0	0	
10	0	0	0	0	503	510	0	0	
11	0	0	0	0	502	510	0	0	
12	0	0	0	0	505	510	0	0	
13	0	0	0	0	504	509	0	0	
14	0	0	0	0	507	507	0	0	
15	0	0	0	0	507	508	0	0	
0	0	0	0	0	510	508	0	0	
1	0	0	0	0	513	507	0	0	
2	0	0	0	0	513	507	0	0	
3	0	0	0	0	516	508	0	0	
4	0	0	0	0	518	507	0	0	
5	0	0	0	0	519	508	0	0	
6	0	0	0	0	518	507	0	0	
7	0	0	0	0	517	508	0	0	
8	0	0	0	0	513	509	0	0	
9	0	0	0	0	515	509	0	0	
10	0	0	0	0	512	507	0	0	
11	0	0	0	0	509	508	0	0	
12	0	0	0	0	507	508	0	0	
13	0	0	0	0	503	508	0	0	
14	0	0	0	0	504	508	0	0	
15	0	0	0	0	501	508	0	0	
0	0	0	0	0	504	510	0	0	
1	0	0	0	0	502	508	0	0	
2	0	0	0	0	505	508	0	0	
3	0	0	0	0	507	509	0	0	
4	0	0	0	0	512	508	0	0	
5	0	0	0	0	513	510	0	0	
6	0	0	0	0	515	509	0	0	
7	0	0	0	0	518	508	0	0	
8	0	0	0	0	521	506	0	0	
9	0	0	0	0	521	506	0	0	
10	0	0	0	0	521	509	0	0	
11	0	0	0	0	517	508	0	0	
12	0	0	0	0	515	509	0	0	
13	0	0	0	0	515	508	0	0	
14	0	0	0	0	514	507	0	0	
15	0	0	0	0	508	505	0	0	
0	0	0	0	0	507	509	0	0	
1	0	0	0	0	504	508	0	0	
2	0	0	0	0	503	507	0	0	
3	0	0	0	0	503	508	0	0	
4	0	0	0	0	505	508	0	0	
5	0	0	0	0	505	509	0	0	
6	0	0	0	0	504	507	0	0	
7	0	0	0	0	507	508	0	0	
8	0	0	0	0	509	507	0	0	
9	0	0	0	0	513	506	0	0	
10	0	0	0	0	514	507	0	0	
11	0	0	0	0	515	506	0	0	
12	0	0	0	0	518	508	0	0	
13	0	0	0	0	521	506	0	0	
14	0	0	0	0	519	509	0	0	
15	0	0	0	0	518	509	0	0	
0	0	0	0	0	518	509	0	0	
1	0	0	0	0	516	507	0	0	
2	0	0	0	0	511	509	0	0	
3	0	0	0	0	508	508	0	0	
4	0	0	0	0	507	507	0	0	
5	0	0	0	0	507	508	0	0	
6	0	0	0	0	503	506	0	0	
7	0	0	0	0	503	508	0	0	
8	0	0	0	0	505	509	0	0	
9	0	0	0	0	504	507	0	0	
10	0	0	0	0	505	508	0	0	
11	0	0	0	0	509	507	0	0	
12	0	0	0	0	512	509	0	0	
13	0	0	0	0	514	508	0	0	
14	0	0	0	0	513	508	0	0	
15	0	0	0	0	515	509	0	0	
0	0	0	0	0	519	508	0	0	
1	0	0	0	0	519	505	0	0	
2	0	0	0	0	520	508	0	0	
3	0	0	0	0	516	510	0	0	
4	0	0	0	0	517	510	0	0	
5	0	0	0	0	515	507	0	0	
6	0	0	0	0	511	508	0	0	
7	0	0	0	0	507	507	0	0	
8	0	0	0	0	507	510	0	0	
9	0	0	0	0	505	507	0	0	
10	0	0	0	0	504	508	0	0	
11	0	0	0	0	502	508	0	0	
12	0	0	0	0	503	509	0	0	
13	0	0	0	0	502	510	0	0	
14	0	0	0	0	505	507	0	0	
15	0	0	0	0	506	508	0	0	
0	0	0	0	0	512	507	0	0	
1	0	0	0	0	513	508	0	0	
2	0	0	0	0	515	509	0	0	
3	0	0	0	0	518	508	0	0	
4	0	0	0	0	519	508	0	0	
5	0	0	0	0	519	508	0	0	
6	0	0	0	0	521	507	0	0	
7	0	0	0	0	520	508	0	0	
8	0	0	0	0	517	507	0	0	
9	0	0	0	0	512	506	0	0	
10	0	0	0	0	510	508	0	0	
11	0	0	0	0	507	509	0	0	
12	0	0	0	0	508	508	0	0	
13	0	0	0	0	507	508	0	0	
14	0	0	0	0	504	510	0	0	
15	0	0	0	0	505	509	0	0	
0	0	0	0	0	503	509	0	0	
1	0	0	0	0	506	509	0	0	
2	0	0	0	0	505	508	0	0	
3	0	0	0	0	507	507	0	0	
4	0	0	0	0	510	508	0	0	
5	0	0	0	0	512	505	0	0	
6	0	0	0	0	515	507	0	0	
7	0	0	0	0	518	508	0	0	
8	0	0	0	0	520	510	0	0	
9	0	0	0	0	521	509	0	0	
10	0	0	0	0	519	508	0	0	
11	0	0	0	0	518	508	0	0	
12	0	0	0	0	515	509	0	0	
13	0	0	0	0	513	506	0	0	
14	0	0	0	0	509	506	0	0	
15	0	0	0	0	508	508	0	0	
0	0	0	0	0	509	507	0	0	
1	0	0	0	0	505	506	0	0	
2	0	0	0	0	503	509	0	0	
3	0	0	0	0	501	507	0	0	
4	0	0	0	0	503	510	0	0	
5	0	0	0	0	504	510	0	0	
6	0	0	0	0	507	509	0	0	
7	0	0	0	0	508	509	0	0	
8	0	0	0	0	511	508	0	0	
9	0	0	0	0	513	508	0	0	
10	0	0	0	0	517	507	0	0	
11	0	0	0	0	519	507	0	0	
12	0	0	0	0	521	507	0	0	
13	0	0	0	0	518	509	0	0	
14	0	0	0	0	519	507	0	0	
15	0	0	0	0	518	509	0	0	
0	0	0	0	0	515	508	0	0	
1	0	0	0	0	514	507	0	0	
2	0	0	0	0	510	508	0	0	
3	0	0	0	0	508	508	0	0	
4	0	0	0	0	509	508	0	0	
5	0	0	0	0	505	509	0	0	
6	0	0	0	0	503	508	0	0	
7	0	0	0	0	503	509	0	0	
8	0	0	0	0	501	510	0	0	
9	0	0	0	0	504	511	0	0	
10	0	0	0	0	507	505	0	0	
11	0	0	0	0	508	507	0	0	
12	0	0	0	0	509	506	0	0	
13	0	0	0	0	513	509	0	0	
14	0	0	0	0	516	509	0	0	
15	0	0	0	0	517	508	0	0	
0	0	0	0	0	519	509	0	0	
1	0	0	0	0	520	508	0	0	
2	0	0	0	0	518	508	0	0	
3	0	0	0	0	518	508	0	0	
4	0	0	0	0	515	508	0	0	
5	0	0	0	0	513	508	0	0	
6	0	0	0	0	511	508	0	0	
7	0	0	0	0	511	508	0	0	
8	0	0	0	0	507	508	0	0	
9	0	0	0	0	504	510	0	0	
10	0	0	0	0	502	509	0	0	
11	0	0	0	0	501	509	0	0	
12	0	0	0	0	502	507	0	0	
13	0	0	0	0	504	508	0	0	
14	0	0	0	0	507	508	0	0	
15	0	0	0	0	505	507	0	0	
0	0	0	0	0	509	508	0	0	
1	0	0	0	0	513	508	0	0	
2	0	0	0	0	517	507	0	0	
3	0	0	0	0	519	508	0	0	
4	0	0	0	0	519	507	0	0	
5	0	0	0	0	520	505	0	0	
6	0	0	0	0	519	508	0	0	
7	0	0	0	0	518	508	0	0	
8	0	0	0	0	516	506	0	0	
9	0	0	0	0	514	508	0	0	
10	0	0	0	0	510	508	0	0	
11	0	0	0	0	508	508	0	0	
12	0	0	0	0	507	509	0	0	
13	0	0	0	0	503	508	0	0	
14	0	0	0	0	504	509	0	0	
15	0	0	0	0	504	509	0	0	
0	0	0	0	0	503	508	0	0	
1	0	0	0	0	503	509	0	0	
2	0	0	0	0	507	509	0	0	
3	0	0	0	0	507	507	0	0	
4	0	0	0	0	508	507	0	0	
5	0	0	0	0	514	508	0	0	
6	0	0	0	0	517	508	0	0	
7	0	0	0	0	518	509	0	0	
8	0	0	0	0	518	508	0	0	
9	0	0	0	0	521	508	0	0	
10	0	0	0	0	521	510	0	0	
11	0	0	0	0	519	506	0	0	
12	0	0	0	0	517	506	0	0	
13	0	0	0	0	512	508	0	0	
14	0	0	0	0	510	509	0	0	
15	0	0	0	0	508	507	0	0	
0	0	0	0	0	506	508	0	0	
1	0	0	0	0	502	509	0	0	
2	0	0	0	0	503	510	0	0	
3	0	0	0	0	502	509	0	0	
4	0	0	0	0	502	509	0	0	
5	0	0	0	0	503	509	0	0	
6	0	0	0	0	508	509	0	0	
7	0	0	0	0	507	508	0	0	
8	0	0	0	0	510	508	0	0	
9	0	0	0	0	513	506	0	0	
10	0	0	0	0	515	508	0	0	
11	0	0	0	0	518	507	0	0	
12	0	0	0	0	521	505	0	0	
13	0	0	0	0	520	508	0	0	
14	0	0	0	0	519	507	0	0	
15	0	0	0	0	517	507	0	0	
0	0	0	0	0	515	508	0	0	
1	0	0	0	0	511	509	0	0	
2	0	0	0	0	512	509	0	0	
3	0	0	0	0	508	508	0	0	
4	0	0	0	0	507	508	0	0	
5	0	0	0	0	504	508	0	0	
6	0	0	0	0	501	508	0	0	
7	0	0	0	0	503	510	0	0	
8	0	0	0	0	503	508	0	0	
9	0	0	0	0	505	510	0	0	
10	0	0	0	0	505	508	0	0	
11	0	0	0	0	506	509	0	0	
12	0	0	0	0	510	508	0	0	
13	0	0	0	0	512	508	0	0	
14	0	0	0	0	516	507	0	0	
15	0	0	0	0	518	507	0	0	
0	0	0	0	0	520	508	0	0	
1	0	0	0	0	520	506	0	0	
2	0	0	0	0	520	507	0	0	
3	0	0	0	0	517	508	0	0	
4	0	0	0	0	515	508	0	0	
5	0	0	0	0	515	507	0	0	
6	0	0	0	0	512	509	0	0	
7	0	0	0	0	508	509	0	0	
8	0	0	0	0	507	509	0	0	
9	0	0	0	0	505	508	0	0	
10	0	0	0	0	502	507	0	0	
11	0	0	0	0	502	506	0	0	
12	0	0	0	0	504	510	0	0	
13	0	0	0	0	504	510	0	0	
14	0	0	0	0	505	508	0	0	
15	0	0	0	0	508	507	0	0	
0	0	0	0	0	510	508	0	0	
1	0	0	0	0	513	508	0	0	
2	0	0	0	0	515	509	0	0	
3	0	0	0	0	519	507	0	0	
4	0	0	0	0	519	507	0	0	
5	0	0	0	0	519	507	0	0	
6	0	0	0	0	518	507	0	0	
7	0	0	0	0	518	508	0	0	
8	0	0	0	0	515	508	0	0	
9	0	0	0	0	514	509	0	0	
10	0	0	0	0	511	509	0	0	
11	0	0	0	0	508	509	0	0	
12	0	0	0	0	505	507	0	0	
13	0	0	0	0	505	508	0	0	
14	0	0	0	0	504	506	0	0	
15	0	0	0	0	504	509	0	0	
0	0	0	0	0	504	509	0	0	
1	0	0	0	0	503	509	0	0	
2	0	0	0	0	506	509	0	0	
3	0	0	0	0	508	508	0	0	
4	0	0	0	0	508	507	0	0	
5	0	0	0	0	512	505	0	0	
6	0	0	0	0	514	508	0	0	
7	0	0	0	0	517	508	0	0	
8	0	0	0	0	519	509	0	0	
9	0	0	0	0	520	508	0	0	
10	0	0	0	0	520	509	0	0	
11	0	0	0	0	518	510	0	0	
12	0	0	0	0	517	508	0	0	
13	0	0	0	0	516	508	0	0	
14	0	0	0	0	514	507	0	0	
15	0	0	0	0	508	509	0	0	
0	0	0	0	0	506	508	0	0	
1	0	0	0	0	504	509	0	0	
2	0	0	0	0	504	508	0	0	
3	0	0	0	0	503	508	0	0	
4	0	0	0	0	505	507	0	0	
5	0	0	0	0	505	508	0	0	
6	0	0	0	0	505	507	0	0	
7	0	0	0	0	507	508	0	0	
8	0	0	0	0	511	509	0	0	
9	0	0	0	0	515	504	0	0	
10	0	0	0	0	513	506	0	0	
11	0	0	0	0	516	508	0	0	
12	0	0	0	0	519	508	0	0	
13	0	0	0	0	521	508	0	0	
14	0	0	0	0	518	510	0	0	
15	0	0	0	0	517	508	0	0	
0	0	0	0	0	519	508	0	0	
1	0	0	0	0	515	508	0	0	
2	0	0	0	0	512	507	0	0	
3	0	0	0	0	509	507	0	0	
4	0	0	0	0	505	508	0	0	
5	0	0	0	0	505	508	0	0	
6	0	0	0	0	503	508	0	0	
7	0	0	0	0	504	508	0	0	
8	0	0	0	0	502	508	0	0	
9	0	0	0	0	503	508	0	0	
10	0	0	0	0	508	510	0	0	
11	0	0	0	0	508	510	0	0	
12	0	0	0	0	509	506	0	0	
13	0	0	0	0	514	506	0	0	
14	0	0	0	0	516	508	0	0	
15	0	0	0	0	516	508	0	0	
0	0	0	0	0	521	509	0	0	
1	0	0	0	0	521	505	0	0	
2	0	0	0	0	519	509	0	0	
3	0	0	0	0	518	508	0	0	
4	0	0	0	0	515	506	0	0	
5	0	0	0	0	513	507	0	0	
6	0	0	0	0	511	509	0	0	
7	0	0	0	0	509	510	0	0	
8	0	0	0	0	506	509	0	0	
9	0	0	0	0	502	507	0	0	
10	0	0	0	0	503	510	0	0	
11	0	0	0	0	504	508	0	0	
12	0	0	0	0	504	507	0	0	
13	0	0	0	0	504	507	0	0	
14	0	0	0	0	506	507	0	0	
15	0	0	0	0	509	508	0	0	
0	0	0	0	0	512	507	0	0	
1	0	0	0	0	513	508	0	0	
2	0	0	0	0	514	508	0	0	
3	0	0	0	0	516	509	0	0	
4	0	0	0	0	517	507	0	0	
5	0	0	0	0	521	508	0	0	
6	0	0	0	0	519	508	0	0	
7	0	0	0	0	518	510	0	0	
8	0	0	0	0	515	507	0	0	
9	0	0	0	0	514	509	0	0	
10	0	0	0	0	511	508	0	0	
11	0	0	0	0	508	507	0	0	
12	0	0	0	0	507	508	0	0	
13	0	0	0	0	503	508	0	0	
14	0	0	0	0	502	509	0	0	
15	0	0	0	0	502	507	0	0	
0	0	0	0	0	503	509	0	0	
1	0	0	0	0	504	508	0	0	
2	0	0	0	0	506	508	0	0	
3	0	0	0	0	508	508	0	0	
4	0	0	0	0	512	507	0	0	
5	0	0	0	0	515	509	0	0	
6	0	0	0	0	517	507	0	0	
7	0	0	0	0	517	509	0	0	
8	0	0	0	0	518	510	0	0	
9	0	0	0	0	517	508	0	0	
10	0	0	0	0	518	508	0	0	
11	0	0	0	0	519	508	0	0	
12	0	0	0	0	515	510	0	0	
13	0	0	0	0	513	509	0	0	
14	0	0	0	0	511	507	0	0	
15	0	0	0	0	510	507	0	0	
0	0	0	0	0	507	506	0	0	
1	0	0	0	0	504	507	0	0	
2	0	0	0	0	504	508	0	0	
3	0	0	0	0	506	507	0	0	
4	0	0	0	0	504	511	0	0	
5	0	0	0	0	505	508	0	0	
6	0	0	0	0	505	508	0	0	
7	0	0	0	0	506	509	0	0	
8	0	0	0	0	511	509	0	0	
9	0	0	0	0	512	506	0	0	
10	0	0	0	0	514	509	0	0	
11	0	0	0	0	517	508	0	0	
12	0	0	0	0	519	508	0	0	
13	0	0	0	0	519	508	0	0	
14	0	0	0	0	520	508	0	0	
15	0	0	0	0	519	507	0	0	
0	0	0	0	0	515	505	0	0	
1	0	0	0	0	515	509	0	0	
2	0	0	0	0	509	508	0	0	
3	0	0	0	0	508	508	0	0	
4	0	0	0	0	506	507	0	0	
5	0	0	0	0	507	508	0	0	
6	0	0	0	0	504	509	0	0	
7	0	0	0	0	504	509	0	0	
8	0	0	0	0	506	509	0	0	
9	0	0	0	0	504	509	0	0	
10	0	0	0	0	505	508	0	0	
11	0	0	0	0	508	508	0	0	
12	0	0	0	0	511	507	0	0	
13	0	0	0	0	515	507	0	0	
14	0	0	0	0	515	508	0	0	
15	0	0	0	0	517	506	0	0	
0	0	0	0	0	522	509	0	0	
1	0	0	0	0	519	508	0	0	
2	0	0	0	0	519	509	0	0	
3	0	0	0	0	518	509	0	0	
4	0	0	0	0	516	510	0	0	
5	0	0	0	0	514	508	0	0	
6	0	0	0	0	510	508	0	0	
7	0	0	0	0	508	508	0	0	
8	0	0	0	0	507	508	0	0	
9	0	0	0	0	504	510	0	0	
10	0	0	0	0	502	508	0	0	
11	0	0	0	0	502	507	0	0	
12	0	0	0	0	503	508	0	0	
13	0	0	0	0	504	508	0	0	
14	0	0	0	0	508	507	0	0	
15	0	0	0	0	507	508	0	0	
0	0	0	0	0	511	509	0	0	
1	0	0	0	0	512	509	0	0	
2	0	0	0	0	516	508	0	0	
3	0	0	0	0	518	507	0	0	
4	0	0	0	0	520	505	0	0	
5	0	0	0	0	519	508	0	0	
6	0	0	0	0	519	508	0	0	
7	0	0	0	0	517	506	0	0	
8	0	0	0	0	517	507	0	0	
9	0	0	0	0	513	508	0	0	
10	0	0	0	0	510	508	0	0	
11	0	0	0	0	506	508	0	0	
12	0	0	0	0	506	507	0	0	
13	0	0	0	0	504	509	0	0	
14	0	0	0	0	502	510	0	0	
15	0	0	0	0	502	508	0	0	
0	0	0	0	0	502	510	0	0	
1	0	0	0	0	504	509	0	0	
2	0	0	0	0	507	509	0	0	
3	0	0	0	0	507	509	0	0	
4	0	0	0	0	511	507	0	0	
5	0	0	0	0	513	507	0	0	
6	0	0	0	0	516	508	0	0	
7	0	0	0	0	515	506	0	0	
8	0	0	0	0	520	509	0	0	
9	0	0	0	0	518	507	0	0	
10	0	0	0	0	519	510	0	0	
11	0	0	0	0	520	510	0	0	
12	0	0	0	0	516	510	0	0	
13	0	0	0	0	515	509	0	0	
14	0	0	0	0	511	507	0	0	
15	0	0	0	0	508	508	0	0	
0	0	0	0	0	508	508	0	0	
1	0	0	0	0	504	508	0	0	
2	0	0	0	0	503	507	0	0	
3	0	0	0	0	503	508	0	0	
4	0	0	0	0	508	509	0	0	
5	0	0	0	0	505	509	0	0	
6	0	0	0	0	506	507	0	0	
7	0	0	0	0	507	507	0	0	
8	0	0	0	0	509	507	0	0	
9	0	0	0	0	512	508	0	0	
10	0	0	0	0	517	509	0	0	
11	0	0	0	0	517	509	0	0	
12	0	0	0	0	520	507	0	0	
13	0	0	0	0	519	508	0	0	
14	0	0	0	0	519	508	0	0	
15	0	0	0	0	520	508	0	0	
0	0	0	0	0	515	509	0	0	
1	0	0	0	0	512	508	0	0	
2	0	0	0	0	510	511	0	0	
3	0	0	0	0	510	508	0	0	
4	0	0	0	0	507	509	0	0	
5	0	0	0	0	503	508	0	0	
6	0	0	0	0	503	507	0	0	
7	0	0	0	0	502	507	0	0	
8	0	0	0	0	503	509	0	0	
9	0	0	0	0	505	506	0	0	
10	0	0	0	0	505	508	0	0	
11	0	0	0	0	508	507	0	0	
12	0	0	0	0	511	507	0	0	
13	0	0	0	0	515	506	0	0	
14	0	0	0	0	515	508	0	0	
15	0	0	0	0	519	507	0	0	
0	0	0	0	0	519	508	0	0	
1	0	0	0	0	518	509	0	0	
2	0	0	0	0	519	509	0	0	
3	0	0	0	0	517	509	0	0	
4	0	0	0	0	515	509	0	0	
5	0	0	0	0	514	509	0	0	
6	0	0	0	0	511	508	0	0	
7	0	0	0	0	507	508	0	0	
8	0	0	0	0	507	507	0	0	
9	0	0	0	0	504	508	0	0	
10	0	0	0	0	503	508	0	0	
11	0	0	0	0	502	507	0	0	
12	0	0	0	0	503	509	0	0	
13	0	0	0	0	506	508	0	0	
14	0	0	0	0	503	509	0	0	
15	0	0	0	0	508	508	0	0	
0	0	0	0	0	512	508	0	0	
1	0	0	0	0	513	507	0	0	
2	0	0	0	0	515	509	0	0	
3	0	0	0	0	516	508	0	0	
4	0	0	0	0	519	508	0	0	
5	0	0	0	0	519	508	0	0	
6	0	0	0	0	518	507	0	0	
7	0	0	0	0	518	508	0	0	
8	0	0	0	0	514	506	0	0	
9	0	0	0	0	512	507	0	0	
10	0	0	0	0	510	509	0	0	
11	0	0	0	0	508	509	0	0	
12	0	0	0	0	507	511	0	0	
13	0	0	0	0	505	508	0	0	
14	0	0	0	0	504	508	0	0	
15	0	0	0	0	503	507	0	0	
0	0	0	0	0	504	508	0	0	
1	0	0	0	0	504	510	0	0	
2	0	0	0	0	506	507	0	0	
3	0	0	0	0	508	508	0	0	
4	0	0	0	0	513	509	0	0	
5	0	0	0	0	514	508	0	0	
6	0	0	0	0	515	508	0	0	
7	0	0	0	0	516	507	0	0	
8	0	0	0	0	519	508	0	0	
9	0	0	0	0	519	508	0	0	
10	0	0	0	0	519	509	0	0	
11	0	0	0	0	519	509	0	0	
12	0	0	0	0	516	507	0	0	
13	0	0	0	0	515	506	0	0	
14	0	0	0	0	511	507	0	0	
15	0	0	0	0	510	506	0	0	
0	0	0	0	0	507	508	0	0	
1	0	0	0	0	506	508	0	0	
2	0	0	0	0	504	511	0	0	
3	0	0	0	0	502	508	0	0	
4	0	0	0	0	502	510	0	0	
5	0	0	0	0	504	509	0	0	
6	0	0	0	0	504	506	0	0	
7	0	0	0	0	508	505	0	0	
8	0	0	0	0	511	507	0	0	
9	0	0	0	0	515	508	0	0	
10	0	0	0	0	515	510	0	0	
11	0	0	0	0	516	507	0	0	
12	0	0	0	0	520	505	0	0	
13	0	0	0	0	518	509	0	0	
14	0	0	0	0	519	508	0	0	
15	0	0	0	0	516	508	0	0	
0	0	0	0	0	516	506	0	0	
1	0	0	0	0	513	508	0	0	
2	0	0	0	0	511	510	0	0	
3	0	0	0	0	509	509	0	0	
4	0	0	0	0	507	508	0	0	
5	0	0	0	0	504	508	0	0	
6	0	0	0	0	502	510	0	0	
7	0	0	0	0	504	510	0	0	
8	0	0	0	0	504	508	0	0	
9	0	0	0	0	504	508	0	0	
10	0	0	0	0	505	508	0	0	
11	0	0	0	0	508	508	0	0	
12	0	0	0	0	512	508	0	0	
13	0	0	0	0	514	506	0	0	
14	0	0	0	0	517	508	0	0	
15	0	0	0	0	517	507	0	0	
0	0	0	0	0	519	507	0	0	
1	0	0	0	0	520	507	0	0	
2	0	0	0	0	519	509	0	0	
3	0	0	0	0	518	508	0	0	
4	0	0	0	0	515	508	0	0	
5	0	0	0	0	513	508	0	0	
6	0	0	0	0	511	507	0	0	
7	0	0	0	0	508	507	0	0	
8	0	0	0	0	505	509	0	0	
9	0	0	0	0	505	510	0	0	
10	0	0	0	0	502	509	0	0	
11	0	0	0	0	502	508	0	0	
12	0	0	0	0	503	508	0	0	
13	0	0	0	0	504	508	0	0	
14	0	0	0	0	506	508	0	0	
15	0	0	0	0	508	509	0	0	
0	0	0	0	0	511	509	0	0	
1	0	0	0	0	516	507	0	0	
2	0	0	0	0	515	508	0	0	
3	0	0	0	0	519	508	0	0	
4	0	0	0	0	520	509	0	0	
5	0	0	0	0	517	507	0	0	
6	0	0	0	0	519	508	0	0	
7	0	0	0	0	518	509	0	0	
8	0	0	0	0	516	509	0	0	
9	0	0	0	0	512	508	0	0	
10	0	0	0	0	510	507	0	0	
11	0	0	0	0	508	508	0	0	
12	0	0	0	0	511	508	0	0	
13	0	0	0	0	503	509	0	0	
14	0	0	0	0	502	509	0	0	
15	0	0	0	0	502	509	0	0	
0	0	0	0	0	504	508	0	0	
1	0	0	0	0	504	508	0	0	
2	0	0	0	0	508	508	0	0	
3	0	0	0	0	507	507	0	0	
4	0	0	0	0	511	508	0	0	
5	0	0	0	0	517	507	0	0	
6	0	0	0	0	514	509	0	0	
7	0	0	0	0	516	507	0	0	
8	0	0	0	0	519	505	0	0	
9	0	0	0	0	519	507	0	0	
10	0	0	0	0	518	506	0	0	
11	0	0	0	0	519	507	0	0	
12	0	0	0	0	516	506	0	0	
13	0	0	0	0	514	509	0	0	
14	0	0	0	0	513	508	0	0	
15	0	0	0	0	507	509	0	0	
0	0	0	0	0	508	509	0	0	
1	0	0	0	0	507	510	0	0	
2	0	0	0	0	504	508	0	0	
3	0	0	0	0	502	511	0	0	
4	0	0	0	0	502	509	0	0	
5	0	0	0	0	504	507	0	0	
6	0	0	0	0	505	507	0	0	
7	0	0	0	0	509	509	0	0	
8	0	0	0	0	511	508	0	0	
9	0	0	0	0	514	507	0	0	
10	0	0	0	0	517	509	0	0	
11	0	0	0	0	516	506	0	0	
12	0	0	0	0	521	506	0	0	
13	0	0	0	0	519	508	0	0	
14	0	0	0	0	517	509	0	0	
15	0	0	0	0	518	509	0	0	
0	0	0	0	0	513	508	0	0	
1	0	0	0	0	516	506	0	0	
2	0	0	0	0	509	507	0	0	
3	0	0	0	0	508	506	0	0	
4	0	0	0	0	509	510	0	0	
5	0	0	0	0	505	508	0	0	
6	0	0	0	0	502	508	0	0	
7	0	0	0	0	503	509	0	0	
8	0	0	0	0	504	506	0	0	
9	0	0	0	0	504	510	0	0	
10	0	0	0	0	504	508	0	0	
11	0	0	0	0	507	507	0	0	
12	0	0	0	0	511	509	0	0	
13	0	0	0	0	513	505	0	0	
14	0	0	0	0	513	507	0	0	
15	0	0	0	0	516	508	0	0	
0	0	0	0	0	519	510	0	0	
1	0	0	0	0	519	507	0	0	
2	0	0	0	0	519	509	0	0	
3	0	0	0	0	518	508	0	0	
4	0	0	0	0	515	506	0	0	
5	0	0	0	0	513	507	0	0	
6	0	0	0	0	512	508	0	0	
7	0	0	0	0	509	508	0	0	
8	0	0	0	0	508	508	0	0	
9	0	0	0	0	504	508	0	0	
10	0	0	0	0	505	511	0	0	
11	0	0	0	0	504	508	0	0	
12	0	0	0	0	504	508	0	0	
13	0	0	0	0	503	508	0	0	
14	0	0	0	0	506	507	0	0	
15	0	0	0	0	507	507	0	0	
0	0	0	0	0	512	505	0	0	
1	0	0	0	0	513	508	0	0	
2	0	0	0	0	515	508	0	0	
3	0	0	0	0	519	508	0	0	
4	0	0	0	0	519	508	0	0	
5	0	0	0	0	520	508	0	0	
6	0	0	0	0	516	508	0	0	
7	0	0	0	0	517	508	0	0	
8	0	0	0	0	513	507	0	0	
9	0	0	0	0	515	508	0	0	
10	0	0	0	0	511	509	0	0	
11	0	0	0	0	508	508	0	0	
12	0	0	0	0	506	507	0	0	
13	0	0	0	0	504	507	0	0	
14	0	0	0	0	503	507	0	0	
15	0	0	0	0	503	507	0	0	
0	0	0	0	0	502	510	0	0	
1	0	0	0	0	503	508	0	0	
2	0	0	0	0	505	507	0	0	
3	0	0	0	0	507	508	0	0	
4	0	0	0	0	510	507	0	0	
5	0	0	0	0	513	509	0	0	
6	0	0	0	0	514	508	0	0	
7	0	0	0	0	518	507	0	0	
8	0	0	0	0	519	507	0	0	
9	0	0	0	0	522	509	0	0	
10	0	0	0	0	521	508	0	0	
11	0	0	0	0	520	508	0	0	
12	0	0	0	0	515	507	0	0	
13	0	0	0	0	513	509	0	0	
14	0	0	0	0	511	508	0	0	
15	0	0	0	0	508	510	0	0	
0	0	0	0	0	507	505	0	0	
1	0	0	0	0	504	507	0	0	
2	0	0	0	0	502	508	0	0	
3	0	0	0	0	500	507	0	0	
4	0	0	0	0	504	508	0	0	
5	0	0	0	0	503	509	0	0	
6	0	0	0	0	506	508	0	0	
7	0	0	0	0	507	509	0	0	
8	0	0	0	0	510	508	0	0	
9	0	0	0	0	513	508	0	0	
10	0	0	0	0	513	508	0	0	
11	0	0	0	0	518	508	0	0	
12	0	0	0	0	520	509	0	0	
13	0	0	0	0	520	508	0	0	
14	0	0	0	0	518	506	0	0	
15	0	0	0	0	517	507	0	0	
0	0	0	0	0	515	508	0	0	
1	0	0	0	0	514	506	0	0	
2	0	0	0	0	510	509	0	0	
3	0	0	0	0	508	508	0	0	
4	0	0	0	0	508	508	0	0	
5	0	0	0	0	505	508	0	0	
6	0	0	0	0	502	508	0	0	
7	0	0	0	0	503	508	0	0	
8	0	0	0	0	504	508	0	0	
9	0	0	0	0	505	510	0	0	
10	0	0	0	0	505	508	0	0	
11	0	0	0	0	507	510	0	0	
12	0	0	0	0	510	507	0	0	
13	0	0	0	0	515	508	0	0	
14	0	0	0	0	515	508	0	0	
15	0	0	0	0	516	508	0	0	
0	0	0	0	0	523	508	0	0	
1	0	0	0	0	522	508	0	0	
2	0	0	0	0	518	508	0	0	
3	0	0	0	0	517	506	0	0	
4	0	0	0	0	515	509	0	0	
5	0	0	0	0	514	508	0	0	
6	0	0	0	0	511	509	0	0	
7	0	0	0	0	508	508	0	0	
8	0	0	0	0	506	509	0	0	
9	0	0	0	0	504	507	0	0	
10	0	0	0	0	503	510	0	0	
11	0	0	0	0	504	507	0	0	
12	0	0	0	0	504	508	0	0	
13	0	0	0	0	505	507	0	0	
14	0	0	0	0	508	508	0	0	
15	0	0	0	0	507	506	0	0	
0	0	0	0	0	511	509	0	0	
1	0	0	0	0	511	506	0	0	
2	0	0	0	0	518	509	0	0	
3	0	0	0	0	519	507	0	0	
4	0	0	0	0	519	508	0	0	
5	0	0	0	0	521	509	0	0	
6	0	0	0	0	518	507	0	0	
7	0	0	0	0	518	509	0	0	
8	0	0	0	0	515	510	0	0	
9	0	0	0	0	511	508	0	0	
10	0	0	0	0	510	508	0	0	
11	0	0	0	0	510	508	0	0	
12	0	0	0	0	505	508	0	0	
13	0	0	0	0	504	509	0	0	
14	0	0	0	0	501	509	0	0	
15	0	0	0	0	504	509	0	0	
0	0	0	0	0	502	508	0	0	
1	0	0	0	0	503	508	0	0	
2	0	0	0	0	506	506	0	0	
3	0	0	0	0	507	508	0	0	
4	0	0	0	0	511	508	0	0	
5	0	0	0	0	514	508	0	0	
6	0	0	0	0	515	507	0	0	
7	0	0	0	0	518	506	0	0	
8	0	0	0	0	521	505	0	0	
9	0	0	0	0	521	508	0	0	
10	0	0	0	0	519	508	0	0	
11	0	0	0	0	518	508	0	0	
12	0	0	0	0	515	507	0	0	
13	0	0	0	0	512	507	0	0	
14	0	0	0	0	512	508	0	0	
15	0	0	0	0	508	509	0	0	
0	0	0	0	0	506	507	0	0	
1	0	0	0	0	506	507	0	0	
2	0	0	0	0	503	508	0	0	
3	0	0	0	0	503	509	0	0	
4	0	0	0	0	502	508	0	0	
5	0	0	0	0	503	508	0	0	
6	0	0	0	0	505	510	0	0	
7	0	0	0	0	508	509	0	0	
8	0	0	0	0	511	508	0	0	
9	0	0	0	0	513	507	0	0	
10	0	0	0	0	517	507	0	0	
11	0	0	0	0	518	507	0	0	
12	0	0	0	0	521	505	0	0	
13	0	0	0	0	520	508	0	0	
14	0	0	0	0	518	508	0	0	
15	0	0	0	0	516	507	0	0	
0	0	0	0	0	515	507	0	0	
1	0	0	0	0	511	509	0	0	
2	0	0	0	0	513	508	0	0	
3	0	0	0	0	509	508	0	0	
4	0	0	0	0	507	507	0	0	
5	0	0	0	0	506	508	0	0	
6	0	0	0	0	503	508	0	0	
7	0	0	0	0	504	511	0	0	
8	0	0	0	0	502	508	0	0	
9	0	0	0	0	504	508	0	0	
10	0	0	0	0	507	507	0	0	
11	0	0	0	0	508	508	0	0	
12	0	0	0	0	512	507	0	0	
13	0	0	0	0	514	509	0	0	
14	0	0	0	0	515	510	0	0	
15	0	0	0	0	519	508	0	0	
0	0	0	0	0	520	508	0	0	
1	0	0	0	0	519	507	0	0	
2	0	0	0	0	519	508	0	0	
3	0	0	0	0	518	508	0	0	
4	0	0	0	0	516	507	0	0	
5	0	0	0	0	514	508	0	0	
6	0	0	0	0	510	506	0	0	
7	0	0	0	0	507	506	0	0	
8	0	0	0	0	506	508	0	0	
9	0	0	0	0	504	510	0	0	
10	0	0	0	0	502	511	0	0	
11	0	0	0	0	501	510	0	0	
12	0	0	0	0	503	508	0	0	
13	0	0	0	0	506	508	0	0	
14	0	0	0	0	505	509	0	0	
15	0	0	0	0	508	508	0	0	
0	0	0	0	0	512	508	0	0	
1	0	0	0	0	513	508	0	0	
2	0	0	0	0	515	509	0	0	
3	0	0	0	0	520	507	0	0	
4	0	0	0	0	521	507	0	0	
5	0	0	0	0	519	510	0	0	
6	0	0	0	0	519	507	0	0	
7	0	0	0	0	517	508	0	0	
8	0	0	0	0	514	508	0	0	
9	0	0	0	0	515	508	0	0	
10	0	0	0	0	511	509	0	0	
11	0	0	0	0	510	507	0	0	
12	0	0	0	0	505	508	0	0	
13	0	0	0	0	503	506	0	0	
14	0	0	0	0	504	507	0	0	
15	0	0	0	0	503	508	0	0	
0	0	0	0	0	504	509	0	0	
1	0	0	0	0	505	508	0	0	
2	0	0	0	0	505	508	0	0	
3	0	0	0	0	508	508	0	0	
4	0	0	0	0	512	508	0	0	
5	0	0	0	0	515	507	0	0	
6	0	0	0	0	515	506	0	0	
7	0	0	0	0	520	508	0	0	
8	0	0	0	0	519	508	0	0	
9	0	0	0	0	519	507	0	0	
10	0	0	0	0	519	508	0	0	
11	0	0	0	0	515	508	0	0	
12	0	0	0	0	514	508	0	0	
13	0	0	0	0	512	510	0	0	
14	0	0	0	0	511	508	0	0	
15	0	0	0	0	508	508	0	0	
0	0	0	0	0	507	508	0	0	
1	0	0	0	0	505	508	0	0	
2	0	0	0	0	504	508	0	0	
3	0	0	0	0	502	508	0	0	
4	0	0	0	0	502	507	0	0	
5	0	0	0	0	503	508	0	0	
6	0	0	0	0	505	507	0	0	
7	0	0	0	0	506	507	0	0	
8	0	0	0	0	511	507	0	0	
9	0	0	0	0	514	508	0	0	
10	0	0	0	0	515	511	0	0	
11	0	0	0	0	518	508	0	0	
12	0	0	0	0	521	508	0	0	
13	0	0	0	0	521	507	0	0	
14	0	0	0	0	519	507	0	0	
15	0	0	0	0	515	507	0	0	
0	0	0	0	0	516	508	0	0	
1	0	0	0	0	517	508	0	0	
2	0	0	0	0	512	509	0	0	
3	0	0	0	0	507	510	0	0	
4	0	0	0	0	508	508	0	0	
5	0	0	0	0	505	508	0	0	
6	0	0	0	0	502	508	0	0	
7	0	0	0	0	502	509	0	0	
8	0	0	0	0	503	508	0	0	
9	0	0	0	0	504	509	0	0	
10	0	0	0	0	505	509	0	0	
11	0	0	0	0	508	507	0	0	
12	0	0	0	0	511	507	0	0	
13	0	0	0	0	515	507	0	0	
14	0	0	0	0	516	508	0	0	
15	0	0	0	0	517	505	0	0	
0	0	0	0	0	520	507	0	0	
1	0	0	0	0	521	506	0	0	
2	0	0	0	0	521	507	0	0	
3	0	0	0	0	517	508	0	0	
4	0	0	0	0	515	508	0	0	
5	0	0	0	0	515	508	0	0	
6	0	0	0	0	510	507	0	0	
7	0	0	0	0	508	509	0	0	
8	0	0	0	0	507	510	0	0	
9	0	0	0	0	504	510	0	0	
10	0	0	0	0	501	508	0	0	
11	0	0	0	0	502	508	0	0	
12	0	0	0	0	502	508	0	0	
13	0	0	0	0	503	510	0	0	
14	0	0	0	0	504	508	0	0	
15	0	0	0	0	509	508	0	0	
0	0	0	0	0	511	507	0	0	
1	0	0	0	0	513	507	0	0	
2	0	0	0	0	516	507	0	0	
3	0	0	0	0	517	508	0	0	
4	0	0	0	0	521	508	0	0	
5	0	0	0	0	520	507	0	0	
6	0	0	0	0	520	508	0	0	
7	0	0	0	0	519	508	0	0	
8	0	0	0	0	515	509	0	0	
9	0	0	0	0	513	508	0	0	
10	0	0	0	0	512	508	0	0	
11	0	0	0	0	509	508	0	0	
12	0	0	0	0	504	510	0	0	
13	0	0	0	0	504	510	0	0	
14	0	0	0	0	501	508	0	0	
15	0	0	0	0	502	507	0	0	
0	0	0	0	0	504	508	0	0	
1	0	0	0	0	505	509	0	0	
2	0	0	0	0	506	507	0	0	
3	0	0	0	0	510	508	0	0	
4	0	0	0	0	512	508	0	0	
5	0	0	0	0	516	507	0	0	
6	0	0	0	0	517	508	0	0	
7	0	0	0	0	519	507	0	0	
8	0	0	0	0	518	507	0	0	
9	0	0	0	0	519	509	0	0	
10	0	0	0	0	517	507	0	0	
11	0	0	0	0	517	508	0	0	
12	0	0	0	0	512	508	0	0	
13	0	0	0	0	513	508	0	0	
14	0	0	0	0	508	509	0	0	
15	0	0	0	0	508	509	0	0	
0	0	0	0	0	507	508	0	0	
1	0	0	0	0	504	509	0	0	
2	0	0	0	0	503	508	0	0	
3	0	0	0	0	502	509	0	0	
4	0	0	0	0	502	507	0	0	
5	0	0	0	0	504	506	0	0	
6	0	0	0	0	506	508	0	0	
7	0	0	0	0	509	509	0	0	
8	0	0	0	0	512	505	0	0	
9	0	0	0	0	513	507	0	0	
10	0	0	0	0	516	507	0	0	
11	0	0	0	0	518	508	0	0	
12	0	0	0	0	519	507	0	0	
13	0	0	0	0	520	507	0	0	
14	0	0	0	0	518	508	0	0	
15	0	0	0	0	519	507	0	0	
0	0	0	0	0	514	507	0	0	
1	0	0	0	0	512	507	0	0	
2	0	0	0	0	511	508	0	0	
3	0	0	0	0	510	509	0	0	
4	0	0	0	0	507	508	0	0	
5	0	0	0	0	503	509	0	0	
6	0	0	0	0	502	510	0	0	
7	0	0	0	0	503	510	0	0	
8	0	0	0	0	504	508	0	0	
9	0	0	0	0	506	506	0	0	
10	0	0	0	0	507	506	0	0	
11	0	0	0	0	507	509	0	0	
12	0	0	0	0	510	506	0	0	
13	0	0	0	0	515	509	0	0	
14	0	0	0	0	513	507	0	0	
15	0	0	0	0	517	508	0	0	
0	0	0	0	0	521	507	0	0	
1	0	0	0	0	519	507	0	0	
2	0	0	0	0	518	510	0	0	
3	0	0	0	0	518	509	0	0	
4	0	0	0	0	516	508	0	0	
5	0	0	0	0	513	507	0	0	
6	0	0	0	0	511	507	0	0	
7	0	0	0	0	508	506	0	0	
8	0	0	0	0	507	509	0	0	
9	0	0	0	0	505	508	0	0	
10	0	0	0	0	502	509	0	0	
11	0	0	0	0	502	508	0	0	
12	0	0	0	0	503	507	0	0	
13	0	0	0	0	503	509	0	0	
14	0	0	0	0	507	508	0	0	
15	0	0	0	0	510	508	0	0	
0	0	0	0	0	512	507	0	0	
1	0	0	0	0	512	508	0	0	
2	0	0	0	0	515	509	0	0	
3	0	0	0	0	518	508	0	0	
4	0	0	0	0	519	508	0	0	
5	0	0	0	0	519	509	0	0	
6	0	0	0	0	520	508	0	0	
7	0	0	0	0	518	506	0	0	
8	0	0	0	0	517	508	0	0	
9	0	0	0	0	512	507	0	0	
10	0	0	0	0	510	508	0	0	
11	0	0	0	0	508	507	0	0	
12	0	0	0	0	508	508	0	0	
13	0	0	0	0	505	507	0	0	
14	0	0	0	0	505	507	0	0	
15	0	0	0	0	503	511	0	0	
0	0	0	0	0	504	511	0	0	
1	0	0	0	0	504	510	0	0	
2	0	0	0	0	505	509	0	0	
3	0	0	0	0	509	507	0	0	
4	0	0	0	0	510	507	0	0	
5	0	0	0	0	513	506	0	0	
6	0	0	0	0	514	507	0	0	
7	0	0	0	0	519	506	0	0	
8	0	0	0	0	520	507	0	0	
9	0	0	0	0	520	507	0	0	
10	0	0	0	0	519	508	0	0	
11	0	0	0	0	518	510	0	0	
12	0	0	0	0	513	506	0	0	
13	0	0	0	0	513	509	0	0	
14	0	0	0	0	512	508	0	0	
15	0	0	0	0	507	507	0	0	
0	0	0	0	0	507	509	0	0	
1	0	0	0	0	504	508	0	0	
2	0	0	0	0	502	507	0	0	
3	0	0	0	0	504	508	0	0	
4	0	0	0	0	504	508	0	0	
5	0	0	0	0	504	511	0	0	
6	0	0	0	0	507	509	0	0	
7	0	0	0	0	507	509	0	0	
8	0	0	0	0	511	508	0	0	
9	0	0	0	0	513	508	0	0	
10	0	0	0	0	514	507	0	0	
11	0	0	0	0	518	507	0	0	
12	0	0	0	0	520	508	0	0	
13	0	0	0	0	520	508	0	0	
14	0	0	0	0	519	507	0	0	
15	0	0	0	0	517	506	0	0	
0	0	0	0	0	516	505	0	0	
1	0	0	0	0	513	507	0	0	
2	0	0	0	0	511	508	0	0	
3	0	0	0	0	509	508	0	0	
4	0	0	0	0	507	509	0	0	
5	0	0	0	0	504	508	0	0	
6	0	0	0	0	503	509	0	0	
7	0	0	0	0	502	509	0	0	
8	0	0	0	0	503	509	0	0	
9	0	0	0	0	505	509	0	0	
10	0	0	0	0	505	508	0	0	
11	0	0	0	0	507	509	0	0	
12	0	0	0	0	512	508	0	0	
13	0	0	0	0	513	506	0	0	
14	0	0	0	0	515	508	0	0	
15	0	0	0	0	519	508	0	0	
0	0	0	0	0	520	508	0	0	
1	0	0	0	0	519	509	0	0	
2	0	0	0	0	517	507	0	0	
3	0	0	0	0	516	507	0	0	
4	0	0	0	0	513	508	0	0	
5	0	0	0	0	513	509	0	0	
6	0	0	0	0	511	507	0	0	
7	0	0	0	0	508	508	0	0	
8	0	0	0	0	508	509	0	0	
9	0	0	0	0	504	507	0	0	
10	0	0	0	0	504	507	0	0	
11	0	0	0	0	504	508	0	0	
12	0	0	0	0	504	510	0	0	
13	0	0	0	0	504	509	0	0	
14	0	0	0	0	506	508	0	0	
15	0	0	0	0	507	506	0	0	
0	0	0	0	0	511	508	0	0	
1	0	0	0	0	512	509	0	0	
2	0	0	0	0	515	508	0	0	
3	0	0	0	0	519	505	0	0	
4	0	0	0	0	519	509	0	0	
5	0	0	0	0	519	508	0	0	
6	0	0	0	0	518	509	0	0	
7	0	0	0	0	518	508	0	0	
8	0	0	0	0	515	508	0	0	
9	0	0	0	0	513	508	0	0	
10	0	0	0	0	511	507	0	0	
11	0	0	0	0	508	508	0	0	
12	0	0	0	0	509	508	0	0	
13	0	0	0	0	504	508	0	0	
14	0	0	0	0	501	507	0	0	
15	0	0	0	0	501	510	0	0	
0	0	0	0	0	502	510	0	0	
1	0	0	0	0	502	508	0	0	
2	0	0	0	0	506	509	0	0	
3	0	0	0	0	507	506	0	0	
4	0	0	0	0	509	508	0	0	
5	0	0	0	0	515	507	0	0	
6	0	0	0	0	516	508	0	0	
7	0	0	0	0	515	508	0	0	
8	0	0	0	0	522	505	0	0	
9	0	0	0	0	522	507	0	0	
10	0	0	0	0	520	508	0	0	
11	0	0	0	0	518	507	0	0	
12	0	0	0	0	515	511	0	0	
13	0	0	0	0	512	508	0	0	
14	0	0	0	0	510	508	0	0	
15	0	0	0	0	509	508	0	0	
0	0	0	0	0	506	508	0	0	
1	0	0	0	0	504	508	0	0	
2	0	0	0	0	503	507	0	0	
3	0	0	0	0	502	508	0	0	
4	0	0	0	0	503	508	0	0	
5	0	0	0	0	502	508	0	0	
6	0	0	0	0	507	507	0	0	
7	0	0	0	0	509	508	0	0	
8	0	0	0	0	510	507	0	0	
9	0	0	0	0	513	510	0	0	
10	0	0	0	0	517	510	0	0	
11	0	0	0	0	518	508	0	0	
12	0	0	0	0	520	508	0	0	
13	0	0	0	0	519	510	0	0	
14	0	0	0	0	518	508	0	0	
15	0	0	0	0	520	507	0	0	
0	0	0	0	0	515	507	0	0	
1	0	0	0	0	513	508	0	0	
2	0	0	0	0	511	506	0	0	
3	0	0	0	0	506	508	0	0	
4	0	0	0	0	506	508	0	0	
5	0	0	0	0	506	508	0	0	
6	0	0	0	0	503	510	0	0	
7	0	0	0	0	505	510	0	0	
8	0	0	0	0	503	508	0	0	
9	0	0	0	0	503	508	0	0	
10	0	0	0	0	507	508	0	0	
11	0	0	0	0	506	508	0	0	
12	0	0	0	0	511	508	0	0	
13	0	0	0	0	516	508	0	0	
14	0	0	0	0	518	510	0	0	
15	0	0	0	0	517	507	0	0	
0	0	0	0	0	519	508	0	0	
1	0	0	0	0	520	508	0	0	
2	0	0	0	0	518	505	0	0	
3	0	0	0	0	517	507	0	0	
4	0	0	0	0	515	508	0	0	
5	0	0	0	0	512	507	0	0	
6	0	0	0	0	511	507	0	0	
7	0	0	0	0	506	507	0	0	
8	0	0	0	0	508	508	0	0	
9	0	0	0	0	504	509	0	0	
10	0	0	0	0	503	509	0	0	
11	0	0	0	0	503	509	0	0	
12	0	0	0	0	504	509	0	0	
13	0	0	0	0	504	509	0	0	
14	0	0	0	0	504	509	0	0	
15	0	0	0	0	506	506	0	0	
0	0	0	0	0	513	507	0	0	
1	0	0	0	0	513	508	0	0	
2	0	0	0	0	515	507	0	0	
3	0	0	0	0	518	506	0	0	
4	0	0	0	0	521	508	0	0	
5	0	0	0	0	520	509	0	0	
6	0	0	0	0	519	507	0	0	
7	0	0	0	0	519	509	0	0	
8	0	0	0	0	515	507	0	0	
9	0	0	0	0	514	508	0	0	
10	0	0	0	0	510	507	0	0	
11	0	0	0	0	510	508	0	0	
12	0	0	0	0	508	510	0	0	
13	0	0	0	0	504	508	0	0	
14	0	0	0	0	504	508	0	0	
15	0	0	0	0	502	508	0	0	
0	0	0	0	0	503	508	0	0	
1	0	0	0	0	504	509	0	0	
2	0	0	0	0	505	508	0	0	
3	0	0	0	0	507	506	0	0	
4	0	0	0	0	509	507	0	0	
5	0	0	0	0	514	507	0	0	
6	0	0	0	0	515	506	0	0	
7	0	0	0	0	520	510	0	0	
8	0	0	0	0	522	508	0	0	
9	0	0	0	0	520	506	0	0	
10	0	0	0	0	520	509	0	0	
11	0	0	0	0	517	509	0	0	
12	0	0	0	0	515	508	0	0	
13	0	0	0	0	514	507	0	0	
14	0	0	0	0	512	508	0	0	
15	0	0	0	0	509	507	0	0	
0	0	0	0	0	508	508	0	0	
1	0	0	0	0	504	507	0	0	
2	0	0	0	0	504	508	0	0	
3	0	0	0	0	503	507	0	0	
4	0	0	0	0	504	508	0	0	
5	0	0	0	0	502	510	0	0	
6	0	0	0	0	506	509	0	0	
7	0	0	0	0	506	508	0	0	
8	0	0	0	0	510	508	0	0	
9	0	0	0	0	513	509	0	0	
10	0	0	0	0	516	507	0	0	
11	0	0	0	0	516	507	0	0	
12	0	0	0	0	518	507	0	0	
13	0	0	0	0	518	508	0	0	
14	0	0	0	0	519	510	0	0	
15	0	0	0	0	517	510	0	0	
0	0	0	0	0	517	507	0	0	
1	0	0	0	0	513	508	0	0	
2	0	0	0	0	511	508	0	0	
3	0	0	0	0	507	508	0	0	
4	0	0	0	0	508	506	0	0	
5	0	0	0	0	503	507	0	0	
6	0	0	0	0	502	509	0	0	
7	0	0	0	0	501	507	0	0	
8	0	0	0	0	500	509	0	0	
9	0	0	0	0	504	508	0	0	
10	0	0	0	0	505	510	0	0	
11	0	0	0	0	510	507	0	0	
12	0	0	0	0	511	509	0	0	
13	0	0	0	0	513	507	0	0	
14	0	0	0	0	515	508	0	0	
15	0	0	0	0	516	507	0	0	
0	0	0	0	0	521	508	0	0	
1	0	0	0	0	520	507	0	0	
2	0	0	0	0	519	505	0	0	
3	0	0	0	0	517	508	0	0	
4	0	0	0	0	515	508	0	0	
5	0	0	0	0	514	508	0	0	
6	0	0	0	0	512	508	0	0	
7	0	0	0	0	510	508	0	0	
8	0	0	0	0	507	507	0	0	
9	0	0	0	0	503	508	0	0	
10	0	0	0	0	504	509	0	0	
11	0	0	0	0	502	510	0	0	
12	0	0	0	0	502	509	0	0	
13	0	0	0	0	502	508	0	0	
14	0	0	0	0	505	508	0	0	
15	0	0	0	0	507	510	0	0	
0	0	0	0	0	511	508	0	0	
1	0	0	0	0	513	507	0	0	
2	0	0	0	0	515	508	0	0	
3	0	0	0	0	518	507	0	0	
4	0	0	0	0	522	508	0	0	
5	0	0	0	0	520	507	0	0	
6	0	0	0	0	520	509	0	0	
7	0	0	0	0	519	509	0	0	
8	0	0	0	0	516	506	0	0	
9	0	0	0	0	513	507	0	0	
10	0	0	0	0	512	507	0	0	
11	0	0	0	0	508	508	0	0	
12	0	0	0	0	507	509	0	0	
13	0	0	0	0	504	508	0	0	
14	0	0	0	0	504	510	0	0	
15	0	0	0	0	501	508	0	0	
0	0	0	0	0	502	509	0	0	
1	0	0	0	0	503	508	0	0	
2	0	0	0	0	506	508	0	0	
3	0	0	0	0	508	508	0	0	
4	0	0	0	0	512	509	0	0	
5	0	0	0	0	512	507	0	0	
6	0	0	0	0	513	507	0	0	
7	0	0	0	0	519	508	0	0	
8	0	0	0	0	519	508	0	0	
9	0	0	0	0	520	505	0	0	
10	0	0	0	0	521	506	0	0	
11	0	0	0	0	517	508	0	0	
12	0	0	0	0	514	507	0	0	
13	0	0	0	0	512	509	0	0	
14	0	0	0	0	509	509	0	0	
15	0	0	0	0	506	509	0	0	
0	0	0	0	0	507	507	0	0	
1	0	0	0	0	506	509	0	0	
2	0	0	0	0	504	509	0	0	
3	0	0	0	0	504	510	0	0	
4	0	0	0	0	504	508	0	0	
5	0	0	0	0	503	509	0	0	
6	0	0	0	0	505	508	0	0	
7	0	0	0	0	510	508	0	0	
8	0	0	0	0	513	507	0	0	
9	0	0	0	0	516	507	0	0	
10	0	0	0	0	514	509	0	0	
11	0	0	0	0	519	508	0	0	
12	0	0	0	0	518	507	0	0	
13	0	0	0	0	522	508	0	0	
14	0	0	0	0	519	509	0	0	
15	0	0	0	0	518	508	0	0	
0	0	0	0	0	515	506	0	0	
1	0	0	0	0	513	507	0	0	
2	0	0	0	0	509	505	0	0	
3	0	0	0	0	506	508	0	0	
4	0	0	0	0	507	509	0	0	
5	0	0	0	0	504	508	0	0	
6	0	0	0	0	503	508	0	0	
7	0	0	0	0	503	510	0	0	
8	0	0	0	0	503	508	0	0	
9	0	0	0	0	504	510	0	0	
10	0	0	0	0	504	509	0	0	
11	0	0	0	0	505	508	0	0	
12	0	0	0	0	510	511	0	0	
13	0	0	0	0	514	509	0	0	
14	0	0	0	0	515	510	0	0	
15	0	0	0	0	519	509	0	0	
0	0	0	0	0	521	507	0	0	
1	0	0	0	0	519	507	0	0	
2	0	0	0	0	518	507	0	0	
3	0	0	0	0	517	507	0	0	
4	0	0	0	0	514	506	0	0	
5	0	0	0	0	514	509	0	0	
6	0	0	0	0	512	507	0	0	
7	0	0	0	0	509	508	0	0	
8	0	0	0	0	507	509	0	0	
9	0	0	0	0	504	507	0	0	
10	0	0	0	0	502	509	0	0	
11	0	0	0	0	504	509	0	0	
12	0	0	0	0	503	507	0	0	
13	0	0	0	0	504	507	0	0	
14	0	0	0	0	505	507	0	0	
15	0	0	0	0	508	509	0	0	
0	0	0	0	0	510	506	0	0	
1	0	0	0	0	515	508	0	0	
2	0	0	0	0	516	507	0	0	
3	0	0	0	0	519	507	0	0	
4	0	0	0	0	520	509	0	0	
5	0	0	0	0	519	508	0	0	
6	0	0	0	0	518	508	0	0	
7	0	0	0	0	516	510	0	0	
8	0	0	0	0	517	509	0	0	
9	0	0	0	0	514	510	0	0	
10	0	0	0	0	511	508	0	0	
11	0	0	0	0	508	510	0	0	
12	0	0	0	0	506	508	0	0	
13	0	0	0	0	504	508	0	0	
14	0	0	0	0	502	509	0	0	
15	0	0	0	0	504	507	0	0	
0	0	0	0	0	504	506	0	0	
1	0	0	0	0	506	508	0	0	
2	0	0	0	0	503	508	0	0	
3	0	0	0	0	508	510	0	0	
4	0	0	0	0	511	508	0	0	
5	0	0	0	0	512	507	0	0	
6	0	0	0	0	516	508	0	0	
7	0	0	0	0	515	507	0	0	
8	0	0	0	0	521	508	0	0	
9	0	0	0	0	519	506	0	0	
10	0	0	0	0	521	507	0	0	
11	0	0	0	0	519	508	0	0	
12	0	0	0	0	515	507	0	0	
13	0	0	0	0	512	508	0	0	
14	0	0	0	0	509	509	0	0	
15	0	0	0	0	508	507	0	0	
0	0	0	0	0	506	508	0	0	
1	0	0	0	0	504	508	0	0	
2	0	0	0	0	501	508	0	0	
3	0	0	0	0	503	508	0	0	
4	0	0	0	0	504	508	0	0	
5	0	0	0	0	503	508	0	0	
6	0	0	0	0	505	508	0	0	
7	0	0	0	0	507	508	0	0	
8	0	0	0	0	511	509	0	0	
9	0	0	0	0	515	508	0	0	
10	0	0	0	0	516	508	0	0	
11	0	0	0	0	522	509	0	0	
12	0	0	0	0	520	506	0	0	
13	0	0	0	0	521	508	0	0	
14	0	0	0	0	519	507	0	0	
15	0	0	0	0	517	508	0	0	
0	0	0	0	0	516	507	0	0	
1	0	0	0	0	512	506	0	0	
2	0	0	0	0	511	510	0	0	
3	0	0	0	0	508	508	0	0	
4	0	0	0	0	504	510	0	0	
5	0	0	0	0	503	507	0	0	
6	0	0	0	0	503	510	0	0	
7	0	0	0	0	503	508	0	0	
8	0	0	0	0	505	507	0	0	
9	0	0	0	0	505	508	0	0	
10	0	0	0	0	505	508	0	0	
11	0	0	0	0	509	509	0	0	
12	0	0	0	0	510	508	0	0	
13	0	0	0	0	515	507	0	0	
14	0	0	0	0	517	506	0	0	
15	0	0	0	0	519	508	0	0	
0	0	0	0	0	519	506	0	0	
1	0	0	0	0	519	509	0	0	
2	0	0	0	0	521	509	0	0	
3	0	0	0	0	517	508	0	0	
4	0	0	0	0	516	508	0	0	
5	0	0	0	0	515	510	0	0	
6	0	0	0	0	509	511	0	0	
7	0	0	0	0	505	506	0	0	
8	0	0	0	0	507	509	0	0	
9	0	0	0	0	503	509	0	0	
10	0	0	0	0	501	507	0	0	
11	0	0	0	0	502	508	0	0	
12	0	0	0	0	501	509	0	0	
13	0	0	0	0	506	509	0	0	
14	0	0	0	0	507	508	0	0	
15	0	0	0	0	508	509	0	0	
0	0	0	0	0	510	509	0	0	
1	0	0	0	0	515	507	0	0	
2	0	0	0	0	517	508	0	0	
3	0	0	0	0	521	508	0	0	
4	0	0	0	0	520	508	0	0	
5	0	0	0	0	518	506	0	0	
6	0	0	0	0	519	507	0	0	
7	0	0	0	0	515	508	0	0	
8	0	0	0	0	515	508	0	0	
9	0	0	0	0	513	508	0	0	
10	0	0	0	0	509	507	0	0	
11	0	0	0	0	509	507	0	0	
12	0	0	0	0	508	508	0	0	
13	0	0	0	0	504	509	0	0	
14	0	0	0	0	500	508	0	0	
15	0	0	0	0	502	509	0	0	
0	0	0	0	0	503	509	0	0	
1	0	0	0	0	504	509	0	0	
2	0	0	0	0	508	509	0	0	
3	0	0	0	0	508	507	0	0	
4	0	0	0	0	511	508	0	0	
5	0	0	0	0	515	508	0	0	
6	0	0	0	0	517	506	0	0	
7	0	0	0	0	519	509	0	0	
8	0	0	0	0	521	508	0	0	
9	0	0	0	0	519	507	0	0	
10	0	0	0	0	518	507	0	0	
11	0	0	0	0	518	508	0	0	
12	0	0	0	0	516	507	0	0	
13	0	0	0	0	514	508	0	0	
14	0	0	0	0	510	511	0	0	
15	0	0	0	0	507	509	0	0	
0	0	0	0	0	505	508	0	0	
1	0	0	0	0	504	508	0	0	
2	0	0	0	0	502	506	0	0	
3	0	0	0	0	502	507	0	0	
4	0	0	0	0	502	510	0	0	
5	0	0	0	0	505	509	0	0	
6	0	0	0	0	505	509	0	0	
7	0	0	0	0	508	509	0	0	
8	0	0	0	0	511	509	0	0	
9	0	0	0	0	514	506	0	0	
10	0	0	0	0	517	507	0	0	
11	0	0	0	0	518	507	0	0	
12	0	0	0	0	521	507	0	0	
13	0	0	0	0	521	508	0	0	
14	0	0	0	0	519	507	0	0	
15	0	0	0	0	519	509	0	0	
0	0	0	0	0	515	508	0	0	
1	0	0	0	0	515	509	0	0	
2	0	0	0	0	509	509	0	0	
3	0	0	0	0	507	507	0	0	
4	0	0	0	0	506	508	0	0	
5	0	0	0	0	504	509	0	0	
6	0	0	0	0	503	508	0	0	
7	0	0	0	0	502	508	0	0	
8	0	0	0	0	502	509	0	0	
9	0	0	0	0	505	509	0	0	
10	0	0	0	0	507	507	0	0	
11	0	0	0	0	508	509	0	0	
12	0	0	0	0	512	507	0	0	
13	0	0	0	0	512	508	0	0	
14	0	0	0	0	516	508	0	0	
15	0	0	0	0	519	507	0	0	
0	0	0	0	0	519	506	0	0	
1	0	0	0	0	519	509	0	0	
2	0	0	0	0	518	506	0	0	
3	0	0	0	0	520	507	0	0	
4	0	0	0	0	515	508	0	0	
5	0	0	0	0	511	507	0	0	
6	0	0	0	0	510	509	0	0	
7	0	0	0	0	507	507	0	0	
8	0	0	0	0	508	509	0	0	
9	0	0	0	0	505	509	0	0	
10	0	0	0	0	504	509	0	0	
11	0	0	0	0	504	509	0	0	
12	0	0	0	0	503	505	0	0	
13	0	0	0	0	504	508	0	0	
14	0	0	0	0	507	509	0	0	
15	0	0	0	0	510	508	0	0	
0	0	0	0	0	513	510	0	0	
1	0	0	0	0	516	507	0	0	
2	0	0	0	0	516	508	0	0	
3	0	0	0	0	518	508	0	0	
4	0	0	0	0	519	507	0	0	
5	0	0	0	0	520	507	0	0	
6	0	0	0	0	518	508	0	0	
7	0	0	0	0	516	507	0	0	
8	0	0	0	0	513	506	0	0	
9	0	0	0	0	511	506	0	0	
10	0	0	0	0	508	508	0	0	
11	0	0	0	0	506	509	0	0	
12	0	0	0	0	508	509	0	0	
13	0	0	0	0	504	509	0	0	
14	0	0	0	0	504	507	0	0	
15	0	0	0	0	503	509	0	0	
0	0	0	0	0	503	507	0	0	
1	0	0	0	0	505	509	0	0	
2	0	0	0	0	505	507	0	0	
3	0	0	0	0	508	508	0	0	
4	0	0	0	0	512	508	0	0	
5	0	0	0	0	512	510	0	0	
6	0	0	0	0	517	508	0	0	
7	0	0	0	0	518	510	0	0	
8	0	0	0	0	519	507	0	0	
9	0	0	0	0	518	508	0	0	
10	0	0	0	0	519	510	0	0	
11	0	0	0	0	519	508	0	0	
12	0	0	0	0	516	508	0	0	
13	0	0	0	0	513	509	0	0	
14	0	0	0	0	510	509	0	0	
15	0	0	0	0	508	507	0	0	
0	0	0	0	0	507	509	0	0	
1	0	0	0	0	503	508	0	0	
2	0	0	0	0	500	507	0	0	
3	0	0	0	0	502	508	0	0	
4	0	0	0	0	502	508	0	0	
5	0	0	0	0	505	510	0	0	
6	0	0	0	0	504	508	0	0	
7	0	0	0	0	508	510	0	0	
8	0	0	0	0	514	508	0	0	
9	0	0	0	0	514	507	0	0	
10	0	0	0	0	518	505	0	0	
11	0	0	0	0	516	507	0	0	
12	0	0	0	0	521	508	0	0	
13	0	0	0	0	518	509	0	0	
14	0	0	0	0	519	508	0	0	
15	0	0	0	0	518	508	0	0	
0	0	0	0	0	514	507	0	0	
1	0	0	0	0	513	508	0	0	
2	0	0	0	0	508	508	0	0	
3	0	0	0	0	508	509	0	0	
4	0	0	0	0	509	508	0	0	
5	0	0	0	0	504	508	0	0	
6	0	0	0	0	502	508	0	0	
7	0	0	0	0	503	506	0	0	
8	0	0	0	0	503	509	0	0	
9	0	0	0	0	503	508	0	0	
10	0	0	0	0	504	508	0	0	
11	0	0	0	0	508	507	0	0	
12	0	0	0	0	512	510	0	0	
13	0	0	0	0	516	508	0	0	
14	0	0	0	0	515	509	0	0	
15	0	0	0	0	517	508	0	0	
0	0	0	0	0	520	508	0	0	
1	0	0	0	0	523	508	0	0	
2	0	0	0	0	520	507	0	0	
3	0	0	0	0	519	509	0	0	
4	0	0	0	0	515	508	0	0	
5	0	0	0	0	512	507	0	0	
6	0	0	0	0	511	508	0	0	
7	0	0	0	0	506	509	0	0	
8	0	0	0	0	505	510	0	0	
9	0	0	0	0	504	508	0	0	
10	0	0	0	0	501	508	0	0	
11	0	0	0	0	504	507	0	0	
12	0	0	0	0	504	509	0	0	
13	0	0	0	0	504	510	0	0	
14	0	0	0	0	508	508	0	0	
15	0	0	0	0	508	507	0	0	
0	0	0	0	0	511	507	0	0	
1	0	0	0	0	512	507	0	0	
2	0	0	0	0	512	508	0	0	
3	0	0	0	0	515	507	0	0	
4	0	0	0	0	518	507	0	0	
5	0	0	0	0	515	507	0	0	
6	0	0	0	0	514	507	0	0	
7	0	0	0	0	515	508	0	0	
8	0	0	0	0	520	509	0	0	
9	0	0	0	0	526	510	0	0	
10	0	0	0	0	515	506	0	0	
11	0	0	0	0	510	508	0	0	
12	0	0	0	0	510	510	0	0	
13	0	0	0	0	510	508	0	0	
14	0	0	0	0	503	509	0	0	
15	0	0	0	0	502	508	0	0	
0	0	0	0	0	499	509	0	0	
1	0	0	0	0	503	510	0	0	
2	0	0	0	0	505	508	0	0	
3	0	0	0	0	507	507	0	0	
4	0	0	0	0	508	506	0	0	
5	0	0	0	0	510	508	0	0	
6	0	0	0	0	508	507	0	0	
7	0	0	0	0	508	506	0	0	
8	0	0	0	0	510	506	0	0	
9	0	0	0	0	512	506	0	0	
10	0	0	0	0	514	509	0	0	
11	0	0	0	0	532	507	0	0	
12	0	0	0	0	540	508	0	0	
13	0	0	0	0	524	507	0	0	
14	0	0	0	0	529	509	0	0	
15	0	0	0	0	512	508	0	0	
0	0	0	0	0	504	508	0	0	
1	0	0	0	0	499	509	0	0	
2	0	0	0	0	495	511	0	0	
3	0	0	0	0	495	507	0	0	
4	0	0	0	0	497	509	0	0	
5	0	0	0	0	499	509	0	0	
6	0	0	0	0	504	508	0	0	
7	0	0	0	0	514	509	0	0	
8	0	0	0	0	512	506	0	0	
9	0	0	0	0	515	505	0	0	
10	0	0	0	0	518	507	0	0	
11	0	0	0	0	520	511	0	0	
12	0	0	0	0	518	506	0	0	
13	0	0	0	0	516	509	0	0	
14	0	0	0	0	527	508	0	0	
15	0	0	0	0	519	511	0	0	
0	0	0	0	0	514	508	0	0	
1	0	0	0	0	506	505	0	0	
2	0	0	0	0	504	507	0	0	
3	0	0	0	0	501	508	0	0	
4	0	0	0	0	491	507	0	0	
5	0	0	0	0	486	509	0	0	
6	0	0	0	0	496	508	0	0	
7	0	0	0	0	492	509	0	0	
8	0	0	0	0	496	506	0	0	
9	0	0	0	0	504	509	0	0	
10	0	0	0	0	515	507	0	0	
11	0	0	0	0	538	507	0	0	
12	0	0	0	0	539	510	0	0	
13	0	0	0	0	538	509	0	0	
14	0	0	0	0	514	508	0	0	
15	0	0	0	0	502	506	0	0	
0	0	0	0	0	501	508	0	0	
1	0	0	0	0	511	508	0	0	
2	0	0	0	0	527	508	0	0	
3	0	0	0	0	512	506	0	0	
4	0	0	0	0	512	507	0	0	
5	0	0	0	0	525	505	0	0	
6	0	0	0	0	535	510	0	0	
7	0	0	0	0	517	510	0	0	
8	0	0	0	0	512	509	0	0	
9	0	0	0	0	494	505	0	0	
10	0	0	0	0	504	511	0	0	
11	0	0	0	0	494	509	0	0	
12	0	0	0	0	475	509	0	0	
13	0	0	0	0	464	508	0	0	
14	0	0	0	0	483	506	0	0	
15	0	0	0	0	508	505	0	0	
0	0	0	0	0	523	507	0	0	
1	0	0	0	0	535	506	0	0	
2	0	0	0	0	536	509	0	0	
3	0	0	0	0	601	507	0	0	
4	0	0	0	0	596	512	0	0	
5	0	0	0	0	526	511	0	0	
6	0	0	0	0	495	507	0	0	
7	0	0	0	0	483	506	0	0	
8	0	0	0	0	480	506	0	0	
9	0	0	0	0	485	507	0	0	
10	0	0	0	0	495	507	0	0	
11	0	0	0	0	502	509	0	0	
12	0	0	0	0	502	512	0	0	
13	0	0	0	0	492	506	0	0	
14	0	0	0	0	486	503	0	0	
15	0	0	0	0	483	506	0	0	
0	0	0	0	0	493	507	0	0	
1	0	0	0	0	494	508	0	0	
2	0	0	0	0	504	510	0	0	
3	0	0	0	0	532	509	0	0	
4	0	0	0	0	535	509	0	0	
5	0	0	0	0	542	511	0	0	
6	0	0	0	0	527	506	0	0	
7	0	0	0	0	515	504	4	0	
8	0	0	0	0	544	507	5	0	
9	0	0	0	0	527	510	5	0	
10	0	0	0	0	520	508	6	0	
11	0	0	0	0	522	508	7	0	
12	0	0	0	0	507	512	14	0	
13	0	0	0	0	499	513	13	0	
14	0	0	0	0	490	512	15	0	
15	0	0	0	0	484	508	16	0	
0	0	0	0	0	476	503	18	0	
1	0	0	0	0	481	504	21	0	
2	0	0	0	0	504	508	29	0	
3	0	0	0	0	520	508	32	0	
4	0	0	0	0	548	512	33	0	
5	0	0	0	0	517	508	34	0	
6	0	0	0	0	504	505	36	0	
7	0	0	0	0	529	508	35	0	
8	0	0	0	0	536	505	42	0	
9	0	0	0	0	527	506	42	0	
10	0	0	0	0	489	508	45	0	
11	0	0	0	0	479	511	49	0	
12	0	0	0	0	503	513	51	0	
13	0	0	0	0	538	509	52	0	
14	0	0	0	0	511	506	59	0	
15	0	0	0	0	480	504	61	0	
0	0	0	0	0	491	509	60	0	
1	0	0	0	0	543	507	63	0	
2	0	0	0	0	551	506	64	0	
3	0	0	0	0	543	509	62	0	
4	0	0	0	0	505	507	66	0	
5	0	0	0	0	459	498	67	0	
6	0	0	0	0	458	500	66	0	
7	0	0	0	0	474	507	60	0	
8	0	0	0	0	523	512	60	0	
9	0	0	0	0	529	523	60	0	
10	0	0	0	0	546	525	62	0	
11	0	0	0	0	615	515	64	0	
12	0	0	0	0	543	507	64	0	
13	0	0	0	0	486	511	66	0	
14	0	0	0	0	477	505	70	0	
15	0	0	0	0	496	493	72	0	
0	0	0	0	0	491	506	73	0	
1	0	0	0	0	468	511	71	0	
2	0	0	0	0	481	512	75	0	
3	0	0	0	0	479	508	76	0	
4	0	0	0	0	511	505	76	0	
5	0	0	0	0	483	503	73	0	
6	0	0	0	0	449	505	74	0	
7	0	0	0	0	523	495	75	0	
8	0	0	0	0	642	507	73	0	
9	0	0	0	0	683	524	75	0	
10	0	0	0	0	571	538	72	0	
11	0	0	0	0	430	522	76	0	
12	0	0	0	0	433	510	77	0	
13	0	0	0	0	490	502	79	0	
14	0	0	0	0	482	497	80	0	
15	0	0	0	0	473	483	84	0	
0	0	0	0	0	461	470	81	0	
1	0	0	0	0	467	482	81	0	
2	0	0	0	0	476	508	80	0	
3	0	0	0	0	555	514	86	0	
4	0	0	0	0	575	505	85	0	
5	0	0	0	0	594	516	86	0	
6	0	0	0	0	534	517	87	0	
7	0	0	0	0	518	511	88	6	
8	0	0	0	0	520	501	92	6	
9	0	0	0	0	443	504	95	10	
10	0	0	0	0	421	506	97	12	
11	0	0	0	0	456	505	100	19	
12	0	0	0	0	512	515	98	28	
13	0	0	0	0	488	526	98	33	
14	0	0	0	0	455	531	98	35	
15	0	0	0	0	446	524	96	38	
0	0	0	0	0	411	508	103	42	
1	0	0	0	0	433	503	106	41	
2	0	0	0	0	565	503	111	45	
3	0	0	0	0	702	511	110	46	
4	0	0	0	0	652	508	115	47	
5	0	0	0	0	642	511	113	47	
6	0	0	0	0	678	505	112	51	
7	0	0	0	0	640	507	115	51	
8	0	0	0	0	508	508	118	51	
9	0	0	0	0	440	506	121	51	
10	0	0	0	0	466	504	123	56	
11	0	0	0	0	487	503	125	55	
12	0	0	0	0	468	511	125	55	
13	0	0	0	0	459	515	130	56	
14	0	0	0	0	469	517	130	61	
15	0	0	0	0	502	525	130	62	
0	0	0	0	0	496	521	129	66	
1	0	0	0	0	515	510	133	67	
2	0	0	0	0	596	511	131	68	
3	0	0	0	0	595	502	129	71	
4	0	0	0	0	507	485	134	73	
5	0	0	0	0	482	496	128	75	
6	0	0	0	0	463	498	134	75	
7	0	0	0	0	457	498	136	76	
8	0	0	0	0	469	489	136	77	
9	0	0	0	0	547	499	140	79	
10	0	0	0	0	558	509	143	80	
11	0	0	0	0	559	517	144	84	
12	0	0	0	0	443	504	145	86	
13	0	0	0	0	455	510	145	87	
14	0	0	0	0	474	514	143	89	
15	0	0	0	0	494	510	143	89	
0	0	0	0	0	553	517	144	88	
1	0	0	0	0	563	521	146	88	
2	0	0	0	0	515	519	147	88	
3	0	0	0	0	479	506	147	89	
4	0	0	0	0	496	495	146	88	
5	0	0	0	0	474	497	146	89	
6	0	0	0	0	411	502	148	92	
7	0	0	0	0	381	515	150	93	
8	0	0	0	0	455	521	152	99	
9	0	0	0	0	568	528	154	105	
10	0	0	0	0	646	529	153	115	
11	0	0	0	0	631	523	153	112	
12	0	0	0	0	519	519	153	125	
13	0	0	0	0	424	505	153	128	
14	0	0	0	0	488	490	151	129	
15	0	0	0	0	583	483	151	133	
0	0	0	0	0	568	496	144	138	
1	0	0	0	0	491	491	143	143	
2	0	0	0	0	491	486	144	143	
3	0	0	0	0	511	484	146	146	
4	0	0	0	0	519	509	144	147	
5	0	0	0	0	523	510	140	150	
6	0	0	0	0	553	517	137	152	
7	0	0	0	0	506	515	136	155	
8	0	0	0	0	468	504	138	156	
9	0	0	0	0	526	505	137	157	
10	0	0	0	0	509	506	135	163	
11	0	0	0	0	423	518	134	167	
12	0	0	0	0	482	524	133	164	
13	0	0	0	0	602	520	132	159	
14	0	0	0	0	572	515	135	155	
15	0	0	0	0	584	512	129	158	
0	0	0	0	0	513	522	131	160	
1	0	0	0	0	423	516	129	173	
2	0	0	0	0	494	507	129	177	
3	0	0	0	0	521	503	131	180	
4	0	0	0	0	438	522	129	182	
5	0	0	0	0	447	515	131	185	
6	0	0	0	0	448	478	132	189	
7	0	0	0	0	500	486	134	190	
8	0	0	0	0	512	496	133	192	
9	0	0	0	0	486	499	128	200	
10	0	0	0	0	605	504	129	201	
11	0	0	0	0	640	511	128	205	
12	0	0	0	0	486	510	126	206	
13	0	0	0	0	392	518	127	207	
14	0	0	0	0	514	522	127	207	
15	0	0	0	0	577	528	126	207	
0	0	0	0	0	546	522	124	204	
1	0	0	0	0	451	512	125	206	
2	0	0	0	0	474	498	122	207	
3	0	0	0	0	595	493	125	207	
4	0	0	0	0	553	504	124	209	
5	0	0	0	0	451	499	121	207	
6	0	0	0	0	496	505	121	206	
7	0	0	0	0	550	504	122	208	
8	0	0	0	0	580	504	117	207	
9	0	0	0	0	617	510	116	207	
10	0	0	0	0	572	519	114	207	
11	0	0	0	0	594	517	115	209	
12	0	0	0	0	548	513	112	211	
13	0	0	0	0	498	504	107	211	
14	0	0	0	0	416	507	103	216	
15	0	0	0	0	383	508	96	215	
0	0	0	0	0	393	509	95	216	
1	0	0	0	0	403	500	96	217	
2	0	0	0	0	442	494	97	220	
3	0	0	0	0	585	503	100	221	
4	0	0	0	0	483	514	98	220	
5	0	0	0	0	507	515	101	220	
6	0	0	0	0	474	519	100	222	
7	0	0	0	0	600	517	102	223	
8	0	0	0	0	791	526	99	223	
9	0	0	0	0	571	510	98	224	
10	0	0	0	0	456	493	97	224	
11	0	0	0	0	427	504	96	223	
12	0	0	0	0	440	507	97	222	
13	0	0	0	0	306	495	98	225	
14	0	0	0	0	339	505	97	224	
15	0	0	0	0	507	516	98	229	
0	0	0	0	0	522	500	97	228	
1	0	0	0	0	636	517	96	228	
2	0	0	0	0	800	519	99	231	
3	0	0	0	0	615	516	97	231	
4	0	0	0	0	455	511	96	231	
5	0	0	0	0	408	501	96	232	
6	0	0	0	0	451	493	96	228	
7	0	0	0	0	503	486	96	229	
8	0	0	0	0	516	511	95	230	
9	0	0	0	0	549	528	95	228	
10	0	0	0	0	619	523	94	227	
11	0	0	0	0	582	506	93	231	
12	0	0	0	0	434	500	91	231	
13	0	0	0	0	385	496	92	230	
14	0	0	0	0	362	490	91	232	
15	0	0	0	0	438	488	91	236	
0	0	0	0	0	484	483	91	237	
1	0	0	0	0	560	507	91	236	
2	0	0	0	0	825	519	90	239	
3	0	0	0	0	783	532	91	240	
4	0	0	0	0	520	536	92	241	
5	0	0	0	0	411	527	89	241	
6	0	0	0	0	425	525	90	241	
7	0	0	0	0	419	524	91	241	
8	0	0	0	0	413	499	90	243	
9	0	0	0	0	499	490	89	242	
10	0	0	0	0	496	494	90	242	
11	0	0	0	0	466	500	89	242	
12	0	0	0	0	510	513	91	243	
13	0	0	0	0	523	533	89	239	
14	0	0	0	0	477	512	90	237	
15	0	0	0	0	413	483	90	237	
0	0	0	0	0	405	482	89	236	
1	0	0	0	0	457	497	90	236	
2	0	0	0	0	547	499	89	236	
3	0	0	0	0	657	511	89	237	
4	0	0	0	0	603	514	90	236	
5	0	0	0	0	549	517	89	238	
6	0	0	0	0	586	523	89	239	
7	0	0	0	0	545	520	89	238	
8	0	0	0	0	537	510	91	238	
9	0	0	0	0	552	499	91	238	
10	0	0	0	0	439	504	91	240	
11	0	0	0	0	460	509	88	239	
12	0	0	0	0	575	522	90	237	
13	0	0	0	0	640	515	91	239	
14	0	0	0	0	525	527	91	240	
15	0	0	0	0	361	511	90	243	
0	0	0	0	0	363	502	90	246	
1	0	0	0	0	423	489	91	247	
2	0	0	0	0	525	508	91	246	
3	0	0	0	0	602	507	92	249	
4	0	0	0	0	604	498	92	249	
5	0	0	0	0	488	511	91	248	
6	0	0	0	0	472	504	91	245	
7	0	0	0	0	466	508	91	246	
8	0	0	0	0	492	506	91	248	
9	0	0	0	0	564	489	92	251	
10	0	0	0	0	651	496	92	253	
11	0	0	0	0	575	508	92	252	
12	0	0	0	0	513	521	93	254	
13	0	0	0	0	478	517	93	256	
14	0	0	0	0	501	516	94	258	
15	0	0	0	0	499	516	94	256	
0	0	0	0	0	503	508	94	257	
1	0	0	0	0	472	515	95	257	
2	0	0	0	0	476	518	93	256	
3	0	0	0	0	512	510	94	259	
4	0	0	0	0	486	513	95	260	
5	0	0	0	0	539	503	94	259	
6	0	0	0	0	467	495	94	260	
7	0	0	0	0	395	493	94	262	
8	0	0	0	0	458	492	94	261	
9	0	0	0	0	442	502	95	262	
10	0	0	0	0	448	513	95	263	
11	0	0	0	0	483	505	95	263	
12	0	0	0	0	528	494	96	263	
13	0	0	0	0	627	526	96	265	
14	0	0	0	0	764	538	96	266	
15	0	0	0	0	617	536	97	266	
0	0	0	0	0	497	525	97	266	
1	0	0	0	0	464	502	97	267	
2	0	0	0	0	482	493	97	266	
3	0	0	0	0	490	491	97	266	
4	0	0	0	0	514	499	96	266	
5	0	0	0	0	511	495	97	266	
6	0	0	0	0	497	497	96	268	
7	0	0	0	0	486	521	96	268	
8	0	0	0	0	465	491	96	268	
9	0	0	0	0	484	489	95	269	
10	0	0	0	0	460	519	95	269	
11	0	0	0	0	451	524	95	269	
12	0	0	0	0	521	527	96	271	
13	0	0	0	0	623	516	96	275	
14	0	0	0	0	691	519	95	279	
15	0	0	0	0	563	527	96	283	
0	0	0	0	0	505	519	95	283	
1	0	0	0	0	437	508	96	284	
2	0	0	0	0	425	509	96	285	
3	0	0	0	0	462	467	96	285	
4	0	0	0	0	452	436	96	284	
5	0	0	0	0	533	477	96	286	
6	0	0	0	0	615	531	97	287	
7	0	0	0	0	613	538	97	287	
8	0	0	0	0	431	530	97	287	
9	0	0	0	0	368	531	98	292	
10	0	0	0	0	371	516	98	292	
11	0	0	0	0	479	507	98	294	
12	0	0	0	0	587	499	97	293	
13	0	0	0	0	687	494	98	293	
14	0	0	0	0	655	503	98	294	
15	0	0	0	0	565	521	99	294	
0	0	0	0	0	499	515	99	292	
1	0	0	0	0	409	504	100	291	
2	0	0	0	0	437	504	100	289	
3	0	0	0	0	459	512	102	288	
4	0	0	0	0	551	507	100	288	
5	0	0	0	0	587	502	100	287	
6	0	0	0	0	540	515	99	287	
7	0	0	0	0	471	518	99	289	
8	0	0	0	0	441	508	100	288	
9	0	0	0	0	518	504	99	290	
10	0	0	0	0	534	501	99	288	
11	0	0	0	0	543	519	100	287	
12	0	0	0	0	428	523	100	290	
13	0	0	0	0	374	524	101	288	
14	0	0	0	0	462	511	102	287	
15	0	0	0	0	455	502	101	287	
0	0	0	0	0	520	478	100	286	
1	0	0	0	0	546	467	100	287	
2	0	0	0	0	676	499	100	287	
3	0	0	0	0	709	512	100	288	
4	0	0	0	0	584	516	101	290	
5	0	0	0	0	476	518	101	289	
6	0	0	0	0	449	517	100	291	
7	0	0	0	0	475	511	101	293	
8	0	0	0	0	561	512	101	294	
9	0	0	0	0	567	520	101	294	
10	0	0	0	0	524	518	100	294	
11	0	0	0	0	434	508	100	296	
12	0	0	0	0	452	511	100	297	
13	0	0	0	0	436	503	100	297	
14	0	0	0	0	470	500	100	298	
15	0	0	0	0	576	506	100	298	
0	0	0	0	0	593	507	99	300	
1	0	0	0	0	473	508	99	299	
2	0	0	0	0	402	508	100	301	
3	0	0	0	0	440	496	99	301	
4	0	0	0	0	539	498	99	303	
5	0	0	0	0	522	518	98	304	
6	0	0	0	0	544	529	99	306	
7	0	0	0	0	561	504	98	307	
8	0	0	0	0	540	495	99	310	
9	0	0	0	0	496	501	100	310	
10	0	0	0	0	469	493	99	312	
11	0	0	0	0	429	491	99	312	
12	0	0	0	0	370	508	99	314	
13	0	0	0	0	419	508	99	314	
14	0	0	0	0	525	507	99	313	
15	0	0	0	0	586	518	99	313	
0	0	0	0	0	707	519	99	314	
1	0	0	0	0	706	523	100	313	
2	0	0	0	0	578	531	100	311	
3	0	0	0	0	518	513	100	314	
4	0	0	0	0	486	509	100	313	
5	0	0	0	0	545	519	100	313	
6	0	0	0	0	539	505	99	315	
7	0	0	0	0	489	499	99	313	
8	0	0	0	0	441	496	99	314	
9	0	0	0	0	448	501	99	313	
10	0	0	0	0	510	496	99	314	
11	0	0	0	0	446	501	100	316	
12	0	0	0	0	483	510	100	316	
13	0	0	0	0	516	509	100	314	
14	0	0	0	0	529	508	100	313	
15	0	0	0	0	523	506	101	312	
0	0	0	0	0	463	507	100	313	
1	0	0	0	0	479	507	100	313	
2	0	0	0	0	483	508	101	314	
3	0	0	0	0	528	495	101	315	
4	0	0	0	0	570	507	101	316	
5	0	0	0	0	457	524	101	315	
6	0	0	0	0	445	531	102	316	
7	0	0	0	0	518	520	102	313	
8	0	0	0	0	519	515	102	313	
9	0	0	0	0	517	518	103	314	
10	0	0	0	0	441	508	103	315	
11	0	0	0	0	455	502	102	313	
12	0	0	0	0	518	483	102	313	
13	0	0	0	0	550	467	102	312	
14	0	0	0	0	616	498	102	312	
15	0	0	0	0	645	524	102	312	
0	0	0	0	0	570	536	103	312	
1	0	0	0	0	559	536	103	310	
2	0	0	0	0	561	522	103	312	
3	0	0	0	0	479	512	103	312	
4	0	0	0	0	457	503	103	310	
5	0	0	0	0	448	518	103	310	
6	0	0	0	0	458	484	103	312	
7	0	0	0	0	467	451	103	311	
8	0	0	0	0	499	502	103	311	
9	0	0	0	0	513	521	103	311	
10	0	0	0	0	563	515	103	311	
11	0	0	0	0	500	510	103	310	
12	0	0	0	0	555	508	103	310	
13	0	0	0	0	556	509	103	311	
14	0	0	0	0	508	499	103	310	
15	0	0	0	0	524	514	103	309	
0	0	0	0	0	461	521	100	309	
1	0	0	0	0	462	513	100	309	
2	0	0	0	0	508	506	100	309	
3	0	0	0	0	508	495	100	310	
4	0	0	0	0	479	501	100	310	
5	0	0	0	0	487	514	100	310	
6	0	0	0	0	435	520	100	310	
7	0	0	0	0	439	521	102	309	
8	0	0	0	0	502	520	101	309	
9	0	0	0	0	542	510	102	309	
10	0	0	0	0	524	494	102	308	
11	0	0	0	0	635	491	102	306	
12	0	0	0	0	588	498	102	307	
13	0	0	0	0	582	503	102	305	
14	0	0	0	0	531	506	102	303	
15	0	0	0	0	493	509	102	303	
0	0	0	0	0	455	515	101	303	
1	0	0	0	0	442	510	102	304	
2	0	0	0	0	483	504	102	305	
3	0	0	0	0	590	510	101	303	
4	0	0	0	0	591	504	101	303	
5	0	0	0	0	531	511	101	303	
6	0	0	0	0	494	518	102	304	
7	0	0	0	0	481	515	102	306	
8	0	0	0	0	505	513	103	304	
9	0	0	0	0	545	505	102	305	
10	0	0	0	0	461	510	102	306	
11	0	0	0	0	437	504	102	306	
12	0	0	0	0	460	503	101	305	
13	0	0	0	0	463	510	101	305	
14	0	0	0	0	497	521	100	304	
15	0	0	0	0	528	525	100	303	
0	0	0	0	0	551	520	100	303	
1	0	0	0	0	603	511	100	304	
2	0	0	0	0	663	505	100	302	
3	0	0	0	0	547	484	101	303	
4	0	0	0	0	491	488	101	302	
5	0	0	0	0	484	494	100	302	
6	0	0	0	0	508	508	100	302	
7	0	0	0	0	497	506	100	304	
8	0	0	0	0	433	518	100	304	
9	0	0	0	0	380	513	99	304	
10	0	0	0	0	393	509	98	302	
11	0	0	0	0	441	509	98	301	
12	0	0	0	0	519	506	98	301	
13	0	0	0	0	627	502	97	301	
14	0	0	0	0	620	505	98	301	
15	0	0	0	0	565	505	97	300	
0	0	0	0	0	507	510	97	302	
1	0	0	0	0	460	512	97	299	
2	0	0	0	0	465	508	97	300	
3	0	0	0	0	454	516	97	300	
4	0	0	0	0	430	513	95	300	
5	0	0	0	0	442	502	95	298	
6	0	0	0	0	414	510	95	299	
7	0	0	0	0	498	506	96	297	
8	0	0	0	0	796	498	95	299	
9	0	0	0	0	786	512	96	298	
10	0	0	0	0	648	518	96	297	
11	0	0	0	0	536	497	96	295	
12	0	0	0	0	491	501	96	293	
13	0	0	0	0	437	513	96	295	
14	0	0	0	0	429	515	96	291	
15	0	0	0	0	434	508	96	292	
0	0	0	0	0	482	516	96	293	
1	0	0	0	0	494	518	96	293	
2	0	0	0	0	478	511	96	292	
3	0	0	0	0	471	503	96	292	
4	0	0	0	0	465	495	95	290	
5	0	0	0	0	502	504	96	288	
6	0	0	0	0	547	500	97	288	
7	0	0	0	0	532	507	96	288	
8	0	0	0	0	556	514	94	286	
9	0	0	0	0	537	512	93	286	
10	0	0	0	0	479	504	91	286	
11	0	0	0	0	458	500	91	286	
12	0	0	0	0	484	508	91	284	
13	0	0	0	0	518	517	89	285	
14	0	0	0	0	528	511	88	284	
15	0	0	0	0	544	512	86	285	
0	0	0	0	0	521	512	84	285	
1	0	0	0	0	509	519	82	283	
2	0	0	0	0	506	508	83	284	
3	0	0	0	0	475	508	83	282	
4	0	0	0	0	414	514	81	282	
5	0	0	0	0	510	504	81	280	
6	0	0	0	0	548	496	81	280	
7	0	0	0	0	581	496	82	278	
8	0	0	0	0	698	505	81	279	
9	0	0	0	0	619	509	81	279	
10	0	0	0	0	481	511	83	279	
11	0	0	0	0	433	508	83	278	
12	0	0	0	0	422	510	83	278	
13	0	0	0	0	440	503	81	277	
14	0	0	0	0	453	499	82	275	
15	0	0	0	0	494	497	82	273	
0	0	0	0	0	513	509	81	273	
1	0	0	0	0	499	521	80	274	
2	0	0	0	0	459	516	80	272	
3	0	0	0	0	483	504	81	270	
4	0	0	0	0	561	512	80	270	
5	0	0	0	0	618	500	79	270	
6	0	0	0	0	588	508	79	268	
7	0	0	0	0	570	511	79	265	
8	0	0	0	0	474	508	79	260	
9	0	0	0	0	507	509	79	261	
10	0	0	0	0	505	516	79	259	
11	0	0	0	0	459	520	79	259	
12	0	0	0	0	463	515	78	259	
13	0	0	0	0	531	497	78	259	
14	0	0	0	0	570	502	78	258	
15	0	0	0	0	520	512	78	257	
0	0	0	0	0	439	499	78	257	
1	0	0	0	0	403	503	78	255	
2	0	0	0	0	391	492	77	254	
3	0	0	0	0	484	497	76	254	
4	0	0	0	0	644	513	77	255	
5	0	0	0	0	667	524	77	253	
6	0	0	0	0	589	523	76	253	
7	0	0	0	0	610	517	75	253	
8	0	0	0	0	524	505	75	252	
9	0	0	0	0	489	505	74	253	
10	0	0	0	0	484	507	74	253	
11	0	0	0	0	454	508	75	252	
12	0	0	0	0	455	510	75	253	
13	0	0	0	0	433	511	75	252	
14	0	0	0	0	461	507	73	253	
15	0	0	0	0	529	505	73	253	
0	0	0	0	0	527	511	74	252	
1	0	0	0	0	496	515	75	253	
2	0	0	0	0	483	505	75	253	
3	0	0	0	0	485	505	74	254	
4	0	0	0	0	527	507	74	254	
5	0	0	0	0	590	513	74	253	
6	0	0	0	0	542	507	75	254	
7	0	0	0	0	454	499	74	253	
8	0	0	0	0	470	508	74	253	
9	0	0	0	0	530	508	74	253	
10	0	0	0	0	543	508	74	254	
11	0	0	0	0	630	507	73	253	
12	0	0	0	0	697	503	73	253	
13	0	0	0	0	538	502	74	254	
14	0	0	0	0	444	511	73	253	
15	0	0	0	0	430	515	72	254	
0	0	0	0	0	394	535	73	255	
1	0	0	0	0	456	515	74	254	
2	0	0	0	0	492	480	74	253	
3	0	0	0	0	517	490	74	254	
4	0	0	0	0	513	502	75	252	
5	0	0	0	0	486	497	75	252	
6	0	0	0	0	476	496	75	252	
7	0	0	0	0	500	513	76	252	
8	0	0	0	0	540	511	75	252	
9	0	0	0	0	540	504	76	252	
10	0	0	0	0	534	508	76	253	
11	0	0	0	0	523	512	77	253	
12	0	0	0	0	587	514	78	252	
13	0	0	0	0	602	514	78	252	
14	0	0	0	0	531	516	79	252	
15	0	0	0	0	470	508	78	252	
0	0	0	0	0	462	522	78	252	
1	0	0	0	0	456	520	79	253	
2	0	0	0	0	474	513	79	254	
3	0	0	0	0	487	508	79	254	
4	0	0	0	0	467	502	79	254	
5	0	0	0	0	487	501	79	254	
6	0	0	0	0	485	495	80	254	
7	0	0	0	0	467	494	80	253	
8	0	0	0	0	490	507	80	255	
9	0	0	0	0	481	526	80	254	
10	0	0	0	0	515	526	81	254	
11	0	0	0	0	662	524	82	254	
12	0	0	0	0	712	518	82	254	
13	0	0	0	0	577	491	81	254	
14	0	0	0	0	507	485	82	254	
15	0	0	0	0	475	494	82	255	
0	0	0	0	0	475	502	82	255	
1	0	0	0	0	511	521	82	254	
2	0	0	0	0	537	519	82	255	
3	0	0	0	0	481	500	81	254	
4	0	0	0	0	454	494	81	255	
5	0	0	0	0	482	495	81	255	
6	0	0	0	0	431	507	82	255	
7	0	0	0	0	398	517	83	255	
8	0	0	0	0	477	504	83	255	
9	0	0	0	0	589	506	82	256	
10	0	0	0	0	631	517	82	255	
11	0	0	0	0	600	521	83	255	
12	0	0	0	0	550	515	83	255	
13	0	0	0	0	566	514	83	256	
14	0	0	0	0	485	515	83	256	
15	0	0	0	0	435	505	83	256	
0	0	0	0	0	467	503	82	256	
1	0	0	0	0	512	507	82	255	
2	0	0	0	0	517	506	83	256	
3	0	0	0	0	484	509	83	257	
4	0	0	0	0	444	504	82	256	
5	0	0	0	0	464	502	82	255	
6	0	0	0	0	499	504	82	255	
7	0	0	0	0	550	505	84	255	
8	0	0	0	0	572	511	83	256	
9	0	0	0	0	530	507	83	255	
10	0	0	0	0	471	508	83	256	
11	0	0	0	0	431	505	83	255	
12	0	0	0	0	472	509	83	255	
13	0	0	0	0	538	518	83	255	
14	0	0	0	0	609	506	83	255	
15	0	0	0	0	619	506	82	256	
0	0	0	0	0	544	519	83	257	
1	0	0	0	0	500	514	83	256	
2	0	0	0	0	510	510	84	256	
3	0	0	0	0	512	512	83	255	
4	0	0	0	0	484	510	83	255	
5	0	0	0	0	473	505	83	254	
6	0	0	0	0	438	502	84	255	
7	0	0	0	0	455	504	83	254	
8	0	0	0	0	479	508	83	253	
9	0	0	0	0	463	510	83	254	
10	0	0	0	0	544	505	83	253	
11	0	0	0	0	629	513	84	255	
12	0	0	0	0	623	513	83	254	
13	0	0	0	0	497	516	83	254	
14	0	0	0	0	406	517	83	254	
15	0	0	0	0	439	501	83	254	
0	0	0	0	0	480	489	83	253	
1	0	0	0	0	508	492	84	253	
2	0	0	0	0	574	489	84	255	
3	0	0	0	0	571	497	85	254	
4	0	0	0	0	592	506	84	254	
5	0	0	0	0	555	521	84	255	
6	0	0	0	0	507	526	84	255	
7	0	0	0	0	515	506	85	256	
8	0	0	0	0	514	503	86	255	
9	0	0	0	0	507	505	86	255	
10	0	0	0	0	488	508	85	255	
11	0	0	0	0	488	512	85	255	
12	0	0	0	0	478	512	85	254	
13	0	0	0	0	454	509	84	254	
14	0	0	0	0	481	511	84	254	
15	0	0	0	0	524	515	85	254	
0	0	0	0	0	620	513	83	255	
1	0	0	0	0	616	513	83	255	
2	0	0	0	0	525	513	84	254	
3	0	0	0	0	431	514	83	254	
4	0	0	0	0	383	505	83	254	
5	0	0	0	0	396	502	83	254	
6	0	0	0	0	419	495	83	254	
7	0	0	0	0	505	495	84	254	
8	0	0	0	0	627	495	83	253	
9	0	0	0	0	677	513	84	254	
10	0	0	0	0	554	517	84	253	
11	0	0	0	0	491	518	83	254	
12	0	0	0	0	483	515	83	253	
13	0	0	0	0	471	510	84	253	
14	0	0	0	0	470	507	83	252	
15	0	0	0	0	522	490	83	253	
0	0	0	0	0	519	487	83	252	
1	0	0	0	0	432	511	84	253	
2	0	0	0	0	445	524	83	252	
3	0	0	0	0	502	526	83	253	
4	0	0	0	0	580	521	83	252	
5	0	0	0	0	631	499	80	252	
6	0	0	0	0	654	507	81	253	
7	0	0	0	0	487	504	80	253	
8	0	0	0	0	469	507	80	253	
9	0	0	0	0	491	507	80	254	
10	0	0	0	0	535	508	81	253	
11	0	0	0	0	497	506	82	251	
12	0	0	0	0	457	504	81	252	
13	0	0	0	0	461	514	81	251	
14	0	0	0	0	479	515	81	252	
15	0	0	0	0	489	507	81	251	
0	0	0	0	0	577	512	80	252	
1	0	0	0	0	545	519	81	251	
2	0	0	0	0	541	500	81	251	
3	0	0	0	0	531	497	81	251	
4	0	0	0	0	509	506	80	250	
5	0	0	0	0	489	505	81	250	
6	0	0	0	0	493	500	80	250	
7	0	0	0	0	520	505	80	250	
8	0	0	0	0	519	518	79	250	
9	0	0	0	0	487	522	79	249	
10	0	0	0	0	412	511	79	249	
11	0	0	0	0	417	511	79	248	
12	0	0	0	0	463	512	79	248	
13	0	0	0	0	524	499	80	248	
14	0	0	0	0	684	496	80	247	
15	0	0	0	0	608	487	79	246	
0	0	0	0	0	556	503	79	247	
1	0	0	0	0	588	517	80	246	
2	0	0	0	0	543	518	79	247	
3	0	0	0	0	532	511	79	246	
4	0	0	0	0	484	513	80	246	
5	0	0	0	0	384	521	79	246	
6	0	0	0	0	318	524	78	246	
7	0	0	0	0	389	514	78	246	
8	0	0	0	0	509	524	79	246	
9	0	0	0	0	560	514	78	246	
10	0	0	0	0	684	489	78	247	
11	0	0	0	0	648	456	78	246	
12	0	0	0	0	556	470	78	245	
13	0	0	0	0	536	498	79	245	
14	0	0	0	0	488	513	78	245	
15	0	0	0	0	391	513	79	246	
0	0	0	0	0	327	511	78	246	
1	0	0	0	0	378	520	78	245	
2	0	0	0	0	441	515	78	244	
3	0	0	0	0	561	508	78	246	
4	0	0	0	0	766	513	78	246	
5	0	0	0	0	733	531	81	245	
6	0	0	0	0	499	519	79	245	
7	0	0	0	0	460	507	79	245	
8	0	0	0	0	502	507	79	244	
9	0	0	0	0	518	506	78	244	
10	0	0	0	0	478	503	79	244	
11	0	0	0	0	465	503	79	244	
12	0	0	0	0	472	508	79	244	
13	0	0	0	0	468	507	79	243	
14	0	0	0	0	483	508	78	244	
15	0	0	0	0	488	505	78	244	
0	0	0	0	0	499	509	78	244	
1	0	0	0	0	515	513	79	243	
2	0	0	0	0	514	510	79	243	
3	0	0	0	0	507	507	79	243	
4	0	0	0	0	527	509	79	243	
5	0	0	0	0	542	514	79	243	
6	0	0	0	0	508	511	80	242	
7	0	0	0	0	523	516	80	242	
8	0	0	0	0	494	518	80	243	
9	0	0	0	0	498	512	80	242	
10	0	0	0	0	487	505	80	242	
11	0	0	0	0	544	488	80	241	
12	0	0	0	0	589	488	81	241	
13	0	0	0	0	591	492	81	242	
14	0	0	0	0	583	506	81	242	
15	0	0	0	0	548	515	80	242	
0	0	0	0	0	509	514	81	242	
1	0	0	0	0	505	512	80	242	
2	0	0	0	0	488	515	80	241	
3	0	0	0	0	448	507	79	242	
4	0	0	0	0	396	498	79	242	
5	0	0	0	0	407	507	81	241	
6	0	0	0	0	382	512	81	242	
7	0	0	0	0	349	512	80	241	
8	0	0	0	0	491	513	80	242	
9	0	0	0	0	664	524	81	242	
10	0	0	0	0	742	512	80	241	
11	0	0	0	0	640	498	82	241	
12	0	0	0	0	590	500	82	241	
13	0	0	0	0	541	506	80	242	
14	0	0	0	0	517	508	81	242	
15	0	0	0	0	492	508	82	242	
0	0	0	0	0	446	511	80	242	
1	0	0	0	0	403	506	80	242	
2	0	0	0	0	422	507	81	243	
3	0	0	0	0	490	519	81	242	
4	0	0	0	0	611	515	82	241	
5	0	0	0	0	616	508	82	243	
6	0	0	0	0	545	509	81	243	
7	0	0	0	0	494	504	81	243	
8	0	0	0	0	455	504	82	243	
9	0	0	0	0	450	508	81	242	
10	0	0	0	0	441	513	80	243	
11	0	0	0	0	443	508	80	241	
12	0	0	0	0	484	495	79	241	
13	0	0	0	0	502	496	79	241	
14	0	0	0	0	509	494	79	240	
15	0	0	0	0	545	501	79	240	
0	0	0	0	0	559	510	79	240	
1	0	0	0	0	589	525	78	240	
2	0	0	0	0	575	519	79	239	
3	0	0	0	0	515	515	78	239	
4	0	0	0	0	429	507	79	239	
5	0	0	0	0	470	509	77	236	
6	0	0	0	0	492	504	79	236	
7	0	0	0	0	507	502	78	234	
8	0	0	0	0	545	507	78	232	
9	0	0	0	0	554	525	78	232	
10	0	0	0	0	549	526	77	232	
11	0	0	0	0	490	504	77	231	
12	0	0	0	0	513	508	78	231	
13	0	0	0	0	592	502	77	230	
14	0	0	0	0	580	493	77	230	
15	0	0	0	0	492	498	78	230	
0	0	0	0	0	457	496	77	229	
1	0	0	0	0	429	495	77	228	
2	0	0	0	0	460	503	78	228	
3	0	0	0	0	519	512	77	227	
4	0	0	0	0	561	512	78	227	
5	0	0	0	0	531	515	79	227	
6	0	0	0	0	490	519	78	228	
7	0	0	0	0	479	514	78	228	
8	0	0	0	0	535	491	79	227	
9	0	0	0	0	590	504	79	227	
10	0	0	0	0	481	510	79	227	
11	0	0	0	0	451	519	78	227	
12	0	0	0	0	450	511	79	227	
13	0	0	0	0	480	502	78	227	
14	0	0	0	0	514	509	79	228	
15	0	0	0	0	557	514	79	229	
0	0	0	0	0	534	523	77	228	
1	0	0	0	0	509	520	79	229	
2	0	0	0	0	506	520	80	228	
3	0	0	0	0	504	512	80	229	
4	0	0	0	0	551	500	81	229	
5	0	0	0	0	506	498	81	231	
6	0	0	0	0	452	493	82	230	
7	0	0	0	0	470	493	80	230	
8	0	0	0	0	556	504	80	230	
9	0	0	0	0	620	515	81	230	
10	0	0	0	0	543	513	80	229	
11	0	0	0	0	502	511	80	230	
12	0	0	0	0	497	508	81	230	
13	0	0	0	0	509	505	81	230	
14	0	0	0	0	511	503	81	229	
15	0	0	0	0	500	506	81	229	
0	0	0	0	0	518	513	81	228	
1	0	0	0	0	533	515	81	228	
2	0	0	0	0	505	513	80	228	
3	0	0	0	0	454	506	81	228	
4	0	0	0	0	416	512	81	228	
5	0	0	0	0	385	510	82	228	
6	0	0	0	0	382	509	81	228	
7	0	0	0	0	437	498	81	229	
8	0	0	0	0	609	499	82	230	
9	0	0	0	0	664	512	82	229	
10	0	0	0	0	658	515	81	229	
11	0	0	0	0	592	516	81	229	
12	0	0	0	0	515	495	81	229	
13	0	0	0	0	448	494	81	228	
14	0	0	0	0	485	504	82	228	
15	0	0	0	0	614	511	81	227	
0	0	0	0	0	514	520	81	226	
1	0	0	0	0	480	519	81	226	
2	0	0	0	0	518	516	80	226	
3	0	0	0	0	542	509	81	227	
4	0	0	0	0	568	510	81	227	
5	0	0	0	0	488	505	79	226	
6	0	0	0	0	433	512	79	225	
7	0	0	0	0	450	506	78	226	
8	0	0	0	0	464	497	79	225	
9	0	0	0	0	548	492	80	225	
10	0	0	0	0	541	503	81	225	
11	0	0	0	0	558	511	79	225	
12	0	0	0	0	530	513	79	225	
13	0	0	0	0	497	513	81	225	
14	0	0	0	0	496	516	79	225	
15	0	0	0	0	508	512	79	224	
0	0	0	0	0	507	506	79	226	
1	0	0	0	0	505	499	79	224	
2	0	0	0	0	495	503	78	225	
3	0	0	0	0	481	508	78	225	
4	0	0	0	0	490	511	79	224	
5	0	0	0	0	479	515	79	225	
6	0	0	0	0	472	504	79	224	
7	0	0	0	0	506	506	78	224	
8	0	0	0	0	542	513	80	224	
9	0	0	0	0	521	514	82	224	
10	0	0	0	0	501	515	78	224	
11	0	0	0	0	468	503	77	223	
12	0	0	0	0	452	497	75	223	
13	0	0	0	0	561	504	77	223	
14	0	0	0	0	632	505	76	222	
15	0	0	0	0	589	512	78	222	
0	0	0	0	0	542	508	78	222	
1	0	0	0	0	501	519	79	222	
2	0	0	0	0	472	522	79	221	
3	0	0	0	0	432	519	79	220	
4	0	0	0	0	457	515	79	220	
5	0	0	0	0	451	502	83	219	
6	0	0	0	0	495	506	81	219	
7	0	0	0	0	573	490	80	219	
8	0	0	0	0	608	493	82	219	
9	0	0	0	0	580	494	81	218	
10	0	0	0	0	544	505	84	218	
11	0	0	0	0	520	508	83	218	
12	0	0	0	0	508	510	84	217	
13	0	0	0	0	457	509	84	217	
14	0	0	0	0	397	505	84	216	
15	0	0	0	0	395	509	84	216	
0	0	0	0	0	461	513	85	216	
1	0	0	0	0	519	510	85	217	
2	0	0	0	0	692	512	84	216	
3	0	0	0	0	698	519	84	216	
4	0	0	0	0	527	517	83	217	
5	0	0	0	0	491	511	84	216	
6	0	0	0	0	459	509	83	216	
7	0	0	0	0	480	504	84	216	
8	0	0	0	0	500	504	85	216	
9	0	0	0	0	491	503	86	216	
10	0	0	0	0	482	510	85	216	
11	0	0	0	0	502	511	89	216	
12	0	0	0	0	542	516	89	215	
13	0	0	0	0	530	513	89	215	
14	0	0	0	0	517	501	85	214	
15	0	0	0	0	495	506	86	213	
0	0	0	0	0	487	508	86	214	
1	0	0	0	0	486	500	84	213	
2	0	0	0	0	496	499	84	211	
3	0	0	0	0	483	511	84	211	
4	0	0	0	0	398	506	84	209	
5	0	0	0	0	358	505	86	209	
6	0	0	0	0	405	511	86	208	
7	0	0	0	0	502	509	86	207	
8	0	0	0	0	587	512	86	208	
9	0	0	0	0	687	517	88	208	
10	0	0	0	0	778	520	87	207	
11	0	0	0	0	726	519	88	210	
12	0	0	0	0	505	499	86	210	
13	0	0	0	0	451	494	87	208	
14	0	0	0	0	450	510	86	209	
15	0	0	0	0	483	520	86	208	
0	0	0	0	0	487	511	87	206	
1	0	0	0	0	479	514	86	211	
2	0	0	0	0	512	514	86	211	
3	0	0	0	0	477	486	86	213	
4	0	0	0	0	438	472	86	213	
5	0	0	0	0	483	494	86	214	
6	0	0	0	0	526	501	86	214	
7	0	0	0	0	500	507	86	215	
8	0	0	0	0	533	514	86	216	
9	0	0	0	0	592	520	86	217	
10	0	0	0	0	556	521	86	214	
11	0	0	0	0	496	516	86	217	
12	0	0	0	0	489	515	86	217	
13	0	0	0	0	487	508	86	216	
14	0	0	0	0	478	506	87	216	
15	0	0	0	0	473	505	87	216	
0	0	0	0	0	493	507	86	215	
1	0	0	0	0	517	509	87	215	
2	0	0	0	0	516	512	88	217	
3	0	0	0	0	502	508	88	216	
4	0	0	0	0	499	512	88	216	
5	0	0	0	0	506	512	89	215	
6	0	0	0	0	546	511	89	213	
7	0	0	0	0	483	507	88	214	
8	0	0	0	0	505	503	89	215	
9	0	0	0	0	564	507	89	215	
10	0	0	0	0	531	509	89	216	
11	0	0	0	0	520	508	89	214	
12	0	0	0	0	538	514	89	215	
13	0	0	0	0	511	508	89	216	
14	0	0	0	0	518	506	90	216	
15	0	0	0	0	496	509	88	217	
0	0	0	0	0	465	507	89	217	
1	0	0	0	0	443	502	89	218	
2	0	0	0	0	461	505	89	217	
3	0	0	0	0	499	506	89	218	
4	0	0	0	0	515	503	89	215	
5	0	0	0	0	543	509	89	216	
6	0	0	0	0	550	513	88	216	
7	0	0	0	0	523	514	87	216	
8	0	0	0	0	530	512	88	217	
9	0	0	0	0	543	513	88	215	
10	0	0	0	0	521	512	87	216	
11	0	0	0	0	464	504	87	216	
12	0	0	0	0	458	499	88	216	
13	0	0	0	0	502	500	88	216	
14	0	0	0	0	530	503	87	216	
15	0	0	0	0	618	505	87	214	
0	0	0	0	0	596	519	86	214	
1	0	0	0	0	460	512	87	213	
2	0	0	0	0	455	510	85	214	
3	0	0	0	0	501	515	84	213	
4	0	0	0	0	542	508	86	213	
5	0	0	0	0	548	504	85	213	
6	0	0	0	0	519	501	84	211	
7	0	0	0	0	469	503	83	212	
8	0	0	0	0	436	500	83	213	
9	0	0	0	0	454	504	82	214	
10	0	0	0	0	496	504	83	213	
11	0	0	0	0	567	506	83	212	
12	0	0	0	0	627	512	85	213	
13	0	0	0	0	595	516	85	212	
14	0	0	0	0	520	520	85	213	
15	0	0	0	0	457	512	84	212	
0	0	0	0	0	472	508	83	211	
1	0	0	0	0	455	511	85	212	
2	0	0	0	0	487	505	83	214	
3	0	0	0	0	520	508	83	215	
4	0	0	0	0	498	506	81	212	
5	0	0	0	0	509	507	81	213	
6	0	0	0	0	538	504	81	214	
7	0	0	0	0	499	508	80	212	
8	0	0	0	0	507	512	81	212	
9	0	0	0	0	553	506	82	211	
10	0	0	0	0	543	515	83	211	
11	0	0	0	0	525	512	82	211	
12	0	0	0	0	508	512	82	211	
13	0	0	0	0	500	513	81	211	
14	0	0	0	0	495	508	79	211	
15	0	0	0	0	480	494	79	210	
0	0	0	0	0	472	494	79	209	
1	0	0	0	0	483	503	78	210	
2	0	0	0	0	502	501	79	209	
3	0	0	0	0	519	513	79	210	
4	0	0	0	0	541	509	79	209	
5	0	0	0	0	515	507	79	208	
6	0	0	0	0	492	508	79	208	
7	0	0	0	0	472	509	79	208	
8	0	0	0	0	456	512	78	208	
9	0	0	0	0	527	510	79	208	
10	0	0	0	0	571	499	78	208	
11	0	0	0	0	545	511	79	208	
12	0	0	0	0	489	496	78	209	
13	0	0	0	0	487	499	78	209	
14	0	0	0	0	530	508	79	208	
15	0	0	0	0	588	514	79	208	
0	0	0	0	0	552	517	78	208	
1	0	0	0	0	536	520	80	209	
2	0	0	0	0	546	521	79	208	
3	0	0	0	0	535	519	79	207	
4	0	0	0	0	513	505	78	207	
5	0	0	0	0	505	501	78	207	
6	0	0	0	0	506	499	79	206	
7	0	0	0	0	455	502	78	206	
8	0	0	0	0	443	497	79	207	
9	0	0	0	0	446	511	79	207	
10	0	0	0	0	476	508	80	207	
11	0	0	0	0	538	515	79	207	
12	0	0	0	0	565	523	79	207	
13	0	0	0	0	497	510	79	205	
14	0	0	0	0	504	503	79	205	
15	0	0	0	0	491	506	78	205	
0	0	0	0	0	494	500	79	205	
1	0	0	0	0	499	502	79	204	
2	0	0	0	0	488	507	79	205	
3	0	0	0	0	508	505	79	205	
4	0	0	0	0	530	500	80	204	
5	0	0	0	0	525	502	78	203	
6	0	0	0	0	503	504	79	205	
7	0	0	0	0	508	505	78	203	
8	0	0	0	0	577	514	79	202	
9	0	0	0	0	569	511	79	203	
10	0	0	0	0	543	511	79	203	
11	0	0	0	0	496	519	81	203	
12	0	0	0	0	492	511	79	202	
13	0	0	0	0	516	507	79	203	
14	0	0	0	0	554	513	79	203	
15	0	0	0	0	472	517	79	201	
0	0	0	0	0	447	520	80	202	
1	0	0	0	0	478	518	79	202	
2	0	0	0	0	500	509	80	199	
3	0	0	0	0	514	495	78	198	
4	0	0	0	0	557	494	79	197	
5	0	0	0	0	533	497	78	197	
6	0	0	0	0	472	503	79	197	
7	0	0	0	0	465	504	81	199	
8	0	0	0	0	481	514	81	197	
9	0	0	0	0	518	519	80	198	
10	0	0	0	0	545	511	81	196	
11	0	0	0	0	535	499	83	197	
12	0	0	0	0	529	493	81	197	
13	0	0	0	0	507	501	82	198	
14	0	0	0	0	448	500	81	195	
15	0	0	0	0	478	516	81	195	
0	0	0	0	0	549	519	83	196	
1	0	0	0	0	598	515	83	196	
2	0	0	0	0	578	517	83	196	
3	0	0	0	0	560	516	83	195	
4	0	0	0	0	543	504	84	196	
5	0	0	0	0	510	499	84	197	
6	0	0	0	0	496	510	82	197	
7	0	0	0	0	475	508	83	197	
8	0	0	0	0	514	510	84	198	
9	0	0	0	0	535	508	83	196	
10	0	0	0	0	463	511	83	196	
11	0	0	0	0	427	505	83	198	
12	0	0	0	0	462	499	82	196	
13	0	0	0	0	490	504	82	196	
14	0	0	0	0	525	510	82	194	
15	0	0	0	0	499	514	81	195	
0	0	0	0	0	524	508	82	196	
1	0	0	0	0	537	512	81	194	
2	0	0	0	0	547	517	83	196	
3	0	0	0	0	530	510	83	196	
4	0	0	0	0	520	503	82	197	
5	0	0	0	0	482	503	81	195	
6	0	0	0	0	487	503	82	197	
7	0	0	0	0	443	502	81	197	
8	0	0	0	0	470	504	82	196	
9	0	0	0	0	517	509	81	198	
10	0	0	0	0	531	507	82	198	
11	0	0	0	0	547	510	82	199	
12	0	0	0	0	570	518	82	198	
13	0	0	0	0	603	518	82	198	
14	0	0	0	0	580	511	81	198	
15	0	0	0	0	521	511	83	197	
0	0	0	0	0	465	513	83	198	
1	0	0	0	0	447	507	82	199	
2	0	0	0	0	460	507	82	197	
3	0	0	0	0	452	504	82	199	
4	0	0	0	0	455	509	82	199	
5	0	0	0	0	506	499	82	198	
6	0	0	0	0	502	505	82	197	
7	0	0	0	0	508	505	81	199	
8	0	0	0	0	579	500	82	201	
9	0	0	0	0	637	508	81	199	
10	0	0	0	0	583	520	81	199	
11	0	0	0	0	548	512	82	199	
12	0	0	0	0	509	504	81	202	
13	0	0	0	0	446	502	81	202	
14	0	0	0	0	406	498	82	203	
15	0	0	0	0	451	506	82	203	
0	0	0	0	0	487	515	83	202	
1	0	0	0	0	568	512	82	203	
2	0	0	0	0	563	511	82	201	
3	0	0	0	0	548	509	81	203	
4	0	0	0	0	508	511	82	200	
5	0	0	0	0	509	514	82	199	
6	0	0	0	0	521	506	83	196	
7	0	0	0	0	507	504	82	174	
8	0	0	0	0	487	502	82	174	
9	0	0	0	0	460	499	83	174	
10	0	0	0	0	453	510	82	174	
11	0	0	0	0	467	506	82	174	
12	0	0	0	0	472	502	82	173	
13	0	0	0	0	522	514	82	174	
14	0	0	0	0	557	511	81	173	
15	0	0	0	0	623	513	81	173	
0	0	0	0	0	567	515	81	172	
1	0	0	0	0	506	523	81	173	
2	0	0	0	0	472	519	81	172	
3	0	0	0	0	472	509	81	171	
4	0	0	0	0	493	506	81	172	
5	0	0	0	0	494	498	81	172	
6	0	0	0	0	483	497	81	172	
7	0	0	0	0	522	495	80	172	
8	0	0	0	0	562	501	80	172	
9	0	0	0	0	573	506	81	171	
10	0	0	0	0	485	508	81	171	
11	0	0	0	0	401	502	80	171	
12	0	0	0	0	421	498	81	169	
13	0	0	0	0	531	506	81	169	
14	0	0	0	0	637	518	80	167	
15	0	0	0	0	561	519	81	168	
0	0	0	0	0	546	527	81	167	
1	0	0	0	0	512	527	79	166	
2	0	0	0	0	493	519	79	167	
3	0	0	0	0	520	504	80	165	
4	0	0	0	0	558	501	80	166	
5	0	0	0	0	475	496	79	167	
6	0	0	0	0	492	491	80	166	
7	0	0	0	0	527	505	79	164	
8	0	0	0	0	487	507	77	166	
9	0	0	0	0	485	505	80	165	
10	0	0	0	0	524	510	81	167	
11	0	0	0	0	527	512	81	165	
12	0	0	0	0	544	507	81	166	
13	0	0	0	0	543	503	81	164	
14	0	0	0	0	501	514	81	164	
15	0	0	0	0	456	513	82	163	
0	0	0	0	0	447	507	82	165	
1	0	0	0	0	483	514	83	165	
2	0	0	0	0	497	508	81	163	
3	0	0	0	0	497	502	80	164	
4	0	0	0	0	529	502	82	162	
5	0	0	0	0	599	519	81	163	
6	0	0	0	0	570	521	81	160	
7	0	0	0	0	507	503	81	157	
8	0	0	0	0	460	505	81	155	
9	0	0	0	0	471	510	81	156	
10	0	0	0	0	477	508	81	157	
11	0	0	0	0	457	504	80	158	
12	0	0	0	0	465	496	80	156	
13	0	0	0	0	445	500	79	156	
14	0	0	0	0	504	504	80	157	
15	0	0	0	0	619	505	80	157	
0	0	0	0	0	611	510	81	156	
1	0	0	0	0	584	517	82	156	
2	0	0	0	0	526	511	82	154	
3	0	0	0	0	469	513	81	157	
4	0	0	0	0	511	511	81	156	
5	0	0	0	0	536	511	81	156	
6	0	0	0	0	494	511	82	156	
7	0	0	0	0	520	506	82	158	
8	0	0	0	0	483	497	80	157	
9	0	0	0	0	464	506	81	158	
10	0	0	0	0	531	508	81	156	
11	0	0	0	0	545	508	81	156	
12	0	0	0	0	526	511	80	156	
13	0	0	0	0	572	515	80	157	
14	0	0	0	0	542	506	81	156	
15	0	0	0	0	470	498	80	157	
0	0	0	0	0	432	513	81	156	
1	0	0	0	0	439	505	80	156	
2	0	0	0	0	504	503	81	156	
3	0	0	0	0	462	517	81	156	
4	0	0	0	0	460	520	82	155	
5	0	0	0	0	547	510	81	155	
6	0	0	0	0	592	503	82	153	
7	0	0	0	0	591	510	82	153	
8	0	0	0	0	561	507	83	152	
9	0	0	0	0	534	504	83	152	
10	0	0	0	0	452	496	81	151	
11	0	0	0	0	441	502	82	150	
12	0	0	0	0	459	511	82	150	
13	0	0	0	0	412	508	83	150	
14	0	0	0	0	405	508	82	150	
15	0	0	0	0	396	506	81	150	
0	0	0	0	0	447	504	80	149	
1	0	0	0	0	686	509	81	149	
2	0	0	0	0	836	512	80	150	
3	0	0	0	0	715	520	82	149	
4	0	0	0	0	596	518	81	149	
5	0	0	0	0	460	506	80	148	
6	0	0	0	0	459	511	81	149	
7	0	0	0	0	500	508	80	149	
8	0	0	0	0	489	510	81	149	
9	0	0	0	0	454	507	83	148	
10	0	0	0	0	470	506	81	147	
11	0	0	0	0	479	509	82	149	
12	0	0	0	0	460	498	80	149	
13	0	0	0	0	417	497	82	148	
14	0	0	0	0	444	497	82	148	
15	0	0	0	0	490	511	80	149	
0	0	0	0	0	515	510	80	148	
1	0	0	0	0	604	511	81	150	
2	0	0	0	0	668	515	80	149	
3	0	0	0	0	591	512	79	150	
4	0	0	0	0	500	505	81	149	
5	0	0	0	0	447	510	80	149	
6	0	0	0	0	428	505	80	149	
7	0	0	0	0	432	497	81	149	
8	0	0	0	0	462	498	80	149	
9	0	0	0	0	512	500	79	149	
10	0	0	0	0	611	506	78	149	
11	0	0	0	0	531	513	79	150	
12	0	0	0	0	447	516	78	145	
13	0	0	0	0	431	514	78	145	
14	0	0	0	0	541	512	78	146	
15	0	0	0	0	689	512	79	146	
0	0	0	0	0	622	517	79	145	
1	0	0	0	0	481	514	79	145	
2	0	0	0	0	412	512	79	145	
3	0	0	0	0	435	508	78	145	
4	0	0	0	0	457	505	80	145	
5	0	0	0	0	497	507	79	145	
6	0	0	0	0	562	506	79	144	
7	0	0	0	0	543	511	79	145	
8	0	0	0	0	506	513	79	144	
9	0	0	0	0	505	510	78	144	
10	0	0	0	0	503	515	78	144	
11	0	0	0	0	464	501	72	144	
12	0	0	0	0	454	496	73	144	
13	0	0	0	0	475	501	72	143	
14	0	0	0	0	535	502	73	143	
15	0	0	0	0	620	511	72	144	
0	0	0	0	0	603	507	73	143	
1	0	0	0	0	536	492	71	144	
2	0	0	0	0	451	499	71	143	
3	0	0	0	0	426	507	72	142	
4	0	0	0	0	476	513	72	143	
5	0	0	0	0	544	508	72	142	
6	0	0	0	0	546	509	72	143	
7	0	0	0	0	579	516	72	142	
8	0	0	0	0	573	516	70	143	
9	0	0	0	0	519	510	73	143	
10	0	0	0	0	454	510	73	142	
11	0	0	0	0	411	508	72	140	
12	0	0	0	0	464	514	70	141	
13	0	0	0	0	527	515	70	141	
14	0	0	0	0	514	510	70	140	
15	0	0	0	0	574	511	68	140	
0	0	0	0	0	632	513	69	141	
1	0	0	0	0	572	508	65	142	
2	0	0	0	0	478	499	65	143	
3	0	0	0	0	441	497	64	144	
4	0	0	0	0	444	515	65	142	
5	0	0	0	0	452	508	65	144	
6	0	0	0	0	497	508	66	144	
7	0	0	0	0	555	514	63	145	
8	0	0	0	0	552	508	63	144	
9	0	0	0	0	551	496	65	142	
10	0	0	0	0	509	502	65	141	
11	0	0	0	0	482	501	66	141	
12	0	0	0	0	474	507	66	141	
13	0	0	0	0	456	515	65	143	
14	0	0	0	0	449	514	65	142	
15	0	0	0	0	476	509	66	142	
0	0	0	0	0	455	500	65	141	
1	0	0	0	0	512	506	67	141	
2	0	0	0	0	643	503	67	141	
3	0	0	0	0	642	496	66	143	
4	0	0	0	0	563	505	65	141	
5	0	0	0	0	507	506	64	142	
6	0	0	0	0	466	514	65	141	
7	0	0	0	0	460	516	64	139	
8	0	0	0	0	477	517	67	138	
9	0	0	0	0	504	515	67	139	
10	0	0	0	0	472	511	67	139	
11	0	0	0	0	510	505	68	139	
12	0	0	0	0	577	508	69	138	
13	0	0	0	0	591	517	67	140	
14	0	0	0	0	534	523	69	139	
15	0	0	0	0	487	513	67	138	
0	0	0	0	0	501	508	68	139	
1	0	0	0	0	440	507	69	138	
2	0	0	0	0	444	490	67	137	
3	0	0	0	0	570	487	66	138	
4	0	0	0	0	582	502	67	138	
5	0	0	0	0	545	512	67	138	
6	0	0	0	0	516	511	64	138	
7	0	0	0	0	510	509	67	138	
8	0	0	0	0	489	508	68	138	
9	0	0	0	0	465	505	67	140	
10	0	0	0	0	444	507	65	138	
11	0	0	0	0	452	507	65	139	
12	0	0	0	0	489	508	63	139	
13	0	0	0	0	523	511	66	140	
14	0	0	0	0	630	508	65	139	
15	0	0	0	0	629	508	66	139	
0	0	0	0	0	510	507	73	138	
1	0	0	0	0	485	508	73	139	
2	0	0	0	0	559	515	72	139	
3	0	0	0	0	531	515	73	140	
4	0	0	0	0	484	504	74	139	
5	0	0	0	0	447	508	77	139	
6	0	0	0	0	458	508	76	138	
7	0	0	0	0	495	513	74	139	
8	0	0	0	0	446	513	73	139	
9	0	0	0	0	465	510	71	138	
10	0	0	0	0	498	507	74	139	
11	0	0	0	0	524	507	76	138	
12	0	0	0	0	505	503	76	138	
13	0	0	0	0	514	502	78	140	
14	0	0	0	0	537	504	80	139	
15	0	0	0	0	501	508	81	139	
0	0	0	0	0	424	508	81	140	
1	0	0	0	0	415	501	86	140	
2	0	0	0	0	494	501	89	140	
3	0	0	0	0	562	505	88	139	
4	0	0	0	0	746	517	89	141	
5	0	0	0	0	629	531	90	141	
6	0	0	0	0	564	527	90	141	
7	0	0	0	0	535	510	85	141	
8	0	0	0	0	447	495	84	142	
9	0	0	0	0	476	493	85	143	
10	0	0	0	0	522	501	86	142	
11	0	0	0	0	531	508	86	143	
12	0	0	0	0	520	511	88	141	
13	0	0	0	0	444	508	87	142	
14	0	0	0	0	458	505	87	142	
15	0	0	0	0	484	505	86	144	
0	0	0	0	0	469	504	88	144	
1	0	0	0	0	507	510	87	142	
2	0	0	0	0	584	512	85	143	
3	0	0	0	0	537	515	86	143	
4	0	0	0	0	499	509	86	142	
5	0	0	0	0	496	514	87	143	
6	0	0	0	0	505	505	87	144	
7	0	0	0	0	510	496	87	143	
8	0	0	0	0	517	500	88	143	
9	0	0	0	0	516	510	88	143	
10	0	0	0	0	499	507	87	143	
11	0	0	0	0	526	510	88	143	
12	0	0	0	0	528	512	89	144	
13	0	0	0	0	501	511	90	143	
14	0	0	0	0	491	508	89	143	
15	0	0	0	0	491	508	91	145	
0	0	0	0	0	469	514	89	142	
1	0	0	0	0	442	514	89	141	
2	0	0	0	0	464	512	89	142	
3	0	0	0	0	542	511	90	142	
4	0	0	0	0	527	508	89	142	
5	0	0	0	0	539	500	88	142	
6	0	0	0	0	571	499	89	141	
7	0	0	0	0	628	504	89	142	
8	0	0	0	0	551	505	89	142	
9	0	0	0	0	528	514	91	142	
10	0	0	0	0	534	514	91	142	
11	0	0	0	0	468	504	92	142	
12	0	0	0	0	454	494	94	142	
13	0	0	0	0	454	503	94	142	
14	0	0	0	0	448	508	96	143	
15	0	0	0	0	491	513	99	142	
0	0	0	0	0	521	514	101	142	
1	0	0	0	0	402	510	102	142	
2	0	0	0	0	453	507	101	142	
3	0	0	0	0	553	505	102	143	
4	0	0	0	0	571	511	101	143	
5	0	0	0	0	585	513	103	144	
6	0	0	0	0	666	517	104	143	
7	0	0	0	0	543	517	105	144	
8	0	0	0	0	493	518	103	144	
9	0	0	0	0	469	513	103	144	
10	0	0	0	0	475	506	104	143	
11	0	0	0	0	512	504	103	143	
12	0	0	0	0	563	509	103	144	
13	0	0	0	0	532	496	103	144	
14	0	0	0	0	502	482	103	144	
15	0	0	0	0	507	503	103	143	
0	0	0	0	0	491	523	104	144	
1	0	0	0	0	470	509	105	141	
2	0	0	0	0	463	502	104	142	
3	0	0	0	0	482	498	103	141	
4	0	0	0	0	534	499	105	140	
5	0	0	0	0	516	503	105	142	
6	0	0	0	0	501	512	103	142	
7	0	0	0	0	480	521	105	142	
8	0	0	0	0	488	520	106	142	
9	0	0	0	0	500	515	105	141	
10	0	0	0	0	539	502	106	143	
11	0	0	0	0	585	504	105	142	
12	0	0	0	0	543	501	105	143	
13	0	0	0	0	490	510	104	142	
14	0	0	0	0	453	511	106	144	
15	0	0	0	0	432	506	105	143	
0	0	0	0	0	434	502	106	143	
1	0	0	0	0	501	511	106	142	
2	0	0	0	0	569	513	107	143	
3	0	0	0	0	532	513	106	143	
4	0	0	0	0	617	504	107	143	
5	0	0	0	0	558	509	105	143	
6	0	0	0	0	498	515	103	143	
7	0	0	0	0	567	509	101	142	
8	0	0	0	0	535	501	102	142	
9	0	0	0	0	490	500	103	143	
10	0	0	0	0	508	511	100	143	
11	0	0	0	0	478	513	100	143	
12	0	0	0	0	482	504	100	143	
13	0	0	0	0	473	508	100	143	
14	0	0	0	0	568	512	102	142	
15	0	0	0	0	524	512	101	142	
0	0	0	0	0	507	508	103	142	
1	0	0	0	0	518	508	105	142	
2	0	0	0	0	514	500	104	142	
3	0	0	0	0	511	505	104	142	
4	0	0	0	0	503	513	104	141	
5	0	0	0	0	481	514	103	141	
6	0	0	0	0	489	511	99	141	
7	0	0	0	0	486	508	100	142	
8	0	0	0	0	489	506	102	142	
9	0	0	0	0	465	508	104	141	
10	0	0	0	0	443	505	106	141	
11	0	0	0	0	455	499	104	142	
12	0	0	0	0	495	503	106	141	
13	0	0	0	0	609	503	103	141	
14	0	0	0	0	665	511	103	140	
15	0	0	0	0	554	509	104	141	
0	0	0	0	0	494	511	105	141	
1	0	0	0	0	524	505	105	141	
2	0	0	0	0	516	511	107	140	
3	0	0	0	0	496	518	107	141	
4	0	0	0	0	471	512	107	141	
5	0	0	0	0	431	505	109	140	
6	0	0	0	0	417	503	112	140	
7	0	0	0	0	423	504	111	139	
8	0	0	0	0	522	513	113	139	
9	0	0	0	0	561	508	115	139	
10	0	0	0	0	587	504	115	140	
11	0	0	0	0	647	504	115	140	
12	0	0	0	0	740	510	116	139	
13	0	0	0	0	663	521	117	141	
14	0	0	0	0	456	512	118	141	
15	0	0	0	0	396	513	117	140	
0	0	0	0	0	417	507	118	140	
1	0	0	0	0	438	500	118	141	
2	0	0	0	0	469	500	119	141	
3	0	0	0	0	474	510	118	140	
4	0	0	0	0	482	509	118	141	
5	0	0	0	0	494	508	119	140	
6	0	0	0	0	497	507	118	141	
7	0	0	0	0	519	503	118	140	
8	0	0	0	0	538	502	119	140	
9	0	0	0	0	536	500	117	140	
10	0	0	0	0	519	510	118	140	
11	0	0	0	0	495	513	118	139	
12	0	0	0	0	484	516	118	140	
13	0	0	0	0	480	512	119	139	
14	0	0	0	0	481	510	119	139	
15	0	0	0	0	491	507	120	139	
0	0	0	0	0	534	508	120	140	
1	0	0	0	0	600	517	122	138	
2	0	0	0	0	543	516	119	139	
3	0	0	0	0	505	502	122	139	
4	0	0	0	0	510	501	122	139	
5	0	0	0	0	509	506	123	138	
6	0	0	0	0	509	509	122	137	
7	0	0	0	0	499	504	123	138	
8	0	0	0	0	495	504	123	136	
9	0	0	0	0	484	511	124	137	
10	0	0	0	0	476	510	123	135	
11	0	0	0	0	458	511	121	136	
12	0	0	0	0	492	507	119	136	
13	0	0	0	0	573	510	118	135	
14	0	0	0	0	585	506	119	136	
15	0	0	0	0	556	503	119	135	
0	0	0	0	0	518	504	121	135	
1	0	0	0	0	502	506	124	134	
2	0	0	0	0	463	507	124	135	
3	0	0	0	0	471	509	124	135	
4	0	0	0	0	479	503	124	136	
5	0	0	0	0	507	505	122	135	
6	0	0	0	0	592	515	123	135	
7	0	0	0	0	612	514	123	135	
8	0	0	0	0	579	513	124	135	
9	0	0	0	0	511	519	123	135	
10	0	0	0	0	501	518	125	135	
11	0	0	0	0	474	503	126	135	
12	0	0	0	0	469	505	129	135	
13	0	0	0	0	473	508	130	134	
14	0	0	0	0	473	497	133	135	
15	0	0	0	0	499	496	132	135	
0	0	0	0	0	504	501	132	135	
1	0	0	0	0	503	504	132	135	
2	0	0	0	0	511	514	134	135	
3	0	0	0	0	530	517	134	135	
4	0	0	0	0	539	511	135	133	
5	0	0	0	0	523	503	136	132	
6	0	0	0	0	524	503	137	132	
7	0	0	0	0	528	511	138	132	
8	0	0	0	0	511	519	138	132	
9	0	0	0	0	470	507	138	132	
10	0	0	0	0	459	505	137	132	
11	0	0	0	0	486	509	136	131	
12	0	0	0	0	508	508	138	130	
13	0	0	0	0	514	509	139	131	
14	0	0	0	0	506	505	138	129	
15	0	0	0	0	508	508	138	129	
0	0	0	0	0	524	509	137	129	
1	0	0	0	0	510	511	134	129	
2	0	0	0	0	502	507	137	128	
3	0	0	0	0	501	507	133	129	
4	0	0	0	0	519	512	134	128	
5	0	0	0	0	571	508	137	127	
6	0	0	0	0	537	504	138	127	
7	0	0	0	0	513	507	142	127	
8	0	0	0	0	508	510	141	126	
9	0	0	0	0	506	510	139	126	
10	0	0	0	0	513	509	137	126	
11	0	0	0	0	517	508	143	126	
12	0	0	0	0	522	505	141	126	
13	0	0	0	0	519	503	139	125	
14	0	0	0	0	508	504	143	125	
15	0	0	0	0	504	510	140	125	
0	0	0	0	0	505	511	142	126	
1	0	0	0	0	494	511	141	125	
2	0	0	0	0	486	508	142	126	
3	0	0	0	0	486	507	142	124	
4	0	0	0	0	496	509	143	124	
5	0	0	0	0	505	506	142	124	
6	0	0	0	0	515	507	141	124	
7	0	0	0	0	531	510	143	124	
8	0	0	0	0	534	508	145	124	
9	0	0	0	0	518	506	150	124	
10	0	0	0	0	509	508	148	124	
11	0	0	0	0	499	511	149	124	
12	0	0	0	0	504	508	149	124	
13	0	0	0	0	518	509	148	124	
14	0	0	0	0	539	507	149	124	
15	0	0	0	0	541	508	147	124	
0	0	0	0	0	532	508	142	123	
1	0	0	0	0	491	508	141	124	
2	0	0	0	0	481	505	139	123	
3	0	0	0	0	487	506	137	123	
4	0	0	0	0	501	507	140	122	
5	0	0	0	0	524	510	137	122	
6	0	0	0	0	534	512	134	121	
7	0	0	0	0	530	510	133	120	
8	0	0	0	0	507	508	130	119	
9	0	0	0	0	494	509	133	117	
10	0	0	0	0	501	508	133	117	
11	0	0	0	0	499	506	128	116	
12	0	0	0	0	504	505	126	113	
13	0	0	0	0	507	507	127	113	
14	0	0	0	0	500	508	128	110	
15	0	0	0	0	503	506	125	106	
0	0	0	0	0	519	506	125	105	
1	0	0	0	0	511	508	126	101	
2	0	0	0	0	528	506	123	98	
3	0	0	0	0	547	508	121	97	
4	0	0	0	0	539	508	120	97	
5	0	0	0	0	500	508	118	92	
6	0	0	0	0	503	508	117	90	
7	0	0	0	0	505	508	118	88	
8	0	0	0	0	499	510	111	87	
9	0	0	0	0	505	508	111	87	
10	0	0	0	0	510	508	111	83	
11	0	0	0	0	520	508	112	82	
12	0	0	0	0	491	508	110	80	
13	0	0	0	0	505	507	111	77	
14	0	0	0	0	521	510	112	75	
15	0	0	0	0	512	508	112	72	
0	0	0	0	0	510	506	112	71	
1	0	0	0	0	510	507	107	71	
2	0	0	0	0	510	508	108	69	
3	0	0	0	0	512	506	105	64	
4	0	0	0	0	512	507	103	63	
5	0	0	0	0	512	507	104	61	
6	0	0	0	0	515	507	105	60	
7	0	0	0	0	517	508	104	57	
8	0	0	0	0	515	508	100	59	
9	0	0	0	0	513	508	99	56	
10	0	0	0	0	508	508	97	55	
11	0	0	0	0	503	510	97	44	
12	0	0	0	0	503	511	99	40	
13	0	0	0	0	505	513	97	28	
14	0	0	0	0	512	513	99	19	
15	0	0	0	0	512	508	97	30	
0	0	0	0	0	503	498	95	23	
1	0	0	0	0	502	503	93	22	
2	0	0	0	0	501	503	93	11	
3	0	0	0	0	502	503	88	11	
4	0	0	0	0	491	498	85	0	
5	0	0	0	0	504	509	86	0	
6	0	0	0	0	528	515	89	0	
7	0	0	0	0	539	512	91	0	
8	0	0	0	0	529	512	89	0	
9	0	0	0	0	518	511	90	0	
10	0	0	0	0	531	509	88	0	
11	0	0	0	0	520	507	87	0	
12	0	0	0	0	518	505	86	0	
13	0	0	0	0	526	509	87	0	
14	0	0	0	0	523	508	87	0	
15	0	0	0	0	512	508	84	0	
0	0	0	0	0	509	507	85	0	
1	0	0	0	0	495	511	79	0	
2	0	0	0	0	496	507	77	0	
3	0	0	0	0	497	508	75	0	
4	0	0	0	0	493	510	77	0	
5	0	0	0	0	489	510	76	0	
6	0	0	0	0	497	506	75	0	
7	0	0	0	0	508	509	75	0	
8	0	0	0	0	512	508	76	0	
9	0	0	0	0	511	508	78	0	
10	0	0	0	0	515	508	78	0	
11	0	0	0	0	518	507	78	0	
12	0	0	0	0	521	509	78	0	
13	0	0	0	0	517	507	77	0	
14	0	0	0	0	515	508	78	0	
15	0	0	0	0	512	508	78	0	
0	0	0	0	0	505	508	77	0	
1	0	0	0	0	512	505	78	0	
2	0	0	0	0	519	506	78	0	
3	0	0	0	0	541	509	76	0	
4	0	0	0	0	525	507	76	0	
5	0	0	0	0	507	505	75	0	
6	0	0	0	0	503	509	74	0	
7	0	0	0	0	508	508	76	0	
8	0	0	0	0	503	509	75	0	
9	0	0	0	0	499	505	74	0	
10	0	0	0	0	502	508	77	0	
11	0	0	0	0	504	508	76	0	
12	0	0	0	0	512	507	76	0	
13	0	0	0	0	514	507	78	0	
14	0	0	0	0	515	509	78	0	
15	0	0	0	0	517	509	78	0	
0	0	0	0	0	513	509	77	0	
1	0	0	0	0	514	508	78	0	
2	0	0	0	0	513	505	79	0	
3	0	0	0	0	512	508	79	0	
4	0	0	0	0	511	509	78	0	
5	0	0	0	0	517	508	78	0	
6	0	0	0	0	512	508	77	0	
7	0	0	0	0	511	509	75	0	
8	0	0	0	0	507	511	73	0	
9	0	0	0	0	503	507	72	0	
10	0	0	0	0	505	507	73	0	
11	0	0	0	0	512	508	73	0	
12	0	0	0	0	511	508	71	0	
13	0	0	0	0	518	511	73	0	
14	0	0	0	0	514	508	73	0	
15	0	0	0	0	500	508	72	0	
0	0	0	0	0	494	506	73	0	
1	0	0	0	0	504	508	72	0	
2	0	0	0	0	507	506	72	0	
3	0	0	0	0	520	505	71	0	
4	0	0	0	0	534	508	67	0	
5	0	0	0	0	528	508	66	0	
6	0	0	0	0	520	508	65	0	
7	0	0	0	0	514	509	62	0	
8	0	0	0	0	504	508	65	0	
9	0	0	0	0	510	511	65	0	
10	0	0	0	0	516	509	65	0	
11	0	0	0	0	511	510	63	0	
12	0	0	0	0	507	506	61	0	
13	0	0	0	0	505	505	61	0	
14	0	0	0	0	504	505	62	0	
15	0	0	0	0	504	508	61	0	
0	0	0	0	0	502	510	61	0	
1	0	0	0	0	502	509	59	0	
2	0	0	0	0	507	507	61	0	
3	0	0	0	0	505	507	58	0	
4	0	0	0	0	512	508	58	0	
5	0	0	0	0	516	507	59	0	
6	0	0	0	0	519	505	58	0	
7	0	0	0	0	517	508	57	0	
8	0	0	0	0	516	509	59	0	
9	0	0	0	0	516	508	59	0	
10	0	0	0	0	515	507	58	0	
11	0	0	0	0	511	507	56	0	
12	0	0	0	0	512	508	56	0	
13	0	0	0	0	515	510	56	0	
14	0	0	0	0	512	508	56	0	
15	0	0	0	0	507	511	55	0	
0	0	0	0	0	504	508	54	0	
1	0	0	0	0	502	508	55	0	
2	0	0	0	0	502	509	52	0	
3	0	0	0	0	506	507	50	0	
4	0	0	0	0	509	509	51	0	
5	0	0	0	0	510	508	49	0	
6	0	0	0	0	508	507	47	0	
7	0	0	0	0	508	509	46	0	
8	0	0	0	0	511	507	47	0	
9	0	0	0	0	518	509	46	0	
10	0	0	0	0	515	510	46	0	
11	0	0	0	0	521	508	45	0	
12	0	0	0	0	519	506	43	0	
13	0	0	0	0	516	505	37	0	
14	0	0	0	0	513	508	35	0	
15	0	0	0	0	515	508	34	0	
0	0	0	0	0	509	505	33	0	
1	0	0	0	0	508	507	31	0	
2	0	0	0	0	511	507	28	0	
3	0	0	0	0	516	509	27	0	
4	0	0	0	0	519	509	25	0	
5	0	0	0	0	504	507	23	0	
6	0	0	0	0	499	508	23	0	
7	0	0	0	0	499	508	19	0	
8	0	0	0	0	502	510	14	0	
9	0	0	0	0	508	509	11	0	
10	0	0	0	0	509	510	7	0	
11	0	0	0	0	509	507	4	0	
12	0	0	0	0	511	508	0	0	
13	0	0	0	0	515	511	0	0	
14	0	0	0	0	518	508	0	0	
15	0	0	0	0	515	505	0	0	
0	0	0	0	0	515	507	0	0	
1	0	0	0	0	518	508	0	0	
2	0	0	0	0	519	508	0	0	
3	0	0	0	0	516	505	0	0	
4	0	0	0	0	513	509	0	0	
5	0	0	0	0	512	510	0	0	
6	0	0	0	0	508	513	0	0	
7	0	0	0	0	507	508	0	0	
8	0	0	0	0	506	507	0	0	
9	0	0	0	0	508	503	0	0	
10	0	0	0	0	508	508	0	0	
11	0	0	0	0	507	506	0	0	
12	0	0	0	0	505	509	0	0	
13	0	0	0	0	506	510	0	0	
14	0	0	0	0	508	509	0	0	
15	0	0	0	0	508	508	0	0	
0	0	0	0	0	511	508	0	0	
1	0	0	0	0	512	508	0	0	
2	0	0	0	0	511	506	0	0	
3	0	0	0	0	516	506	0	0	
4	0	0	0	0	524	509	0	0	
5	0	0	0	0	517	508	0	0	
6	0	0	0	0	519	506	0	0	
7	0	0	0	0	517	507	0	0	
8	0	0	0	0	513	507	0	0	
9	0	0	0	0	511	508	0	0	
10	0	0	0	0	508	507	0	0	
11	0	0	0	0	506	508	0	0	
12	0	0	0	0	507	509	0	0	
13	0	0	0	0	504	508	0	0	
14	0	0	0	0	511	511	0	0	
15	0	0	0	0	507	508	0	0	
0	0	0	0	0	499	508	0	0	
1	0	0	0	0	504	509	0	0	
2	0	0	0	0	504	509	0	0	
3	0	0	0	0	504	511	0	0	
4	0	0	0	0	512	511	0	0	
5	0	0	0	0	512	507	0	0	
6	0	0	0	0	518	507	0	0	
7	0	0	0	0	532	510	0	0	
8	0	0	0	0	524	508	0	0	
9	0	0	0	0	513	507	0	0	
10	0	0	0	0	517	506	0	0	
11	0	0	0	0	515	506	0	0	
12	0	0	0	0	509	507	0	0	
13	0	0	0	0	511	506	0	0	
14	0	0	0	0	508	507	0	0	
15	0	0	0	0	506	508	0	0	
0	0	0	0	0	505	509	0	0	
1	0	0	0	0	500	511	0	0	
2	0	0	0	0	504	509	0	0	
3	0	0	0	0	504	506	0	0	
4	0	0	0	0	505	507	0	0	
5	0	0	0	0	506	508	0	0	
6	0	0	0	0	511	507	0	0	
7	0	0	0	0	510	508	0	0	
8	0	0	0	0	512	508	0	0	
9	0	0	0	0	516	507	0	0	
10	0	0	0	0	518	508	0	0	
11	0	0	0	0	519	508	0	0	
12	0	0	0	0	521	508	0	0	
13	0	0	0	0	517	508	0	0	
14	0	0	0	0	520	505	0	0	
15	0	0	0	0	518	508	0	0	
0	0	0	0	0	513	509	0	0	
1	0	0	0	0	513	510	0	0	
2	0	0	0	0	508	509	0	0	
3	0	0	0	0	507	508	0	0	
4	0	0	0	0	505	508	0	0	
5	0	0	0	0	502	510	0	0	
6	0	0	0	0	500	508	0	0	
7	0	0	0	0	506	511	0	0	
8	0	0	0	0	505	507	0	0	
9	0	0	0	0	503	508	0	0	
10	0	0	0	0	506	507	0	0	
11	0	0	0	0	507	510	0	0	
12	0	0	0	0	513	508	0	0	
13	0	0	0	0	513	506	0	0	
14	0	0	0	0	516	507	0	0	
15	0	0	0	0	520	506	0	0	
0	0	0	0	0	522	508	0	0	
1	0	0	0	0	523	508	0	0	
2	0	0	0	0	522	510	0	0	
3	0	0	0	0	518	508	0	0	
4	0	0	0	0	515	508	0	0	
5	0	0	0	0	510	508	0	0	
6	0	0	0	0	507	508	0	0	
7	0	0	0	0	507	509	0	0	
8	0	0	0	0	507	509	0	0	
9	0	0	0	0	504	508	0	0	
10	0	0	0	0	501	508	0	0	
11	0	0	0	0	504	508	0	0	
12	0	0	0	0	504	510	0	0	
13	0	0	0	0	502	508	0	0	
14	0	0	0	0	506	509	0	0	
15	0	0	0	0	509	509	0	0	
0	0	0	0	0	514	508	0	0	
1	0	0	0	0	517	509	0	0	
2	0	0	0	0	513	512	0	0	
3	0	0	0	0	516	505	0	0	
4	0	0	0	0	518	506	0	0	
5	0	0	0	0	519	507	0	0	
6	0	0	0	0	520	509	0	0	
7	0	0	0	0	522	509	0	0	
8	0	0	0	0	515	507	0	0	
9	0	0	0	0	512	508	0	0	
10	0	0	0	0	508	507	0	0	
11	0	0	0	0	508	507	0	0	
12	0	0	0	0	508	507	0	0	
13	0	0	0	0	507	508	0	0	
14	0	0	0	0	503	508	0	0	
15	0	0	0	0	499	508	0	0	
0	0	0	0	0	501	508	0	0	
1	0	0	0	0	502	509	0	0	
2	0	0	0	0	508	508	0	0	
3	0	0	0	0	511	508	0	0	
4	0	0	0	0	515	508	0	0	
5	0	0	0	0	514	508	0	0	
6	0	0	0	0	515	508	0	0	
7	0	0	0	0	519	508	0	0	
8	0	0	0	0	516	508	0	0	
9	0	0	0	0	519	506	0	0	
10	0	0	0	0	519	505	0	0	
11	0	0	0	0	518	508	0	0	
12	0	0	0	0	515	510	0	0	
13	0	0	0	0	516	509	0	0	
14	0	0	0	0	507	510	0	0	
15	0	0	0	0	504	505	0	0	
0	0	0	0	0	505	508	0	0	
1	0	0	0	0	504	508	0	0	
2	0	0	0	0	502	507	0	0	
3	0	0	0	0	503	511	0	0	
4	0	0	0	0	501	508	0	0	
5	0	0	0	0	504	509	0	0	
6	0	0	0	0	504	509	0	0	
7	0	0	0	0	508	508	0	0	
8	0	0	0	0	513	508	0	0	
9	0	0	0	0	515	508	0	0	
10	0	0	0	0	518	505	0	0	
11	0	0	0	0	520	507	0	0	
12	0	0	0	0	519	504	0	0	
13	0	0	0	0	517	507	0	0	
14	0	0	0	0	519	507	0	0	
15	0	0	0	0	515	510	0	0	
0	0	0	0	0	512	507	0	0	
1	0	0	0	0	512	506	0	0	
2	0	0	0	0	511	508	0	0	
3	0	0	0	0	511	507	0	0	
4	0	0	0	0	513	510	0	0	
5	0	0	0	0	507	507	0	0	
6	0	0	0	0	503	509	0	0	
7	0	0	0	0	499	509	0	0	
8	0	0	0	0	501	507	0	0	
9	0	0	0	0	504	509	0	0	
10	0	0	0	0	505	508	0	0	
11	0	0	0	0	507	506	0	0	
12	0	0	0	0	512	507	0	0	
13	0	0	0	0	513	508	0	0	
14	0	0	0	0	516	507	0	0	
15	0	0	0	0	518	507	0	0	
0	0	0	0	0	523	507	0	0	
1	0	0	0	0	518	508	0	0	
2	0	0	0	0	519	508	0	0	
3	0	0	0	0	518	508	0	0	
4	0	0	0	0	517	510	0	0	
5	0	0	0	0	512	510	0	0	
6	0	0	0	0	508	508	0	0	
7	0	0	0	0	508	508	0	0	
8	0	0	0	0	504	509	0	0	
9	0	0	0	0	498	507	0	0	
10	0	0	0	0	503	509	0	0	
11	0	0	0	0	502	509	0	0	
12	0	0	0	0	502	508	0	0	
13	0	0	0	0	505	509	0	0	
14	0	0	0	0	510	508	0	0	
15	0	0	0	0	511	507	0	0	
0	0	0	0	0	515	507	0	0	
1	0	0	0	0	516	508	0	0	
2	0	0	0	0	516	509	0	0	
3	0	0	0	0	519	506	0	0	
4	0	0	0	0	521	507	0	0	
5	0	0	0	0	515	509	0	0	
6	0	0	0	0	518	508	0	0	
7	0	0	0	0	517	508	0	0	
8	0	0	0	0	514	507	0	0	
9	0	0	0	0	510	506	0	0	
10	0	0	0	0	511	507	0	0	
11	0	0	0	0	508	509	0	0	
12	0	0	0	0	505	507	0	0	
13	0	0	0	0	515	509	0	0	
14	0	0	0	0	508	510	0	0	
15	0	0	0	0	495	507	0	0	
0	0	0	0	0	500	508	0	0	
1	0	0	0	0	504	507	0	0	
2	0	0	0	0	505	509	0	0	
3	0	0	0	0	508	507	0	0	
4	0	0	0	0	511	508	0	0	
5	0	0	0	0	515	510	0	0	
6	0	0	0	0	517	507	0	0	
7	0	0	0	0	520	508	0	0	
8	0	0	0	0	519	506	0	0	
9	0	0	0	0	518	508	0	0	
10	0	0	0	0	517	505	0	0	
11	0	0	0	0	516	507	0	0	
12	0	0	0	0	517	508	0	0	
13	0	0	0	0	517	508	0	0	
14	0	0	0	0	507	508	0	0	
15	0	0	0	0	505	506	0	0	
0	0	0	0	0	504	508	0	0	
1	0	0	0	0	503	509	0	0	
2	0	0	0	0	504	510	0	0	
3	0	0	0	0	500	506	0	0	
4	0	0	0	0	502	509	0	0	
5	0	0	0	0	506	508	0	0	
6	0	0	0	0	508	510	0	0	
7	0	0	0	0	516	509	0	0	
8	0	0	0	0	513	507	0	0	
9	0	0	0	0	515	509	0	0	
10	0	0	0	0	517	509	0	0	
11	0	0	0	0	516	509	0	0	
12	0	0	0	0	516	508	0	0	
13	0	0	0	0	519	508	0	0	
14	0	0	0	0	518	508	0	0	
15	0	0	0	0	519	509	0	0	
0	0	0	0	0	517	505	0	0	
1	0	0	0	0	511	508	0	0	
2	0	0	0	0	504	508	0	0	
3	0	0	0	0	508	508	0	0	
4	0	0	0	0	520	511	0	0	
5	0	0	0	0	511	511	0	0	
6	0	0	0	0	495	505	0	0	
7	0	0	0	0	494	508	0	0	
8	0	0	0	0	502	506	0	0	
9	0	0	0	0	502	507	0	0	
10	0	0	0	0	508	508	0	0	
11	0	0	0	0	511	506	0	0	
12	0	0	0	0	519	508	0	0	
13	0	0	0	0	515	508	0	0	
14	0	0	0	0	513	507	0	0	
15	0	0	0	0	518	506	0	0	
0	0	0	0	0	521	508	0	0	
1	0	0	0	0	525	508	0	0	
2	0	0	0	0	519	507	0	0	
3	0	0	0	0	517	507	0	0	
4	0	0	0	0	511	509	0	0	
5	0	0	0	0	509	508	0	0	
6	0	0	0	0	503	509	0	0	
7	0	0	0	0	506	507	0	0	
8	0	0	0	0	511	508	0	0	
9	0	0	0	0	511	508	0	0	
10	0	0	0	0	501	507	0	0	
11	0	0	0	0	503	509	0	0	
12	0	0	0	0	499	509	0	0	
13	0	0	0	0	504	508	0	0	
14	0	0	0	0	505	509	0	0	
15	0	0	0	0	510	508	0	0	
0	0	0	0	0	519	509	0	0	
1	0	0	0	0	510	508	0	0	
2	0	0	0	0	514	508	0	0	
3	0	0	0	0	521	508	0	0	
4	0	0	0	0	523	508	0	0	
5	0	0	0	0	524	508	0	0	
6	0	0	0	0	520	506	0	0	
7	0	0	0	0	519	510	0	0	
8	0	0	0	0	518	510	0	0	
9	0	0	0	0	510	508	0	0	
10	0	0	0	0	505	509	0	0	
11	0	0	0	0	504	509	0	0	
12	0	0	0	0	504	508	0	0	
13	0	0	0	0	503	509	0	0	
14	0	0	0	0	504	509	0	0	
15	0	0	0	0	502	508	0	0	
0	0	0	0	0	502	507	0	0	
1	0	0	0	0	504	508	0	0	
2	0	0	0	0	507	507	0	0	
3	0	0	0	0	508	507	0	0	
4	0	0	0	0	512	508	0	0	
5	0	0	0	0	515	508	0	0	
6	0	0	0	0	518	508	0	0	
7	0	0	0	0	520	508	0	0	
8	0	0	0	0	519	508	0	0	
9	0	0	0	0	519	508	0	0	
10	0	0	0	0	518	506	0	0	
11	0	0	0	0	516	507	0	0	
12	0	0	0	0	517	507	0	0	
13	0	0	0	0	515	508	0	0	
14	0	0	0	0	508	508	0	0	
15	0	0	0	0	506	510	0	0	
0	0	0	0	0	504	508	0	0	
1	0	0	0	0	504	509	0	0	
2	0	0	0	0	503	508	0	0	
3	0	0	0	0	502	509	0	0	
4	0	0	0	0	502	508	0	0	
5	0	0	0	0	504	508	0	0	
6	0	0	0	0	505	507	0	0	
7	0	0	0	0	510	507	0	0	
8	0	0	0	0	515	507	0	0	
9	0	0	0	0	515	508	0	0	
10	0	0	0	0	510	506	0	0	
11	0	0	0	0	515	508	0	0	
12	0	0	0	0	524	509	0	0	
13	0	0	0	0	531	508	0	0	
14	0	0	0	0	529	507	0	0	
15	0	0	0	0	519	510	0	0	
0	0	0	0	0	515	510	0	0	
1	0	0	0	0	511	509	0	0	
2	0	0	0	0	506	508	0	0	
3	0	0	0	0	505	510	0	0	
4	0	0	0	0	505	507	0	0	
5	0	0	0	0	503	510	0	0	
6	0	0	0	0	503	507	0	0	
7	0	0	0	0	503	507	0	0	
8	0	0	0	0	501	508	0	0	
9	0	0	0	0	502	507	0	0	
10	0	0	0	0	503	507	0	0	
11	0	0	0	0	508	508	0	0	
12	0	0	0	0	512	507	0	0	
13	0	0	0	0	515	508	0	0	
14	0	0	0	0	516	508	0	0	
15	0	0	0	0	521	507	0	0	
0	0	0	0	0	519	507	0	0	
1	0	0	0	0	519	507	0	0	
2	0	0	0	0	519	505	0	0	
3	0	0	0	0	518	507	0	0	
4	0	0	0	0	515	508	0	0	
5	0	0	0	0	513	508	0	0	
6	0	0	0	0	507	506	0	0	
7	0	0	0	0	506	509	0	0	
8	0	0	0	0	502	507	0	0	
9	0	0	0	0	510	508	0	0	
10	0	0	0	0	509	512	0	0	
11	0	0	0	0	504	509	0	0	
12	0	0	0	0	502	510	0	0	
13	0	0	0	0	499	507	0	0	
14	0	0	0	0	505	509	0	0	
15	0	0	0	0	510	510	0	0	
0	0	0	0	0	511	509	0	0	
1	0	0	0	0	512	508	0	0	
2	0	0	0	0	516	507	0	0	
3	0	0	0	0	516	507	0	0	
4	0	0	0	0	525	508	0	0	
5	0	0	0	0	524	508	0	0	
6	0	0	0	0	519	504	0	0	
7	0	0	0	0	519	508	0	0	
8	0	0	0	0	514	506	0	0	
9	0	0	0	0	513	507	0	0	
10	0	0	0	0	509	506	0	0	
11	0	0	0	0	507	507	0	0	
12	0	0	0	0	503	508	0	0	
13	0	0	0	0	499	511	0	0	
14	0	0	0	0	501	508	0	0	
15	0	0	0	0	503	507	0	0	
0	0	0	0	0	511	510	0	0	
1	0	0	0	0	508	510	0	0	
2	0	0	0	0	508	510	0	0	
3	0	0	0	0	506	510	0	0	
4	0	0	0	0	509	507	0	0	
5	0	0	0	0	515	507	0	0	
6	0	0	0	0	517	508	0	0	
7	0	0	0	0	519	507	0	0	
8	0	0	0	0	519	508	0	0	
9	0	0	0	0	517	507	0	0	
10	0	0	0	0	521	509	0	0	
11	0	0	0	0	520	508	0	0	
12	0	0	0	0	516	510	0	0	
13	0	0	0	0	512	507	0	0	
14	0	0	0	0	508	509	0	0	
15	0	0	0	0	508	510	0	0	
0	0	0	0	0	502	507	0	0	
1	0	0	0	0	503	507	0	0	
2	0	0	0	0	503	507	0	0	
3	0	0	0	0	500	508	0	0	
4	0	0	0	0	503	507	0	0	
5	0	0	0	0	505	509	0	0	
6	0	0	0	0	505	508	0	0	
7	0	0	0	0	510	508	0	0	
8	0	0	0	0	510	508	0	0	
9	0	0	0	0	513	509	0	0	
10	0	0	0	0	519	508	0	0	
11	0	0	0	0	521	506	0	0	
12	0	0	0	0	522	509	0	0	
13	0	0	0	0	524	509	0	0	
14	0	0	0	0	517	507	0	0	
15	0	0	0	0	517	505	0	0	
0	0	0	0	0	513	507	0	0	
1	0	0	0	0	512	508	0	0	
2	0	0	0	0	511	509	0	0	
3	0	0	0	0	510	508	0	0	
4	0	0	0	0	507	509	0	0	
5	0	0	0	0	502	507	0	0	
6	0	0	0	0	502	510	0	0	
7	0	0	0	0	501	509	0	0	
8	0	0	0	0	502	508	0	0	
9	0	0	0	0	503	509	0	0	
10	0	0	0	0	507	508	0	0	
11	0	0	0	0	510	508	0	0	
12	0	0	0	0	515	508	0	0	
13	0	0	0	0	515	507	0	0	
14	0	0	0	0	516	507	0	0	
15	0	0	0	0	521	507	0	0	
0	0	0	0	0	520	508	0	0	
1	0	0	0	0	519	507	0	0	
2	0	0	0	0	518	507	0	0	
3	0	0	0	0	517	509	0	0	
4	0	0	0	0	515	508	0	0	
5	0	0	0	0	511	507	0	0	
6	0	0	0	0	507	507	0	0	
7	0	0	0	0	505	508	0	0	
8	0	0	0	0	504	508	0	0	
9	0	0	0	0	503	509	0	0	
10	0	0	0	0	502	509	0	0	
11	0	0	0	0	500	508	0	0	
12	0	0	0	0	501	510	0	0	
13	0	0	0	0	505	508	0	0	
14	0	0	0	0	504	508	0	0	
15	0	0	0	0	505	508	0	0	
0	0	0	0	0	509	507	0	0	
1	0	0	0	0	512	508	0	0	
2	0	0	0	0	519	505	0	0	
3	0	0	0	0	526	509	0	0	
4	0	0	0	0	529	510	0	0	
5	0	0	0	0	520	507	0	0	
6	0	0	0	0	521	508	0	0	
7	0	0	0	0	518	509	0	0	
8	0	0	0	0	512	509	0	0	
9	0	0	0	0	512	508	0	0	
10	0	0	0	0	508	508	0	0	
11	0	0	0	0	506	508	0	0	
12	0	0	0	0	505	508	0	0	
13	0	0	0	0	503	509	0	0	
14	0	0	0	0	501	509	0	0	
15	0	0	0	0	504	508	0	0	
0	0	0	0	0	503	508	0	0	
1	0	0	0	0	501	506	0	0	
2	0	0	0	0	506	508	0	0	
3	0	0	0	0	509	508	0	0	
4	0	0	0	0	515	508	0	0	
5	0	0	0	0	515	510	0	0	
6	0	0	0	0	515	509	0	0	
7	0	0	0	0	519	508	0	0	
8	0	0	0	0	521	507	0	0	
9	0	0	0	0	522	508	0	0	
10	0	0	0	0	519	510	0	0	
11	0	0	0	0	515	509	0	0	
12	0	0	0	0	515	508	0	0	
13	0	0	0	0	513	507	0	0	
14	0	0	0	0	507	506	0	0	
15	0	0	0	0	505	509	0	0	
0	0	0	0	0	504	509	0	0	
1	0	0	0	0	503	508	0	0	
2	0	0	0	0	501	508	0	0	
3	0	0	0	0	504	507	0	0	
4	0	0	0	0	503	508	0	0	
5	0	0	0	0	503	508	0	0	
6	0	0	0	0	508	508	0	0	
7	0	0	0	0	509	508	0	0	
8	0	0	0	0	512	508	0	0	
9	0	0	0	0	515	507	0	0	
10	0	0	0	0	519	507	0	0	
11	0	0	0	0	526	510	0	0	
12	0	0	0	0	521	508	0	0	
13	0	0	0	0	517	508	0	0	
14	0	0	0	0	519	507	0	0	
15	0	0	0	0	518	507	0	0	
0	0	0	0	0	518	510	0	0	
1	0	0	0	0	512	508	0	0	
2	0	0	0	0	511	509	0	0	
3	0	0	0	0	505	507	0	0	
4	0	0	0	0	507	509	0	0	
5	0	0	0	0	504	508	0	0	
6	0	0	0	0	503	510	0	0	
7	0	0	0	0	502	508	0	0	
8	0	0	0	0	505	507	0	0	
9	0	0	0	0	507	506	0	0	
10	0	0	0	0	507	508	0	0	
11	0	0	0	0	508	507	0	0	
12	0	0	0	0	512	509	0	0	
13	0	0	0	0	515	510	0	0	
14	0	0	0	0	518	507	0	0	
15	0	0	0	0	519	506	0	0	
0	0	0	0	0	525	508	0	0	
1	0	0	0	0	519	508	0	0	
2	0	0	0	0	514	508	0	0	
3	0	0	0	0	514	509	0	0	
4	0	0	0	0	512	508	0	0	
5	0	0	0	0	513	509	0	0	
6	0	0	0	0	513	509	0	0	
7	0	0	0	0	507	508	0	0	
8	0	0	0	0	507	511	0	0	
9	0	0	0	0	510	508	0	0	
10	0	0	0	0	500	508	0	0	
11	0	0	0	0	499	508	0	0	
12	0	0	0	0	501	509	0	0	
13	0	0	0	0	504	505	0	0	
14	0	0	0	0	507	508	0	0	
15	0	0	0	0	511	507	0	0	
0	0	0	0	0	512	507	0	0	
1	0	0	0	0	515	508	0	0	
2	0	0	0	0	515	508	0	0	
3	0	0	0	0	519	509	0	0	
4	0	0	0	0	521	507	0	0	
5	0	0	0	0	521	509	0	0	
6	0	0	0	0	518	506	0	0	
7	0	0	0	0	517	509	0	0	
8	0	0	0	0	515	508	0	0	
9	0	0	0	0	511	507	0	0	
10	0	0	0	0	511	507	0	0	
11	0	0	0	0	506	507	0	0	
12	0	0	0	0	505	508	0	0	
13	0	0	0	0	504	508	0	0	
14	0	0	0	0	502	509	0	0	
15	0	0	0	0	503	510	0	0	
0	0	0	0	0	504	507	0	0	
1	0	0	0	0	505	507	0	0	
2	0	0	0	0	508	508	0	0	
3	0	0	0	0	509	510	0	0	
4	0	0	0	0	507	509	0	0	
5	0	0	0	0	512	507	0	0	
6	0	0	0	0	513	509	0	0	
7	0	0	0	0	518	507	0	0	
8	0	0	0	0	523	506	0	0	
9	0	0	0	0	520	508	0	0	
10	0	0	0	0	519	508	0	0	
11	0	0	0	0	516	508	0	0	
12	0	0	0	0	515	507	0	0	
13	0	0	0	0	513	507	0	0	
14	0	0	0	0	509	509	0	0	
15	0	0	0	0	508	510	0	0	
0	0	0	0	0	508	508	0	0	
1	0	0	0	0	504	509	0	0	
2	0	0	0	0	502	508	0	0	
3	0	0	0	0	502	509	0	0	
4	0	0	0	0	505	508	0	0	
5	0	0	0	0	504	508	0	0	
6	0	0	0	0	506	507	0	0	
7	0	0	0	0	510	508	0	0	
8	0	0	0	0	513	508	0	0	
9	0	0	0	0	515	508	0	0	
10	0	0	0	0	519	508	0	0	
11	0	0	0	0	519	508	0	0	
12	0	0	0	0	520	508	0	0	
13	0	0	0	0	519	506	0	0	
14	0	0	0	0	520	508	0	0	
15	0	0	0	0	519	508	0	0	
0	0	0	0	0	517	508	0	0	
1	0	0	0	0	513	508	0	0	
2	0	0	0	0	509	508	0	0	
3	0	0	0	0	506	507	0	0	
4	0	0	0	0	504	507	0	0	
5	0	0	0	0	502	508	0	0	
6	0	0	0	0	504	509	0	0	
7	0	0	0	0	503	510	0	0	
8	0	0	0	0	504	510	0	0	
9	0	0	0	0	507	510	0	0	
10	0	0	0	0	503	508	0	0	
11	0	0	0	0	507	507	0	0	
12	0	0	0	0	511	510	0	0	
13	0	0	0	0	517	508	0	0	
14	0	0	0	0	518	508	0	0	
15	0	0	0	0	518	509	0	0	
0	0	0	0	0	523	509	0	0	
1	0	0	0	0	519	509	0	0	
2	0	0	0	0	515	507	0	0	
3	0	0	0	0	517	508	0	0	
4	0	0	0	0	512	505	0	0	
5	0	0	0	0	512	508	0	0	
6	0	0	0	0	511	508	0	0	
7	0	0	0	0	508	508	0	0	
8	0	0	0	0	500	509	0	0	
9	0	0	0	0	500	506	0	0	
10	0	0	0	0	501	508	0	0	
11	0	0	0	0	504	508	0	0	
12	0	0	0	0	511	508	0	0	
13	0	0	0	0	509	507	0	0	
14	0	0	0	0	506	508	0	0	
15	0	0	0	0	511	507	0	0	
0	0	0	0	0	513	506	0	0	
1	0	0	0	0	510	507	0	0	
2	0	0	0	0	515	509	0	0	
3	0	0	0	0	520	508	0	0	
4	0	0	0	0	523	508	0	0	
5	0	0	0	0	522	508	0	0	
6	0	0	0	0	518	508	0	0	
7	0	0	0	0	515	508	0	0	
8	0	0	0	0	510	508	0	0	
9	0	0	0	0	509	508	0	0	
10	0	0	0	0	511	508	0	0	
11	0	0	0	0	513	508	0	0	
12	0	0	0	0	506	510	0	0	
13	0	0	0	0	499	510	0	0	
14	0	0	0	0	501	506	0	0	
15	0	0	0	0	504	510	0	0	
0	0	0	0	0	505	508	0	0	
1	0	0	0	0	506	508	0	0	
2	0	0	0	0	506	508	0	0	
3	0	0	0	0	509	508	0	0	
4	0	0	0	0	513	507	0	0	
5	0	0	0	0	514	506	0	0	
6	0	0	0	0	517	508	0	0	
7	0	0	0	0	519	507	0	0	
8	0	0	0	0	519	507	0	0	
9	0	0	0	0	519	508	0	0	
10	0	0	0	0	517	506	0	0	
11	0	0	0	0	518	508	0	0	
12	0	0	0	0	515	508	0	0	
13	0	0	0	0	511	510	0	0	
14	0	0	0	0	510	508	0	0	
15	0	0	0	0	508	509	0	0	
0	0	0	0	0	506	508	0	0	
1	0	0	0	0	502	508	0	0	
2	0	0	0	0	502	508	0	0	
3	0	0	0	0	505	506	0	0	
4	0	0	0	0	508	509	0	0	
5	0	0	0	0	502	510	0	0	
6	0	0	0	0	504	508	0	0	
7	0	0	0	0	509	507	0	0	
8	0	0	0	0	513	507	0	0	
9	0	0	0	0	514	506	0	0	
10	0	0	0	0	515	508	0	0	
11	0	0	0	0	517	508	0	0	
12	0	0	0	0	516	507	0	0	
13	0	0	0	0	518	508	0	0	
14	0	0	0	0	523	508	0	0	
15	0	0	0	0	523	510	0	0	
0	0	0	0	0	516	510	0	0	
1	0	0	0	0	512	508	0	0	
2	0	0	0	0	511	509	0	0	
3	0	0	0	0	506	508	0	0	
4	0	0	0	0	501	509	0	0	
5	0	0	0	0	499	508	0	0	
6	0	0	0	0	496	506	0	0	
7	0	0	0	0	505	509	0	0	
8	0	0	0	0	512	508	0	0	
9	0	0	0	0	511	508	0	0	
10	0	0	0	0	509	509	0	0	
11	0	0	0	0	507	510	0	0	
12	0	0	0	0	508	507	0	0	
13	0	0	0	0	513	507	0	0	
14	0	0	0	0	514	509	0	0	
15	0	0	0	0	518	507	0	0	
0	0	0	0	0	519	506	0	0	
1	0	0	0	0	519	508	0	0	
2	0	0	0	0	519	508	0	0	
3	0	0	0	0	515	506	0	0	
4	0	0	0	0	516	508	0	0	
5	0	0	0	0	510	508	0	0	
6	0	0	0	0	506	508	0	0	
7	0	0	0	0	508	508	0	0	
8	0	0	0	0	504	509	0	0	
9	0	0	0	0	502	508	0	0	
10	0	0	0	0	501	508	0	0	
11	0	0	0	0	504	508	0	0	
12	0	0	0	0	503	508	0	0	
13	0	0	0	0	505	509	0	0	
14	0	0	0	0	505	510	0	0	
15	0	0	0	0	508	510	0	0	
0	0	0	0	0	512	508	0	0	
1	0	0	0	0	515	508	0	0	
2	0	0	0	0	515	507	0	0	
3	0	0	0	0	519	506	0	0	
4	0	0	0	0	522	508	0	0	
5	0	0	0	0	523	508	0	0	
6	0	0	0	0	517	507	0	0	
7	0	0	0	0	515	507	0	0	
8	0	0	0	0	519	508	0	0	
9	0	0	0	0	511	508	0	0	
10	0	0	0	0	505	507	0	0	
11	0	0	0	0	503	509	0	0	
12	0	0	0	0	503	512	0	0	
13	0	0	0	0	502	507	0	0	
14	0	0	0	0	511	509	0	0	
15	0	0	0	0	513	510	0	0	
0	0	0	0	0	500	506	0	0	
1	0	0	0	0	506	509	0	0	
2	0	0	0	0	509	507	0	0	
3	0	0	0	0	508	509	0	0	
4	0	0	0	0	511	507	0	0	
5	0	0	0	0	511	506	0	0	
6	0	0	0	0	514	507	0	0	
7	0	0	0	0	519	508	0	0	
8	0	0	0	0	523	509	0	0	
9	0	0	0	0	521	507	0	0	
10	0	0	0	0	522	507	0	0	
11	0	0	0	0	519	508	0	0	
12	0	0	0	0	516	508	0	0	
13	0	0	0	0	514	508	0	0	
14	0	0	0	0	507	507	0	0	
15	0	0	0	0	501	508	0	0	
0	0	0	0	0	498	508	0	0	
1	0	0	0	0	500	507	0	0	
2	0	0	0	0	504	506	0	0	
3	0	0	0	0	509	509	0	0	
4	0	0	0	0	504	508	0	0	
5	0	0	0	0	502	509	0	0	
6	0	0	0	0	509	509	0	0	
7	0	0	0	0	510	509	0	0	
8	0	0	0	0	512	508	0	0	
9	0	0	0	0	517	508	0	0	
10	0	0	0	0	517	508	0	0	
11	0	0	0	0	518	507	0	0	
12	0	0	0	0	518	506	0	0	
13	0	0	0	0	516	509	0	0	
14	0	0	0	0	513	506	0	0	
15	0	0	0	0	522	509	0	0	
0	0	0	0	0	527	512	0	0	
1	0	0	0	0	516	509	0	0	
2	0	0	0	0	510	508	0	0	
3	0	0	0	0	505	507	0	0	
4	0	0	0	0	499	509	0	0	
5	0	0	0	0	495	508	0	0	
6	0	0	0	0	499	507	0	0	
7	0	0	0	0	501	508	0	0	
8	0	0	0	0	507	508	0	0	
9	0	0	0	0	505	508	0	0	
10	0	0	0	0	506	507	0	0	
11	0	0	0	0	508	508	0	0	
12	0	0	0	0	513	507	0	0	
13	0	0	0	0	514	506	0	0	
14	0	0	0	0	518	507	0	0	
15	0	0	0	0	519	508	0	0	
0	0	0	0	0	521	506	0	0	
1	0	0	0	0	520	508	0	0	
2	0	0	0	0	519	512	0	0	
3	0	0	0	0	519	511	0	0	
4	0	0	0	0	512	509	0	0	
5	0	0	0	0	512	508	0	0	
6	0	0	0	0	509	507	0	0	
7	0	0	0	0	507	508	0	0	
8	0	0	0	0	504	507	0	0	
9	0	0	0	0	504	509	0	0	
10	0	0	0	0	501	509	0	0	
11	0	0	0	0	500	508	0	0	
12	0	0	0	0	500	510	0	0	
13	0	0	0	0	505	507	0	0	
14	0	0	0	0	508	508	0	0	
15	0	0	0	0	510	507	0	0	
0	0	0	0	0	512	505	0	0	
1	0	0	0	0	515	508	0	0	
2	0	0	0	0	513	508	0	0	
3	0	0	0	0	522	508	0	0	
4	0	0	0	0	518	508	0	0	
5	0	0	0	0	519	508	0	0	
6	0	0	0	0	520	507	0	0	
7	0	0	0	0	520	508	0	0	
8	0	0	0	0	517	510	0	0	
9	0	0	0	0	512	508	0	0	
10	0	0	0	0	508	507	0	0	
11	0	0	0	0	510	509	0	0	
12	0	0	0	0	505	506	0	0	
13	0	0	0	0	500	508	0	0	
14	0	0	0	0	500	508	0	0	
15	0	0	0	0	503	508	0	0	
0	0	0	0	0	503	508	0	0	
1	0	0	0	0	505	507	0	0	
2	0	0	0	0	505	506	0	0	
3	0	0	0	0	509	507	0	0	
4	0	0	0	0	513	507	0	0	
5	0	0	0	0	514	509	0	0	
6	0	0	0	0	516	511	0	0	
7	0	0	0	0	525	508	0	0	
8	0	0	0	0	519	505	0	0	
9	0	0	0	0	522	506	0	0	
10	0	0	0	0	518	507	0	0	
11	0	0	0	0	514	509	0	0	
12	0	0	0	0	514	508	0	0	
13	0	0	0	0	510	508	0	0	
14	0	0	0	0	510	510	0	0	
15	0	0	0	0	509	510	0	0	
0	0	0	0	0	508	509	0	0	
1	0	0	0	0	504	508	0	0	
2	0	0	0	0	503	508	0	0	
3	0	0	0	0	501	508	0	0	
4	0	0	0	0	505	510	0	0	
5	0	0	0	0	503	509	0	0	
6	0	0	0	0	504	507	0	0	
7	0	0	0	0	509	508	0	0	
8	0	0	0	0	512	508	0	0	
9	0	0	0	0	515	508	0	0	
10	0	0	0	0	518	508	0	0	
11	0	0	0	0	519	508	0	0	
12	0	0	0	0	521	507	0	0	
13	0	0	0	0	520	508	0	0	
14	0	0	0	0	518	509	0	0	
15	0	0	0	0	517	509	0	0	
0	0	0	0	0	515	508	0	0	
1	0	0	0	0	511	506	0	0	
2	0	0	0	0	510	507	0	0	
3	0	0	0	0	506	507	0	0	
4	0	0	0	0	505	509	0	0	
5	0	0	0	0	502	510	0	0	
6	0	0	0	0	499	508	0	0	
7	0	0	0	0	501	509	0	0	
8	0	0	0	0	500	507	0	0	
9	0	0	0	0	506	508	0	0	
10	0	0	0	0	512	511	0	0	
11	0	0	0	0	513	508	0	0	
12	0	0	0	0	515	507	0	0	
13	0	0	0	0	512	508	0	0	
14	0	0	0	0	515	508	0	0	
15	0	0	0	0	519	508	0	0	
0	0	0	0	0	520	507	0	0	
1	0	0	0	0	519	508	0	0	
2	0	0	0	0	520	509	0	0	
3	0	0	0	0	519	508	0	0	
4	0	0	0	0	515	507	0	0	
5	0	0	0	0	510	507	0	0	
6	0	0	0	0	508	505	0	0	
7	0	0	0	0	508	509	0	0	
8	0	0	0	0	508	507	0	0	
9	0	0	0	0	508	509	0	0	
10	0	0	0	0	504	509	0	0	
11	0	0	0	0	505	508	0	0	
12	0	0	0	0	501	507	0	0	
13	0	0	0	0	498	508	0	0	
14	0	0	0	0	503	508	0	0	
15	0	0	0	0	508	508	0	0	
0	0	0	0	0	512	510	0	0	
1	0	0	0	0	517	510	0	0	
2	0	0	0	0	520	506	0	0	
3	0	0	0	0	517	507	0	0	
4	0	0	0	0	520	510	0	0	
5	0	0	0	0	521	507	0	0	
6	0	0	0	0	518	508	0	0	
7	0	0	0	0	516	507	0	0	
8	0	0	0	0	514	509	0	0	
9	0	0	0	0	509	509	0	0	
10	0	0	0	0	506	508	0	0	
11	0	0	0	0	506	509	0	0	
12	0	0	0	0	507	507	0	0	
13	0	0	0	0	503	507	0	0	
14	0	0	0	0	503	507	0	0	
15	0	0	0	0	508	508	0	0	
0	0	0	0	0	505	509	0	0	
1	0	0	0	0	504	509	0	0	
2	0	0	0	0	504	508	0	0	
3	0	0	0	0	508	507	0	0	
4	0	0	0	0	513	507	0	0	
5	0	0	0	0	516	509	0	0	
6	0	0	0	0	518	507	0	0	
7	0	0	0	0	521	506	0	0	
8	0	0	0	0	521	507	0	0	
9	0	0	0	0	520	508	0	0	
10	0	0	0	0	519	507	0	0	
11	0	0	0	0	513	508	0	0	
12	0	0	0	0	512	510	0	0	
13	0	0	0	0	509	508	0	0	
14	0	0	0	0	513	509	0	0	
15	0	0	0	0	510	509	0	0	
0	0	0	0	0	504	507	0	0	
1	0	0	0	0	502	508	0	0	
2	0	0	0	0	502	510	0	0	
3	0	0	0	0	503	508	0	0	
4	0	0	0	0	503	509	0	0	
5	0	0	0	0	504	509	0	0	
6	0	0	0	0	506	509	0	0	
7	0	0	0	0	509	506	0	0	
8	0	0	0	0	513	506	0	0	
9	0	0	0	0	516	508	0	0	
10	0	0	0	0	516	508	0	0	
11	0	0	0	0	519	508	0	0	
12	0	0	0	0	518	507	0	0	
13	0	0	0	0	520	509	0	0	
14	0	0	0	0	521	507	0	0	
15	0	0	0	0	514	508	0	0	
0	0	0	0	0	514	506	0	0	
1	0	0	0	0	512	508	0	0	
2	0	0	0	0	509	507	0	0	
3	0	0	0	0	508	509	0	0	
4	0	0	0	0	504	510	0	0	
5	0	0	0	0	504	510	0	0	
6	0	0	0	0	503	510	0	0	
7	0	0	0	0	504	508	0	0	
8	0	0	0	0	502	506	0	0	
9	0	0	0	0	505	508	0	0	
10	0	0	0	0	507	507	0	0	
11	0	0	0	0	509	507	0	0	
12	0	0	0	0	515	507	0	0	
13	0	0	0	0	513	508	0	0	
14	0	0	0	0	518	510	0	0	
15	0	0	0	0	521	507	0	0	
0	0	0	0	0	521	506	0	0	
1	0	0	0	0	521	506	0	0	
2	0	0	0	0	520	509	0	0	
3	0	0	0	0	516	509	0	0	
4	0	0	0	0	515	508	0	0	
5	0	0	0	0	509	507	0	0	
6	0	0	0	0	508	509	0	0	
7	0	0	0	0	507	510	0	0	
8	0	0	0	0	506	508	0	0	
9	0	0	0	0	501	508	0	0	
10	0	0	0	0	502	508	0	0	
11	0	0	0	0	502	508	0	0	
12	0	0	0	0	504	508	0	0	
13	0	0	0	0	506	508	0	0	
14	0	0	0	0	505	508	0	0	
15	0	0	0	0	510	508	0	0	
0	0	0	0	0	514	508	0	0	
1	0	0	0	0	515	506	0	0	
2	0	0	0	0	516	506	0	0	
3	0	0	0	0	520	508	0	0	
4	0	0	0	0	525	507	0	0	
5	0	0	0	0	521	509	0	0	
6	0	0	0	0	519	509	0	0	
7	0	0	0	0	515	511	0	0	
8	0	0	0	0	509	509	0	0	
9	0	0	0	0	510	508	0	0	
10	0	0	0	0	509	507	0	0	
11	0	0	0	0	510	509	0	0	
12	0	0	0	0	504	508	0	0	
13	0	0	0	0	501	508	0	0	
14	0	0	0	0	506	508	0	0	
15	0	0	0	0	503	507	0	0	
0	0	0	0	0	502	507	0	0	
1	0	0	0	0	505	510	0	0	
2	0	0	0	0	504	508	0	0	
3	0	0	0	0	510	507	0	0	
4	0	0	0	0	512	508	0	0	
5	0	0	0	0	516	509	0	0	
6	0	0	0	0	523	508	0	0	
7	0	0	0	0	523	509	0	0	
8	0	0	0	0	519	507	0	0	
9	0	0	0	0	519	507	0	0	
10	0	0	0	0	519	508	0	0	
11	0	0	0	0	516	508	0	0	
12	0	0	0	0	514	509	0	0	
13	0	0	0	0	511	509	0	0	
14	0	0	0	0	507	508	0	0	
15	0	0	0	0	509	507	0	0	
0	0	0	0	0	507	508	0	0	
1	0	0	0	0	502	508	0	0	
2	0	0	0	0	502	509	0	0	
3	0	0	0	0	502	509	0	0	
4	0	0	0	0	503	507	0	0	
5	0	0	0	0	507	507	0	0	
6	0	0	0	0	510	507	0	0	
7	0	0	0	0	509	507	0	0	
8	0	0	0	0	512	509	0	0	
9	0	0	0	0	515	507	0	0	
10	0	0	0	0	519	506	0	0	
11	0	0	0	0	521	507	0	0	
12	0	0	0	0	523	509	0	0	
13	0	0	0	0	519	507	0	0	
14	0	0	0	0	518	507	0	0	
15	0	0	0	0	516	508	0	0	
0	0	0	0	0	512	508	0	0	
1	0	0	0	0	511	509	0	0	
2	0	0	0	0	510	508	0	0	
3	0	0	0	0	506	508	0	0	
4	0	0	0	0	504	509	0	0	
5	0	0	0	0	502	508	0	0	
6	0	0	0	0	504	510	0	0	
7	0	0	0	0	503	510	0	0	
8	0	0	0	0	503	508	0	0	
9	0	0	0	0	506	506	0	0	
10	0	0	0	0	507	508	0	0	
11	0	0	0	0	508	506	0	0	
12	0	0	0	0	513	507	0	0	
13	0	0	0	0	513	508	0	0	
14	0	0	0	0	515	509	0	0	
15	0	0	0	0	521	506	0	0	
0	0	0	0	0	521	507	0	0	
1	0	0	0	0	521	509	0	0	
2	0	0	0	0	520	507	0	0	
3	0	0	0	0	518	509	0	0	
4	0	0	0	0	517	508	0	0	
5	0	0	0	0	511	510	0	0	
6	0	0	0	0	510	512	0	0	
7	0	0	0	0	509	508	0	0	
8	0	0	0	0	502	510	0	0	
9	0	0	0	0	502	509	0	0	
10	0	0	0	0	501	508	0	0	
11	0	0	0	0	503	508	0	0	
12	0	0	0	0	504	508	0	0	
13	0	0	0	0	505	507	0	0	
14	0	0	0	0	509	508	0	0	
15	0	0	0	0	510	508	0	0	
0	0	0	0	0	514	508	0	0	
1	0	0	0	0	513	508	0	0	
2	0	0	0	0	516	508	0	0	
3	0	0	0	0	519	508	0	0	
4	0	0	0	0	519	508	0	0	
5	0	0	0	0	520	506	0	0	
6	0	0	0	0	518	506	0	0	
7	0	0	0	0	515	506	0	0	
8	0	0	0	0	516	509	0	0	
9	0	0	0	0	513	511	0	0	
10	0	0	0	0	507	508	0	0	
11	0	0	0	0	505	509	0	0	
12	0	0	0	0	507	508	0	0	
13	0	0	0	0	502	507	0	0	
14	0	0	0	0	502	509	0	0	
15	0	0	0	0	504	509	0	0	
0	0	0	0	0	503	508	0	0	
1	0	0	0	0	505	511	0	0	
2	0	0	0	0	507	507	0	0	
3	0	0	0	0	508	505	0	0	
4	0	0	0	0	513	508	0	0	
5	0	0	0	0	517	508	0	0	
6	0	0	0	0	517	506	0	0	
7	0	0	0	0	522	506	0	0	
8	0	0	0	0	523	508	0	0	
9	0	0	0	0	518	507	0	0	
10	0	0	0	0	519	508	0	0	
11	0	0	0	0	518	508	0	0	
12	0	0	0	0	514	508	0	0	
13	0	0	0	0	511	510	0	0	
14	0	0	0	0	508	508	0	0	
15	0	0	0	0	507	507	0	0	
0	0	0	0	0	505	511	0	0	
1	0	0	0	0	507	508	0	0	
2	0	0	0	0	505	511	0	0	
3	0	0	0	0	503	509	0	0	
4	0	0	0	0	502	509	0	0	
5	0	0	0	0	503	508	0	0	
6	0	0	0	0	507	507	0	0	
7	0	0	0	0	510	507	0	0	
8	0	0	0	0	514	506	0	0	
9	0	0	0	0	516	507	0	0	
10	0	0	0	0	518	507	0	0	
11	0	0	0	0	518	507	0	0	
12	0	0	0	0	520	508	0	0	
13	0	0	0	0	520	510	0	0	
14	0	0	0	0	516	508	0	0	
15	0	0	0	0	516	509	0	0	
0	0	0	0	0	515	506	0	0	
1	0	0	0	0	513	508	0	0	
2	0	0	0	0	508	509	0	0	
3	0	0	0	0	506	508	0	0	
4	0	0	0	0	505	508	0	0	
5	0	0	0	0	501	507	0	0	
6	0	0	0	0	504	508	0	0	
7	0	0	0	0	503	505	0	0	
8	0	0	0	0	502	507	0	0	
9	0	0	0	0	504	508	0	0	
10	0	0	0	0	509	508	0	0	
11	0	0	0	0	511	508	0	0	
12	0	0	0	0	513	511	0	0	
13	0	0	0	0	515	508	0	0	
14	0	0	0	0	520	509	0	0	
15	0	0	0	0	519	509	0	0	
0	0	0	0	0	517	508	0	0	
1	0	0	0	0	519	507	0	0	
2	0	0	0	0	518	508	0	0	
3	0	0	0	0	517	506	0	0	
4	0	0	0	0	515	509	0	0	
5	0	0	0	0	509	505	0	0	
6	0	0	0	0	505	507	0	0	
7	0	0	0	0	510	507	0	0	
8	0	0	0	0	506	509	0	0	
9	0	0	0	0	504	509	0	0	
10	0	0	0	0	506	509	0	0	
11	0	0	0	0	502	505	0	0	
12	0	0	0	0	499	508	0	0	
13	0	0	0	0	505	509	0	0	
14	0	0	0	0	510	508	0	0	
15	0	0	0	0	511	511	0	0	
0	0	0	0	0	513	507	0	0	
1	0	0	0	0	515	507	0	0	
2	0	0	0	0	518	507	0	0	
3	0	0	0	0	521	508	0	0	
4	0	0	0	0	519	507	0	0	
5	0	0	0	0	520	507	0	0	
6	0	0	0	0	518	508	0	0	
7	0	0	0	0	516	509	0	0	
8	0	0	0	0	514	509	0	0	
9	0	0	0	0	509	507	0	0	
10	0	0	0	0	508	507	0	0	
11	0	0	0	0	508	507	0	0	
12	0	0	0	0	506	510	0	0	
13	0	0	0	0	504	508	0	0	
14	0	0	0	0	502	508	0	0	
15	0	0	0	0	505	507	0	0	
0	0	0	0	0	504	507	0	0	
1	0	0	0	0	507	511	0	0	
2	0	0	0	0	501	505	0	0	
3	0	0	0	0	507	506	0	0	
4	0	0	0	0	513	508	0	0	
5	0	0	0	0	515	508	0	0	
6	0	0	0	0	516	508	0	0	
7	0	0	0	0	520	508	0	0	
8	0	0	0	0	521	509	0	0	
9	0	0	0	0	522	507	0	0	
10	0	0	0	0	519	507	0	0	
11	0	0	0	0	518	509	0	0	
12	0	0	0	0	513	506	0	0	
13	0	0	0	0	510	505	0	0	
14	0	0	0	0	508	506	0	0	
15	0	0	0	0	506	509	0	0	
0	0	0	0	0	505	509	0	0	
1	0	0	0	0	503	508	0	0	
2	0	0	0	0	502	508	0	0	
3	0	0	0	0	501	510	0	0	
4	0	0	0	0	505	509	0	0	
5	0	0	0	0	504	508	0	0	
6	0	0	0	0	507	506	0	0	
7	0	0	0	0	510	509	0	0	
8	0	0	0	0	511	507	0	0	
9	0	0	0	0	516	508	0	0	
10	0	0	0	0	521	509	0	0	
11	0	0	0	0	520	508	0	0	
12	0	0	0	0	522	508	0	0	
13	0	0	0	0	522	507	0	0	
14	0	0	0	0	518	505	0	0	
15	0	0	0	0	515	508	0	0	
0	0	0	0	0	514	508	0	0	
1	0	0	0	0	510	509	0	0	
2	0	0	0	0	510	508	0	0	
3	0	0	0	0	506	507	0	0	
4	0	0	0	0	505	508	0	0	
5	0	0	0	0	503	509	0	0	
6	0	0	0	0	502	508	0	0	
7	0	0	0	0	502	507	0	0	
8	0	0	0	0	502	508	0	0	
9	0	0	0	0	505	508	0	0	
10	0	0	0	0	507	508	0	0	
11	0	0	0	0	511	509	0	0	
12	0	0	0	0	515	508	0	0	
13	0	0	0	0	518	508	0	0	
14	0	0	0	0	517	508	0	0	
15	0	0	0	0	518	508	0	0	
0	0	0	0	0	516	508	0	0	
1	0	0	0	0	520	508	0	0	
2	0	0	0	0	520	510	0	0	
3	0	0	0	0	519	508	0	0	
4	0	0	0	0	515	508	0	0	
5	0	0	0	0	510	507	0	0	
6	0	0	0	0	507	509	0	0	
7	0	0	0	0	505	508	0	0	
8	0	0	0	0	504	511	0	0	
9	0	0	0	0	501	510	0	0	
10	0	0	0	0	502	508	0	0	
11	0	0	0	0	498	507	0	0	
12	0	0	0	0	501	508	0	0	
13	0	0	0	0	504	509	0	0	
14	0	0	0	0	510	509	0	0	
15	0	0	0	0	507	506	0	0	
0	0	0	0	0	514	508	0	0	
1	0	0	0	0	518	510	0	0	
2	0	0	0	0	518	509	0	0	
3	0	0	0	0	526	507	0	0	
4	0	0	0	0	519	507	0	0	
5	0	0	0	0	519	508	0	0	
6	0	0	0	0	518	508	0	0	
7	0	0	0	0	518	505	0	0	
8	0	0	0	0	515	508	0	0	
9	0	0	0	0	510	507	0	0	
10	0	0	0	0	506	508	0	0	
11	0	0	0	0	509	509	0	0	
12	0	0	0	0	505	510	0	0	
13	0	0	0	0	502	507	0	0	
14	0	0	0	0	504	507	0	0	
15	0	0	0	0	504	508	0	0	
0	0	0	0	0	504	508	0	0	
1	0	0	0	0	505	507	0	0	
2	0	0	0	0	506	508	0	0	
3	0	0	0	0	511	505	0	0	
4	0	0	0	0	513	508	0	0	
5	0	0	0	0	516	508	0	0	
6	0	0	0	0	518	509	0	0	
7	0	0	0	0	519	507	0	0	
8	0	0	0	0	521	506	0	0	
9	0	0	0	0	518	508	0	0	
10	0	0	0	0	516	507	0	0	
11	0	0	0	0	515	509	0	0	
12	0	0	0	0	514	507	0	0	
13	0	0	0	0	511	510	0	0	
14	0	0	0	0	509	507	0	0	
15	0	0	0	0	507	508	0	0	
0	0	0	0	0	504	509	0	0	
1	0	0	0	0	503	510	0	0	
2	0	0	0	0	504	507	0	0	
3	0	0	0	0	504	509	0	0	
4	0	0	0	0	508	510	0	0	
5	0	0	0	0	507	509	0	0	
6	0	0	0	0	506	508	0	0	
7	0	0	0	0	509	509	0	0	
8	0	0	0	0	513	507	0	0	
9	0	0	0	0	513	508	0	0	
10	0	0	0	0	519	506	0	0	
11	0	0	0	0	522	507	0	0	
12	0	0	0	0	520	508	0	0	
13	0	0	0	0	520	507	0	0	
14	0	0	0	0	516	508	0	0	
15	0	0	0	0	517	507	0	0	
0	0	0	0	0	513	509	0	0	
1	0	0	0	0	511	508	0	0	
2	0	0	0	0	510	508	0	0	
3	0	0	0	0	507	507	0	0	
4	0	0	0	0	503	510	0	0	
5	0	0	0	0	504	509	0	0	
6	0	0	0	0	502	509	0	0	
7	0	0	0	0	502	508	0	0	
8	0	0	0	0	503	506	0	0	
9	0	0	0	0	504	508	0	0	
10	0	0	0	0	509	508	0	0	
11	0	0	0	0	508	508	0	0	
12	0	0	0	0	516	508	0	0	
13	0	0	0	0	519	508	0	0	
14	0	0	0	0	518	507	0	0	
15	0	0	0	0	516	507	0	0	
0	0	0	0	0	519	509	0	0	
1	0	0	0	0	521	507	0	0	
2	0	0	0	0	519	508	0	0	
3	0	0	0	0	516	507	0	0	
4	0	0	0	0	513	508	0	0	
5	0	0	0	0	512	508	0	0	
6	0	0	0	0	509	509	0	0	
7	0	0	0	0	508	510	0	0	
8	0	0	0	0	504	508	0	0	
9	0	0	0	0	502	509	0	0	
10	0	0	0	0	502	508	0	0	
11	0	0	0	0	501	510	0	0	
12	0	0	0	0	503	510	0	0	
13	0	0	0	0	504	507	0	0	
14	0	0	0	0	507	508	0	0	
15	0	0	0	0	511	507	0	0	
0	0	0	0	0	514	507	0	0	
1	0	0	0	0	514	508	0	0	
2	0	0	0	0	519	507	0	0	
3	0	0	0	0	521	507	0	0	
4	0	0	0	0	520	506	0	0	
5	0	0	0	0	521	511	0	0	
6	0	0	0	0	518	511	0	0	
7	0	0	0	0	517	509	0	0	
8	0	0	0	0	513	507	0	0	
9	0	0	0	0	509	508	0	0	
10	0	0	0	0	508	506	0	0	
11	0	0	0	0	508	508	0	0	
12	0	0	0	0	505	510	0	0	
13	0	0	0	0	503	508	0	0	
14	0	0	0	0	502	508	0	0	
15	0	0	0	0	505	510	0	0	
0	0	0	0	0	502	507	0	0	
1	0	0	0	0	504	507	0	0	
2	0	0	0	0	508	508	0	0	
3	0	0	0	0	510	507	0	0	
4	0	0	0	0	511	508	0	0	
5	0	0	0	0	514	506	0	0	
6	0	0	0	0	517	508	0	0	
7	0	0	0	0	520	508	0	0	
8	0	0	0	0	522	505	0	0	
9	0	0	0	0	523	507	0	0	
10	0	0	0	0	519	507	0	0	
11	0	0	0	0	518	508	0	0	
12	0	0	0	0	515	509	0	0	
13	0	0	0	0	511	507	0	0	
14	0	0	0	0	510	507	0	0	
15	0	0	0	0	506	508	0	0	
0	0	0	0	0	507	505	0	0	
1	0	0	0	0	502	507	0	0	
2	0	0	0	0	501	509	0	0	
3	0	0	0	0	502	511	0	0	
4	0	0	0	0	503	510	0	0	
5	0	0	0	0	504	508	0	0	
6	0	0	0	0	507	508	0	0	
7	0	0	0	0	509	506	0	0	
8	0	0	0	0	513	507	0	0	
9	0	0	0	0	514	508	0	0	
10	0	0	0	0	518	508	0	0	
11	0	0	0	0	520	509	0	0	
12	0	0	0	0	526	507	0	0	
13	0	0	0	0	519	508	0	0	
14	0	0	0	0	517	509	0	0	
15	0	0	0	0	518	509	0	0	
0	0	0	0	0	514	508	0	0	
1	0	0	0	0	511	508	0	0	
2	0	0	0	0	507	508	0	0	
3	0	0	0	0	504	508	0	0	
4	0	0	0	0	503	508	0	0	
5	0	0	0	0	503	507	0	0	
6	0	0	0	0	505	510	0	0	
7	0	0	0	0	504	508	0	0	
8	0	0	0	0	503	508	0	0	
9	0	0	0	0	504	507	0	0	
10	0	0	0	0	505	506	0	0	
11	0	0	0	0	512	509	0	0	
12	0	0	0	0	513	509	0	0	
13	0	0	0	0	517	507	0	0	
14	0	0	0	0	520	507	0	0	
15	0	0	0	0	518	507	0	0	
0	0	0	0	0	520	507	0	0	
1	0	0	0	0	520	510	0	0	
2	0	0	0	0	518	509	0	0	
3	0	0	0	0	514	509	0	0	
4	0	0	0	0	511	508	0	0	
5	0	0	0	0	510	508	0	0	
6	0	0	0	0	508	508	0	0	
7	0	0	0	0	506	507	0	0	
8	0	0	0	0	505	509	0	0	
9	0	0	0	0	504	509	0	0	
10	0	0	0	0	499	507	0	0	
11	0	0	0	0	504	507	0	0	
12	0	0	0	0	504	508	0	0	
13	0	0	0	0	511	509	0	0	
14	0	0	0	0	510	510	0	0	
15	0	0	0	0	510	508	0	0	
0	0	0	0	0	511	507	0	0	
1	0	0	0	0	516	509	0	0	
2	0	0	0	0	517	506	0	0	
3	0	0	0	0	517	507	0	0	
4	0	0	0	0	519	506	0	0	
5	0	0	0	0	520	507	0	0	
6	0	0	0	0	519	508	0	0	
7	0	0	0	0	518	508	0	0	
8	0	0	0	0	515	507	0	0	
9	0	0	0	0	511	509	0	0	
10	0	0	0	0	507	508	0	0	
11	0	0	0	0	505	510	0	0	
12	0	0	0	0	505	509	0	0	
13	0	0	0	0	502	507	0	0	
14	0	0	0	0	500	506	0	0	
15	0	0	0	0	501	507	0	0	
0	0	0	0	0	503	510	0	0	
1	0	0	0	0	506	509	0	0	
2	0	0	0	0	505	509	0	0	
3	0	0	0	0	508	510	0	0	
4	0	0	0	0	514	507	0	0	
5	0	0	0	0	515	508	0	0	
6	0	0	0	0	519	508	0	0	
7	0	0	0	0	518	507	0	0	
8	0	0	0	0	522	508	0	0	
9	0	0	0	0	521	508	0	0	
10	0	0	0	0	517	507	0	0	
11	0	0	0	0	514	510	0	0	
12	0	0	0	0	513	504	0	0	
13	0	0	0	0	511	509	0	0	
14	0	0	0	0	508	508	0	0	
15	0	0	0	0	508	509	0	0	
0	0	0	0	0	505	508	0	0	
1	0	0	0	0	503	508	0	0	
2	0	0	0	0	503	509	0	0	
3	0	0	0	0	502	511	0	0	
4	0	0	0	0	504	507	0	0	
5	0	0	0	0	504	507	0	0	
6	0	0	0	0	507	508	0	0	
7	0	0	0	0	511	510	0	0	
8	0	0	0	0	513	509	0	0	
9	0	0	0	0	516	510	0	0	
10	0	0	0	0	516	508	0	0	
11	0	0	0	0	521	507	0	0	
12	0	0	0	0	519	506	0	0	
13	0	0	0	0	520	507	0	0	
14	0	0	0	0	518	507	0	0	
15	0	0	0	0	518	508	0	0	
0	0	0	0	0	514	505	0	0	
1	0	0	0	0	511	508	0	0	
2	0	0	0	0	508	508	0	0	
3	0	0	0	0	505	508	0	0	
4	0	0	0	0	504	509	0	0	
5	0	0	0	0	503	507	0	0	
6	0	0	0	0	500	509	0	0	
7	0	0	0	0	502	508	0	0	
8	0	0	0	0	503	509	0	0	
9	0	0	0	0	506	506	0	0	
10	0	0	0	0	508	507	0	0	
11	0	0	0	0	512	508	0	0	
12	0	0	0	0	515	507	0	0	
13	0	0	0	0	516	509	0	0	
14	0	0	0	0	516	508	0	0	
15	0	0	0	0	520	507	0	0	
0	0	0	0	0	520	508	0	0	
1	0	0	0	0	522	507	0	0	
2	0	0	0	0	521	510	0	0	
3	0	0	0	0	520	508	0	0	
4	0	0	0	0	514	508	0	0	
5	0	0	0	0	509	508	0	0	
6	0	0	0	0	506	508	0	0	
7	0	0	0	0	505	507	0	0	
8	0	0	0	0	504	510	0	0	
9	0	0	0	0	502	509	0	0	
10	0	0	0	0	499	509	0	0	
11	0	0	0	0	502	506	0	0	
12	0	0	0	0	507	508	0	0	
13	0	0	0	0	509	507	0	0	
14	0	0	0	0	509	509	0	0	
15	0	0	0	0	509	507	0	0	
0	0	0	0	0	513	507	0	0	
1	0	0	0	0	512	508	0	0	
2	0	0	0	0	518	507	0	0	
3	0	0	0	0	518	507	0	0	
4	0	0	0	0	522	508	0	0	
5	0	0	0	0	523	508	0	0	
6	0	0	0	0	519	509	0	0	
7	0	0	0	0	513	510	0	0	
8	0	0	0	0	512	507	0	0	
9	0	0	0	0	508	507	0	0	
10	0	0	0	0	507	507	0	0	
11	0	0	0	0	506	506	0	0	
12	0	0	0	0	504	509	0	0	
13	0	0	0	0	503	510	0	0	
14	0	0	0	0	504	510	0	0	
15	0	0	0	0	504	508	0	0	
0	0	0	0	0	502	507	0	0	
1	0	0	0	0	506	510	0	0	
2	0	0	0	0	507	508	0	0	
3	0	0	0	0	510	508	0	0	
4	0	0	0	0	513	508	0	0	
5	0	0	0	0	514	507	0	0	
6	0	0	0	0	519	507	0	0	
7	0	0	0	0	521	507	0	0	
8	0	0	0	0	520	509	0	0	
9	0	0	0	0	522	506	0	0	
10	0	0	0	0	518	507	0	0	
11	0	0	0	0	515	506	0	0	
12	0	0	0	0	514	505	0	0	
13	0	0	0	0	513	508	0	0	
14	0	0	0	0	510	509	0	0	
15	0	0	0	0	508	508	0	0	
0	0	0	0	0	505	511	0	0	
1	0	0	0	0	505	509	0	0	
2	0	0	0	0	502	512	0	0	
3	0	0	0	0	502	508	0	0	
4	0	0	0	0	502	507	0	0	
5	0	0	0	0	502	508	0	0	
6	0	0	0	0	507	508	0	0	
7	0	0	0	0	514	510	0	0	
8	0	0	0	0	514	508	0	0	
9	0	0	0	0	513	506	0	0	
10	0	0	0	0	516	507	0	0	
11	0	0	0	0	521	506	0	0	
12	0	0	0	0	522	508	0	0	
13	0	0	0	0	521	506	0	0	
14	0	0	0	0	518	508	0	0	
15	0	0	0	0	514	509	0	0	
0	0	0	0	0	513	506	0	0	
1	0	0	0	0	512	509	0	0	
2	0	0	0	0	509	507	0	0	
3	0	0	0	0	507	509	0	0	
4	0	0	0	0	502	507	0	0	
5	0	0	0	0	502	509	0	0	
6	0	0	0	0	503	508	0	0	
7	0	0	0	0	502	509	0	0	
8	0	0	0	0	501	507	0	0	
9	0	0	0	0	505	508	0	0	
10	0	0	0	0	508	508	0	0	
11	0	0	0	0	510	508	0	0	
12	0	0	0	0	513	508	0	0	
13	0	0	0	0	516	508	0	0	
14	0	0	0	0	517	508	0	0	
15	0	0	0	0	522	505	0	0	
0	0	0	0	0	520	508	0	0	
1	0	0	0	0	520	508	0	0	
2	0	0	0	0	519	507	0	0	
3	0	0	0	0	518	507	0	0	
4	0	0	0	0	514	507	0	0	
5	0	0	0	0	511	509	0	0	
6	0	0	0	0	509	508	0	0	
7	0	0	0	0	507	508	0	0	
8	0	0	0	0	505	507	0	0	
9	0	0	0	0	500	509	0	0	
10	0	0	0	0	500	508	0	0	
11	0	0	0	0	503	508	0	0	
12	0	0	0	0	503	509	0	0	
13	0	0	0	0	504	510	0	0	
14	0	0	0	0	507	508	0	0	
15	0	0	0	0	510	508	0	0	
0	0	0	0	0	514	508	0	0	
1	0	0	0	0	515	509	0	0	
2	0	0	0	0	519	508	0	0	
3	0	0	0	0	519	505	0	0	
4	0	0	0	0	521	508	0	0	
5	0	0	0	0	521	506	0	0	
6	0	0	0	0	519	507	0	0	
7	0	0	0	0	516	506	0	0	
8	0	0	0	0	514	506	0	0	
9	0	0	0	0	512	509	0	0	
10	0	0	0	0	507	507	0	0	
11	0	0	0	0	505	509	0	0	
12	0	0	0	0	503	508	0	0	
13	0	0	0	0	503	507	0	0	
14	0	0	0	0	503	508	0	0	
15	0	0	0	0	505	509	0	0	
0	0	0	0	0	504	508	0	0	
1	0	0	0	0	504	508	0	0	
2	0	0	0	0	507	509	0	0	
3	0	0	0	0	511	508	0	0	
4	0	0	0	0	512	507	0	0	
5	0	0	0	0	515	508	0	0	
6	0	0	0	0	519	508	0	0	
7	0	0	0	0	520	508	0	0	
8	0	0	0	0	520	508	0	0	
9	0	0	0	0	519	507	0	0	
10	0	0	0	0	517	505	0	0	
11	0	0	0	0	516	507	0	0	
12	0	0	0	0	515	507	0	0	
13	0	0	0	0	509	508	0	0	
14	0	0	0	0	507	509	0	0	
15	0	0	0	0	507	508	0	0	
0	0	0	0	0	506	509	0	0	
1	0	0	0	0	503	509	0	0	
2	0	0	0	0	500	508	0	0	
3	0	0	0	0	501	508	0	0	
4	0	0	0	0	505	509	0	0	
5	0	0	0	0	506	509	0	0	
6	0	0	0	0	507	506	0	0	
7	0	0	0	0	509	509	0	0	
8	0	0	0	0	512	509	0	0	
9	0	0	0	0	518	507	0	0	
10	0	0	0	0	520	508	0	0	
11	0	0	0	0	519	505	0	0	
12	0	0	0	0	523	507	0	0	
13	0	0	0	0	518	510	0	0	
14	0	0	0	0	518	508	0	0	
15	0	0	0	0	517	509	0	0	
0	0	0	0	0	512	508	0	0	
1	0	0	0	0	510	509	0	0	
2	0	0	0	0	509	509	0	0	
3	0	0	0	0	504	507	0	0	
4	0	0	0	0	503	507	0	0	
5	0	0	0	0	503	508	0	0	
6	0	0	0	0	505	508	0	0	
