# OpenSignals Text File Format. Version 1
# {"20:18:06:13:21:78": {"position": 0, "device": "bitalino_rev", "device name": "20:18:06:13:21:78", "device connection": "BTH20:18:06:13:21:78", "sampling rate": 1000, "resolution": [4, 1, 1, 1, 1, 10, 10, 10, 10], "firmware version": 1281, "comments": "", "keywords": "", "mode": 0, "sync interval": 2, "date": "2023-5-30", "time": "19:39:16.92", "channels": [1, 2, 3, 4], "sensor": ["EMGBITREV", "EMGBITREV", "RAW", "RAW"], "label": ["A1", "A2", "A3", "A4"], "column": ["nSeq", "I1", "I2", "O1", "O2", "A1", "A2", "A3", "A4"], "special": [{}, {}, {}, {}], "digital IO": [0, 0, 1, 1]}}
# EndOfHeader
0	0	0	0	0	512	508	0	0	
1	0	0	0	0	511	507	0	0	
2	0	0	0	0	512	507	0	0	
3	0	0	0	0	509	506	0	0	
4	0	0	0	0	511	507	0	0	
5	0	0	0	0	513	507	0	0	
6	0	0	0	0	511	508	0	0	
7	0	0	0	0	510	509	0	0	
8	0	0	0	0	512	509	0	0	
9	0	0	0	0	508	509	0	0	
10	0	0	0	0	511	507	0	0	
11	0	0	0	0	510	508	0	0	
12	0	0	0	0	512	508	0	0	
13	0	0	0	0	511	507	0	0	
14	0	0	0	0	509	509	0	0	
15	0	0	0	0	511	510	0	0	
0	0	0	0	0	511	509	0	0	
1	0	0	0	0	514	508	0	0	
2	0	0	0	0	511	508	0	0	
3	0	0	0	0	513	505	0	0	
4	0	0	0	0	511	506	0	0	
5	0	0	0	0	510	507	0	0	
6	0	0	0	0	507	508	0	0	
7	0	0	0	0	506	508	0	0	
8	0	0	0	0	510	507	0	0	
9	0	0	0	0	511	509	0	0	
10	0	0	0	0	510	506	0	0	
11	0	0	0	0	511	507	0	0	
12	0	0	0	0	515	509	0	0	
13	0	0	0	0	515	508	0	0	
14	0	0	0	0	512	510	0	0	
15	0	0	0	0	509	507	0	0	
0	0	0	0	0	509	508	0	0	
1	0	0	0	0	511	511	0	0	
2	0	0	0	0	514	510	0	0	
3	0	0	0	0	517	508	0	0	
4	0	0	0	0	513	506	0	0	
5	0	0	0	0	512	507	0	0	
6	0	0	0	0	512	508	0	0	
7	0	0	0	0	512	507	0	0	
8	0	0	0	0	513	507	0	0	
9	0	0	0	0	513	509	0	0	
10	0	0	0	0	512	508	0	0	
11	0	0	0	0	511	508	0	0	
12	0	0	0	0	510	509	0	0	
13	0	0	0	0	508	506	0	0	
14	0	0	0	0	506	505	0	0	
15	0	0	0	0	508	508	0	0	
0	0	0	0	0	509	509	0	0	
1	0	0	0	0	511	509	0	0	
2	0	0	0	0	511	511	0	0	
3	0	0	0	0	511	508	0	0	
4	0	0	0	0	510	510	0	0	
5	0	0	0	0	511	508	0	0	
6	0	0	0	0	510	510	0	0	
7	0	0	0	0	510	510	0	0	
8	0	0	0	0	512	509	0	0	
9	0	0	0	0	513	508	0	0	
10	0	0	0	0	511	508	0	0	
11	0	0	0	0	510	507	0	0	
12	0	0	0	0	512	506	0	0	
13	0	0	0	0	512	508	0	0	
14	0	0	0	0	510	508	0	0	
15	0	0	0	0	512	505	0	0	
0	0	0	0	0	511	507	0	0	
1	0	0	0	0	513	506	0	0	
2	0	0	0	0	509	508	0	0	
3	0	0	0	0	511	509	0	0	
4	0	0	0	0	511	509	0	0	
5	0	0	0	0	513	508	0	0	
6	0	0	0	0	515	510	0	0	
7	0	0	0	0	513	509	0	0	
8	0	0	0	0	512	509	0	0	
9	0	0	0	0	513	510	0	0	
10	0	0	0	0	510	508	0	0	
11	0	0	0	0	510	508	0	0	
12	0	0	0	0	511	511	0	0	
13	0	0	0	0	510	506	0	0	
14	0	0	0	0	510	507	0	0	
15	0	0	0	0	510	508	0	0	
0	0	0	0	0	508	507	0	0	
1	0	0	0	0	510	510	0	0	
2	0	0	0	0	509	507	0	0	
3	0	0	0	0	513	507	0	0	
4	0	0	0	0	513	504	0	0	
5	0	0	0	0	513	506	0	0	
6	0	0	0	0	512	508	0	0	
7	0	0	0	0	510	509	0	0	
8	0	0	0	0	510	507	0	0	
9	0	0	0	0	509	510	0	0	
10	0	0	0	0	510	509	0	0	
11	0	0	0	0	511	509	0	0	
12	0	0	0	0	512	510	0	0	
13	0	0	0	0	510	507	0	0	
14	0	0	0	0	508	509	0	0	
15	0	0	0	0	511	508	0	0	
0	0	0	0	0	509	508	0	0	
1	0	0	0	0	511	508	0	0	
2	0	0	0	0	512	508	0	0	
3	0	0	0	0	512	509	0	0	
4	0	0	0	0	511	506	0	0	
5	0	0	0	0	512	509	0	0	
6	0	0	0	0	512	508	0	0	
7	0	0	0	0	512	506	0	0	
8	0	0	0	0	511	508	0	0	
9	0	0	0	0	515	504	0	0	
10	0	0	0	0	512	507	0	0	
11	0	0	0	0	513	508	0	0	
12	0	0	0	0	514	508	0	0	
13	0	0	0	0	509	508	0	0	
14	0	0	0	0	508	508	0	0	
15	0	0	0	0	511	509	0	0	
0	0	0	0	0	508	509	0	0	
1	0	0	0	0	510	510	0	0	
2	0	0	0	0	512	508	0	0	
3	0	0	0	0	510	508	0	0	
4	0	0	0	0	509	509	0	0	
5	0	0	0	0	512	508	0	0	
6	0	0	0	0	512	507	0	0	
7	0	0	0	0	511	508	0	0	
8	0	0	0	0	513	508	0	0	
9	0	0	0	0	511	507	0	0	
10	0	0	0	0	513	506	0	0	
11	0	0	0	0	512	508	0	0	
12	0	0	0	0	511	507	0	0	
13	0	0	0	0	511	508	0	0	
14	0	0	0	0	511	508	0	0	
15	0	0	0	0	508	508	0	0	
0	0	0	0	0	508	508	0	0	
1	0	0	0	0	511	509	0	0	
2	0	0	0	0	510	508	0	0	
3	0	0	0	0	512	510	0	0	
4	0	0	0	0	512	508	0	0	
5	0	0	0	0	515	509	0	0	
6	0	0	0	0	510	508	0	0	
7	0	0	0	0	513	510	0	0	
8	0	0	0	0	508	509	0	0	
9	0	0	0	0	507	508	0	0	
10	0	0	0	0	507	509	0	0	
11	0	0	0	0	509	505	0	0	
12	0	0	0	0	509	508	0	0	
13	0	0	0	0	510	508	0	0	
14	0	0	0	0	512	509	0	0	
15	0	0	0	0	512	509	0	0	
0	0	0	0	0	513	509	0	0	
1	0	0	0	0	516	507	0	0	
2	0	0	0	0	516	506	0	0	
3	0	0	0	0	511	507	0	0	
4	0	0	0	0	510	507	0	0	
5	0	0	0	0	513	508	0	0	
6	0	0	0	0	511	509	0	0	
7	0	0	0	0	512	508	0	0	
8	0	0	0	0	511	508	0	0	
9	0	0	0	0	510	508	0	0	
10	0	0	0	0	509	510	0	0	
11	0	0	0	0	510	510	0	0	
12	0	0	0	0	511	510	0	0	
13	0	0	0	0	509	507	0	0	
14	0	0	0	0	511	506	0	0	
15	0	0	0	0	511	507	0	0	
0	0	0	0	0	512	507	0	0	
1	0	0	0	0	511	508	0	0	
2	0	0	0	0	507	507	0	0	
3	0	0	0	0	508	507	0	0	
4	0	0	0	0	509	509	0	0	
5	0	0	0	0	509	507	0	0	
6	0	0	0	0	508	506	0	0	
7	0	0	0	0	509	508	0	0	
8	0	0	0	0	513	508	0	0	
9	0	0	0	0	515	508	0	0	
10	0	0	0	0	516	509	0	0	
11	0	0	0	0	513	509	0	0	
12	0	0	0	0	511	510	0	0	
13	0	0	0	0	511	510	0	0	
14	0	0	0	0	510	509	0	0	
15	0	0	0	0	511	509	0	0	
0	0	0	0	0	512	508	0	0	
1	0	0	0	0	510	509	0	0	
2	0	0	0	0	510	507	0	0	
3	0	0	0	0	510	508	0	0	
4	0	0	0	0	509	507	0	0	
5	0	0	0	0	509	507	0	0	
6	0	0	0	0	508	507	0	0	
7	0	0	0	0	506	504	0	0	
8	0	0	0	0	510	508	0	0	
9	0	0	0	0	511	507	0	0	
10	0	0	0	0	510	508	0	0	
11	0	0	0	0	511	509	0	0	
12	0	0	0	0	520	508	0	0	
13	0	0	0	0	521	509	0	0	
14	0	0	0	0	516	510	0	0	
15	0	0	0	0	513	509	0	0	
0	0	0	0	0	511	508	0	0	
1	0	0	0	0	509	509	0	0	
2	0	0	0	0	508	510	0	0	
3	0	0	0	0	508	509	0	0	
4	0	0	0	0	508	508	0	0	
5	0	0	0	0	509	504	0	0	
6	0	0	0	0	510	505	0	0	
7	0	0	0	0	512	506	0	0	
8	0	0	0	0	510	508	0	0	
9	0	0	0	0	511	511	0	0	
10	0	0	0	0	512	508	0	0	
11	0	0	0	0	511	508	0	0	
12	0	0	0	0	513	507	0	0	
13	0	0	0	0	512	506	0	0	
14	0	0	0	0	511	506	0	0	
15	0	0	0	0	511	508	0	0	
0	0	0	0	0	513	508	0	0	
1	0	0	0	0	514	508	0	0	
2	0	0	0	0	511	509	0	0	
3	0	0	0	0	510	511	0	0	
4	0	0	0	0	511	511	0	0	
5	0	0	0	0	512	510	0	0	
6	0	0	0	0	511	508	0	0	
7	0	0	0	0	510	508	0	0	
8	0	0	0	0	510	508	0	0	
9	0	0	0	0	508	507	0	0	
10	0	0	0	0	510	507	0	0	
11	0	0	0	0	514	508	0	0	
12	0	0	0	0	514	507	0	0	
13	0	0	0	0	511	508	0	0	
14	0	0	0	0	509	508	0	0	
15	0	0	0	0	510	508	0	0	
0	0	0	0	0	509	507	0	0	
1	0	0	0	0	510	506	0	0	
2	0	0	0	0	508	508	0	0	
3	0	0	0	0	508	508	0	0	
4	0	0	0	0	507	510	0	0	
5	0	0	0	0	511	508	0	0	
6	0	0	0	0	510	510	0	0	
7	0	0	0	0	513	509	0	0	
8	0	0	0	0	516	507	0	0	
9	0	0	0	0	516	508	0	0	
10	0	0	0	0	513	509	0	0	
11	0	0	0	0	511	508	0	0	
12	0	0	0	0	512	509	0	0	
13	0	0	0	0	512	506	0	0	
14	0	0	0	0	511	509	0	0	
15	0	0	0	0	512	508	0	0	
0	0	0	0	0	512	508	0	0	
1	0	0	0	0	510	507	0	0	
2	0	0	0	0	509	508	0	0	
3	0	0	0	0	509	508	0	0	
4	0	0	0	0	509	506	0	0	
5	0	0	0	0	510	506	0	0	
6	0	0	0	0	512	508	0	0	
7	0	0	0	0	509	509	0	0	
8	0	0	0	0	508	507	0	0	
9	0	0	0	0	510	508	0	0	
10	0	0	0	0	511	510	0	0	
11	0	0	0	0	509	508	0	0	
12	0	0	0	0	511	507	0	0	
13	0	0	0	0	513	510	0	0	
14	0	0	0	0	512	508	0	0	
15	0	0	0	0	507	510	0	0	
0	0	0	0	0	512	508	0	0	
1	0	0	0	0	513	508	0	0	
2	0	0	0	0	510	507	0	0	
3	0	0	0	0	512	507	0	0	
4	0	0	0	0	511	507	0	0	
5	0	0	0	0	512	507	0	0	
6	0	0	0	0	512	508	0	0	
7	0	0	0	0	512	508	0	0	
8	0	0	0	0	507	507	0	0	
9	0	0	0	0	512	506	0	0	
10	0	0	0	0	509	508	0	0	
11	0	0	0	0	508	507	0	0	
12	0	0	0	0	509	508	0	0	
13	0	0	0	0	513	510	0	0	
14	0	0	0	0	510	509	0	0	
15	0	0	0	0	513	510	0	0	
0	0	0	0	0	513	508	0	0	
1	0	0	0	0	512	509	0	0	
2	0	0	0	0	513	508	0	0	
3	0	0	0	0	512	508	0	0	
4	0	0	0	0	511	509	0	0	
5	0	0	0	0	507	508	0	0	
6	0	0	0	0	509	509	0	0	
7	0	0	0	0	508	507	0	0	
8	0	0	0	0	508	503	0	0	
9	0	0	0	0	508	508	0	0	
10	0	0	0	0	512	507	0	0	
11	0	0	0	0	519	507	0	0	
12	0	0	0	0	518	508	0	0	
13	0	0	0	0	516	508	0	0	
14	0	0	0	0	513	506	0	0	
15	0	0	0	0	513	508	0	0	
0	0	0	0	0	513	508	0	0	
1	0	0	0	0	511	511	0	0	
2	0	0	0	0	509	508	0	0	
3	0	0	0	0	511	510	0	0	
4	0	0	0	0	511	512	0	0	
5	0	0	0	0	511	507	0	0	
6	0	0	0	0	508	509	0	0	
7	0	0	0	0	510	508	0	0	
8	0	0	0	0	512	508	0	0	
9	0	0	0	0	511	507	0	0	
10	0	0	0	0	511	508	0	0	
11	0	0	0	0	510	507	0	0	
12	0	0	0	0	512	507	0	0	
13	0	0	0	0	509	506	0	0	
14	0	0	0	0	509	506	0	0	
15	0	0	0	0	511	507	0	0	
0	0	0	0	0	511	507	0	0	
1	0	0	0	0	512	507	0	0	
2	0	0	0	0	511	507	0	0	
3	0	0	0	0	511	509	0	0	
4	0	0	0	0	511	509	0	0	
5	0	0	0	0	507	511	0	0	
6	0	0	0	0	508	509	0	0	
7	0	0	0	0	511	509	0	0	
8	0	0	0	0	513	509	0	0	
9	0	0	0	0	511	508	0	0	
10	0	0	0	0	515	508	0	0	
11	0	0	0	0	518	508	0	0	
12	0	0	0	0	517	508	0	0	
13	0	0	0	0	511	509	0	0	
14	0	0	0	0	511	507	0	0	
15	0	0	0	0	511	508	0	0	
0	0	0	0	0	509	506	0	0	
1	0	0	0	0	506	508	0	0	
2	0	0	0	0	508	508	0	0	
3	0	0	0	0	506	508	0	0	
4	0	0	0	0	511	507	0	0	
5	0	0	0	0	513	505	0	0	
6	0	0	0	0	512	507	0	0	
7	0	0	0	0	512	508	0	0	
8	0	0	0	0	510	510	0	0	
9	0	0	0	0	509	510	0	0	
10	0	0	0	0	510	511	0	0	
11	0	0	0	0	510	508	0	0	
12	0	0	0	0	511	508	0	0	
13	0	0	0	0	511	509	0	0	
14	0	0	0	0	511	508	0	0	
15	0	0	0	0	512	508	0	0	
0	0	0	0	0	513	511	0	0	
1	0	0	0	0	513	508	0	0	
2	0	0	0	0	511	506	0	0	
3	0	0	0	0	515	507	0	0	
4	0	0	0	0	515	505	0	0	
5	0	0	0	0	511	509	0	0	
6	0	0	0	0	511	505	0	0	
7	0	0	0	0	512	507	0	0	
8	0	0	0	0	510	507	0	0	
9	0	0	0	0	510	505	0	0	
10	0	0	0	0	510	510	0	0	
11	0	0	0	0	509	508	0	0	
12	0	0	0	0	509	509	0	0	
13	0	0	0	0	508	510	0	0	
14	0	0	0	0	511	511	0	0	
15	0	0	0	0	511	510	0	0	
0	0	0	0	0	510	511	0	0	
1	0	0	0	0	512	509	0	0	
2	0	0	0	0	511	510	0	0	
3	0	0	0	0	511	509	0	0	
4	0	0	0	0	511	508	0	0	
5	0	0	0	0	510	504	0	0	
6	0	0	0	0	512	507	0	0	
7	0	0	0	0	511	507	0	0	
8	0	0	0	0	506	508	0	0	
9	0	0	0	0	507	508	0	0	
10	0	0	0	0	506	507	0	0	
11	0	0	0	0	512	507	0	0	
12	0	0	0	0	514	508	0	0	
13	0	0	0	0	515	507	0	0	
14	0	0	0	0	519	507	0	0	
15	0	0	0	0	521	510	0	0	
0	0	0	0	0	515	508	0	0	
1	0	0	0	0	508	508	0	0	
2	0	0	0	0	504	509	0	0	
3	0	0	0	0	509	508	0	0	
4	0	0	0	0	509	509	0	0	
5	0	0	0	0	512	508	0	0	
6	0	0	0	0	511	510	0	0	
7	0	0	0	0	512	510	0	0	
8	0	0	0	0	514	508	0	0	
9	0	0	0	0	515	506	0	0	
10	0	0	0	0	516	507	0	0	
11	0	0	0	0	512	507	0	0	
12	0	0	0	0	508	507	0	0	
13	0	0	0	0	508	507	0	0	
14	0	0	0	0	509	508	0	0	
15	0	0	0	0	508	508	0	0	
0	0	0	0	0	510	507	0	0	
1	0	0	0	0	508	508	0	0	
2	0	0	0	0	508	509	0	0	
3	0	0	0	0	509	507	0	0	
4	0	0	0	0	510	508	0	0	
5	0	0	0	0	508	506	0	0	
6	0	0	0	0	510	509	0	0	
7	0	0	0	0	511	509	0	0	
8	0	0	0	0	510	507	0	0	
9	0	0	0	0	513	511	0	0	
10	0	0	0	0	513	507	0	0	
11	0	0	0	0	514	508	0	0	
12	0	0	0	0	517	508	0	0	
13	0	0	0	0	518	508	0	0	
14	0	0	0	0	512	508	0	0	
15	0	0	0	0	509	508	0	0	
0	0	0	0	0	502	507	0	0	
1	0	0	0	0	503	508	0	0	
2	0	0	0	0	509	507	0	0	
3	0	0	0	0	509	508	0	0	
4	0	0	0	0	507	507	0	0	
5	0	0	0	0	508	508	0	0	
6	0	0	0	0	509	508	0	0	
7	0	0	0	0	509	508	0	0	
8	0	0	0	0	511	508	0	0	
9	0	0	0	0	512	509	0	0	
10	0	0	0	0	513	508	0	0	
11	0	0	0	0	513	508	0	0	
12	0	0	0	0	511	507	0	0	
13	0	0	0	0	513	507	0	0	
14	0	0	0	0	514	509	0	0	
15	0	0	0	0	514	509	0	0	
0	0	0	0	0	514	507	0	0	
1	0	0	0	0	511	509	0	0	
2	0	0	0	0	510	508	0	0	
3	0	0	0	0	509	508	0	0	
4	0	0	0	0	510	507	0	0	
5	0	0	0	0	510	508	0	0	
6	0	0	0	0	512	507	0	0	
7	0	0	0	0	513	508	0	0	
8	0	0	0	0	512	508	0	0	
9	0	0	0	0	515	505	0	0	
10	0	0	0	0	516	507	0	0	
11	0	0	0	0	514	509	0	0	
12	0	0	0	0	511	509	0	0	
13	0	0	0	0	510	510	0	0	
14	0	0	0	0	509	508	0	0	
15	0	0	0	0	510	507	0	0	
0	0	0	0	0	511	507	0	0	
1	0	0	0	0	512	509	0	0	
2	0	0	0	0	512	509	0	0	
3	0	0	0	0	511	509	0	0	
4	0	0	0	0	512	509	0	0	
5	0	0	0	0	510	509	0	0	
6	0	0	0	0	513	507	0	0	
7	0	0	0	0	512	505	0	0	
8	0	0	0	0	512	506	0	0	
9	0	0	0	0	511	506	0	0	
10	0	0	0	0	508	507	0	0	
11	0	0	0	0	507	508	0	0	
12	0	0	0	0	511	507	0	0	
13	0	0	0	0	511	508	0	0	
14	0	0	0	0	511	509	0	0	
15	0	0	0	0	507	507	0	0	
0	0	0	0	0	510	506	0	0	
1	0	0	0	0	511	508	0	0	
2	0	0	0	0	511	510	0	0	
3	0	0	0	0	509	508	0	0	
4	0	0	0	0	512	509	0	0	
5	0	0	0	0	508	508	0	0	
6	0	0	0	0	509	508	0	0	
7	0	0	0	0	507	511	0	0	
8	0	0	0	0	509	510	0	0	
9	0	0	0	0	513	507	0	0	
10	0	0	0	0	515	508	0	0	
11	0	0	0	0	518	506	0	0	
12	0	0	0	0	521	506	0	0	
13	0	0	0	0	521	508	0	0	
14	0	0	0	0	520	507	0	0	
15	0	0	0	0	510	508	0	0	
0	0	0	0	0	509	507	0	0	
1	0	0	0	0	508	505	0	0	
2	0	0	0	0	510	507	0	0	
3	0	0	0	0	506	508	0	0	
4	0	0	0	0	509	510	0	0	
5	0	0	0	0	506	508	0	0	
6	0	0	0	0	509	507	0	0	
7	0	0	0	0	511	509	0	0	
8	0	0	0	0	511	510	0	0	
9	0	0	0	0	509	510	0	0	
10	0	0	0	0	513	510	0	0	
11	0	0	0	0	513	508	0	0	
12	0	0	0	0	515	507	0	0	
13	0	0	0	0	513	508	0	0	
14	0	0	0	0	512	507	0	0	
15	0	0	0	0	509	508	0	0	
0	0	0	0	0	508	505	0	0	
1	0	0	0	0	505	506	0	0	
2	0	0	0	0	510	508	0	0	
3	0	0	0	0	511	508	0	0	
4	0	0	0	0	511	507	0	0	
5	0	0	0	0	510	507	0	0	
6	0	0	0	0	513	509	0	0	
7	0	0	0	0	514	508	0	0	
8	0	0	0	0	510	510	0	0	
9	0	0	0	0	508	509	0	0	
10	0	0	0	0	508	508	0	0	
11	0	0	0	0	511	508	0	0	
12	0	0	0	0	513	508	0	0	
13	0	0	0	0	512	508	0	0	
14	0	0	0	0	514	508	0	0	
15	0	0	0	0	512	509	0	0	
0	0	0	0	0	509	509	0	0	
1	0	0	0	0	512	508	0	0	
2	0	0	0	0	512	507	0	0	
3	0	0	0	0	518	507	0	0	
4	0	0	0	0	516	504	0	0	
5	0	0	0	0	514	506	0	0	
6	0	0	0	0	512	507	0	0	
7	0	0	0	0	509	507	0	0	
8	0	0	0	0	510	506	0	0	
9	0	0	0	0	506	508	0	0	
10	0	0	0	0	510	507	0	0	
11	0	0	0	0	510	508	0	0	
12	0	0	0	0	508	508	0	0	
13	0	0	0	0	511	508	0	0	
14	0	0	0	0	508	510	0	0	
15	0	0	0	0	509	510	0	0	
0	0	0	0	0	513	507	0	0	
1	0	0	0	0	514	509	0	0	
2	0	0	0	0	510	508	0	0	
3	0	0	0	0	510	511	0	0	
4	0	0	0	0	511	507	0	0	
5	0	0	0	0	511	508	0	0	
6	0	0	0	0	510	508	0	0	
7	0	0	0	0	512	506	0	0	
8	0	0	0	0	512	508	0	0	
9	0	0	0	0	510	506	0	0	
10	0	0	0	0	512	508	0	0	
11	0	0	0	0	515	508	0	0	
12	0	0	0	0	511	507	0	0	
13	0	0	0	0	514	507	0	0	
14	0	0	0	0	511	509	0	0	
15	0	0	0	0	507	509	0	0	
0	0	0	0	0	507	509	0	0	
1	0	0	0	0	509	509	0	0	
2	0	0	0	0	511	510	0	0	
3	0	0	0	0	512	508	0	0	
4	0	0	0	0	512	508	0	0	
5	0	0	0	0	511	509	0	0	
6	0	0	0	0	508	508	0	0	
7	0	0	0	0	509	507	0	0	
8	0	0	0	0	510	508	0	0	
9	0	0	0	0	515	508	0	0	
10	0	0	0	0	514	507	0	0	
11	0	0	0	0	516	507	0	0	
12	0	0	0	0	512	508	0	0	
13	0	0	0	0	512	508	0	0	
14	0	0	0	0	512	508	0	0	
15	0	0	0	0	512	507	0	0	
0	0	0	0	0	509	508	0	0	
1	0	0	0	0	508	507	0	0	
2	0	0	0	0	508	506	0	0	
3	0	0	0	0	507	509	0	0	
4	0	0	0	0	510	509	0	0	
5	0	0	0	0	511	509	0	0	
6	0	0	0	0	514	508	0	0	
7	0	0	0	0	515	508	0	0	
8	0	0	0	0	512	509	0	0	
9	0	0	0	0	511	508	0	0	
10	0	0	0	0	506	510	0	0	
11	0	0	0	0	508	508	0	0	
12	0	0	0	0	510	510	0	0	
13	0	0	0	0	512	507	0	0	
14	0	0	0	0	518	505	0	0	
15	0	0	0	0	519	504	0	0	
0	0	0	0	0	515	508	0	0	
1	0	0	0	0	511	507	0	0	
2	0	0	0	0	510	507	0	0	
3	0	0	0	0	510	509	0	0	
4	0	0	0	0	512	507	0	0	
5	0	0	0	0	508	506	0	0	
6	0	0	0	0	508	506	0	0	
7	0	0	0	0	504	507	0	0	
8	0	0	0	0	507	508	0	0	
9	0	0	0	0	509	509	0	0	
10	0	0	0	0	508	511	0	0	
11	0	0	0	0	517	509	0	0	
12	0	0	0	0	524	508	0	0	
13	0	0	0	0	516	510	0	0	
14	0	0	0	0	513	509	0	0	
15	0	0	0	0	508	510	0	0	
0	0	0	0	0	510	512	0	0	
1	0	0	0	0	510	506	0	0	
2	0	0	0	0	509	506	0	0	
3	0	0	0	0	510	508	0	0	
4	0	0	0	0	507	506	0	0	
5	0	0	0	0	509	508	0	0	
6	0	0	0	0	508	508	0	0	
7	0	0	0	0	510	507	0	0	
8	0	0	0	0	510	508	0	0	
9	0	0	0	0	510	510	0	0	
10	0	0	0	0	511	509	0	0	
11	0	0	0	0	509	506	0	0	
12	0	0	0	0	510	508	0	0	
13	0	0	0	0	511	508	0	0	
14	0	0	0	0	511	509	0	0	
15	0	0	0	0	511	510	0	0	
0	0	0	0	0	511	510	0	0	
1	0	0	0	0	512	508	0	0	
2	0	0	0	0	513	510	0	0	
3	0	0	0	0	515	509	0	0	
4	0	0	0	0	513	507	0	0	
5	0	0	0	0	513	507	0	0	
6	0	0	0	0	511	506	0	0	
7	0	0	0	0	510	508	0	0	
8	0	0	0	0	507	505	0	0	
9	0	0	0	0	507	505	0	0	
10	0	0	0	0	510	508	0	0	
11	0	0	0	0	508	507	0	0	
12	0	0	0	0	512	507	0	0	
13	0	0	0	0	512	506	0	0	
14	0	0	0	0	515	507	0	0	
15	0	0	0	0	517	510	0	0	
0	0	0	0	0	511	509	0	0	
1	0	0	0	0	510	508	0	0	
2	0	0	0	0	512	507	0	0	
3	0	0	0	0	510	511	0	0	
4	0	0	0	0	509	508	0	0	
5	0	0	0	0	509	507	0	0	
6	0	0	0	0	511	507	0	0	
7	0	0	0	0	510	509	0	0	
8	0	0	0	0	513	508	0	0	
9	0	0	0	0	515	508	0	0	
10	0	0	0	0	514	508	0	0	
11	0	0	0	0	512	507	0	0	
12	0	0	0	0	511	506	0	0	
13	0	0	0	0	511	507	0	0	
14	0	0	0	0	511	506	0	0	
15	0	0	0	0	509	508	0	0	
0	0	0	0	0	512	507	0	0	
1	0	0	0	0	512	508	0	0	
2	0	0	0	0	511	509	0	0	
3	0	0	0	0	508	508	0	0	
4	0	0	0	0	507	508	0	0	
5	0	0	0	0	507	509	0	0	
6	0	0	0	0	509	509	0	0	
7	0	0	0	0	511	508	0	0	
8	0	0	0	0	510	508	0	0	
9	0	0	0	0	513	508	0	0	
10	0	0	0	0	512	508	0	0	
11	0	0	0	0	509	508	0	0	
12	0	0	0	0	510	508	0	0	
13	0	0	0	0	514	508	0	0	
14	0	0	0	0	511	507	0	0	
15	0	0	0	0	511	509	0	0	
0	0	0	0	0	511	508	0	0	
1	0	0	0	0	510	507	0	0	
2	0	0	0	0	511	507	0	0	
3	0	0	0	0	507	507	0	0	
4	0	0	0	0	510	507	0	0	
5	0	0	0	0	518	508	0	0	
6	0	0	0	0	516	507	0	0	
7	0	0	0	0	511	507	0	0	
8	0	0	0	0	511	510	0	0	
9	0	0	0	0	513	508	0	0	
10	0	0	0	0	512	510	0	0	
11	0	0	0	0	511	508	0	0	
12	0	0	0	0	511	507	0	0	
13	0	0	0	0	511	509	0	0	
14	0	0	0	0	508	510	0	0	
15	0	0	0	0	508	510	0	0	
0	0	0	0	0	515	507	0	0	
1	0	0	0	0	514	507	0	0	
2	0	0	0	0	512	507	0	0	
3	0	0	0	0	509	506	0	0	
4	0	0	0	0	512	507	0	0	
5	0	0	0	0	511	508	0	0	
6	0	0	0	0	508	507	0	0	
7	0	0	0	0	510	508	0	0	
8	0	0	0	0	508	508	0	0	
9	0	0	0	0	507	508	0	0	
10	0	0	0	0	508	508	0	0	
11	0	0	0	0	509	509	0	0	
12	0	0	0	0	511	508	0	0	
13	0	0	0	0	514	507	0	0	
14	0	0	0	0	514	507	0	0	
15	0	0	0	0	513	508	0	0	
0	0	0	0	0	515	509	0	0	
1	0	0	0	0	516	508	0	0	
2	0	0	0	0	514	507	0	0	
3	0	0	0	0	512	508	0	0	
4	0	0	0	0	515	508	0	0	
5	0	0	0	0	513	507	0	0	
6	0	0	0	0	512	506	0	0	
7	0	0	0	0	505	507	0	0	
8	0	0	0	0	505	507	0	0	
9	0	0	0	0	509	508	0	0	
10	0	0	0	0	513	506	0	0	
11	0	0	0	0	514	507	0	0	
12	0	0	0	0	514	508	0	0	
13	0	0	0	0	513	508	0	0	
14	0	0	0	0	511	510	0	0	
15	0	0	0	0	509	509	0	0	
0	0	0	0	0	507	510	0	0	
1	0	0	0	0	510	511	0	0	
2	0	0	0	0	510	508	0	0	
3	0	0	0	0	511	510	0	0	
4	0	0	0	0	510	508	0	0	
5	0	0	0	0	512	508	0	0	
6	0	0	0	0	511	507	0	0	
7	0	0	0	0	511	508	0	0	
8	0	0	0	0	510	508	0	0	
9	0	0	0	0	511	508	0	0	
10	0	0	0	0	510	508	0	0	
11	0	0	0	0	509	507	0	0	
12	0	0	0	0	510	505	0	0	
13	0	0	0	0	511	505	0	0	
14	0	0	0	0	512	506	0	0	
15	0	0	0	0	511	508	0	0	
0	0	0	0	0	508	508	0	0	
1	0	0	0	0	508	508	0	0	
2	0	0	0	0	510	509	0	0	
3	0	0	0	0	511	508	0	0	
4	0	0	0	0	511	507	0	0	
5	0	0	0	0	510	509	0	0	
6	0	0	0	0	510	510	0	0	
7	0	0	0	0	510	508	0	0	
8	0	0	0	0	510	510	0	0	
9	0	0	0	0	510	509	0	0	
10	0	0	0	0	510	510	0	0	
11	0	0	0	0	511	509	0	0	
12	0	0	0	0	513	507	0	0	
13	0	0	0	0	514	507	0	0	
14	0	0	0	0	515	505	0	0	
15	0	0	0	0	515	505	0	0	
0	0	0	0	0	513	506	0	0	
1	0	0	0	0	510	508	0	0	
2	0	0	0	0	512	509	0	0	
3	0	0	0	0	509	509	0	0	
4	0	0	0	0	505	508	0	0	
5	0	0	0	0	507	508	0	0	
6	0	0	0	0	510	508	0	0	
7	0	0	0	0	516	510	0	0	
8	0	0	0	0	516	508	0	0	
9	0	0	0	0	511	509	0	0	
10	0	0	0	0	510	507	0	0	
11	0	0	0	0	511	508	0	0	
12	0	0	0	0	511	508	0	0	
13	0	0	0	0	513	507	0	0	
14	0	0	0	0	512	509	0	0	
15	0	0	0	0	508	510	0	0	
0	0	0	0	0	509	509	0	0	
1	0	0	0	0	512	508	0	0	
2	0	0	0	0	512	508	0	0	
3	0	0	0	0	511	509	0	0	
4	0	0	0	0	510	506	0	0	
5	0	0	0	0	509	508	0	0	
6	0	0	0	0	510	510	0	0	
7	0	0	0	0	511	508	0	0	
8	0	0	0	0	513	507	0	0	
9	0	0	0	0	513	508	0	0	
10	0	0	0	0	511	507	0	0	
11	0	0	0	0	510	508	0	0	
12	0	0	0	0	511	507	0	0	
13	0	0	0	0	511	507	0	0	
14	0	0	0	0	511	508	0	0	
15	0	0	0	0	510	510	0	0	
0	0	0	0	0	511	508	0	0	
1	0	0	0	0	511	507	0	0	
2	0	0	0	0	510	508	0	0	
3	0	0	0	0	512	511	0	0	
4	0	0	0	0	511	508	0	0	
5	0	0	0	0	510	508	0	0	
6	0	0	0	0	512	508	0	0	
7	0	0	0	0	511	505	0	0	
8	0	0	0	0	510	505	0	0	
9	0	0	0	0	512	507	0	0	
10	0	0	0	0	511	510	0	0	
11	0	0	0	0	510	510	0	0	
12	0	0	0	0	511	508	0	0	
13	0	0	0	0	511	507	0	0	
14	0	0	0	0	511	506	0	0	
15	0	0	0	0	513	508	0	0	
0	0	0	0	0	512	510	0	0	
1	0	0	0	0	511	510	0	0	
2	0	0	0	0	512	508	0	0	
3	0	0	0	0	510	509	0	0	
4	0	0	0	0	508	508	0	0	
5	0	0	0	0	511	510	0	0	
6	0	0	0	0	516	508	0	0	
7	0	0	0	0	512	509	0	0	
8	0	0	0	0	511	506	0	0	
9	0	0	0	0	512	507	0	0	
10	0	0	0	0	513	507	0	0	
11	0	0	0	0	510	508	0	0	
12	0	0	0	0	510	508	0	0	
13	0	0	0	0	511	509	0	0	
14	0	0	0	0	512	508	0	0	
15	0	0	0	0	512	509	0	0	
0	0	0	0	0	510	508	0	0	
1	0	0	0	0	511	507	0	0	
2	0	0	0	0	510	508	0	0	
3	0	0	0	0	510	509	0	0	
4	0	0	0	0	507	509	0	0	
5	0	0	0	0	509	508	0	0	
6	0	0	0	0	509	509	0	0	
7	0	0	0	0	514	508	0	0	
8	0	0	0	0	514	508	0	0	
9	0	0	0	0	513	508	0	0	
10	0	0	0	0	511	508	0	0	
11	0	0	0	0	508	507	0	0	
12	0	0	0	0	507	508	0	0	
13	0	0	0	0	508	508	0	0	
14	0	0	0	0	509	507	0	0	
15	0	0	0	0	511	507	0	0	
0	0	0	0	0	511	507	0	0	
1	0	0	0	0	512	507	0	0	
2	0	0	0	0	509	508	0	0	
3	0	0	0	0	508	509	0	0	
4	0	0	0	0	510	506	0	0	
5	0	0	0	0	511	509	0	0	
6	0	0	0	0	512	507	0	0	
7	0	0	0	0	516	508	0	0	
8	0	0	0	0	515	507	0	0	
9	0	0	0	0	515	508	0	0	
10	0	0	0	0	512	509	0	0	
11	0	0	0	0	507	509	0	0	
12	0	0	0	0	508	507	0	0	
13	0	0	0	0	508	508	0	0	
14	0	0	0	0	513	509	0	0	
15	0	0	0	0	511	509	0	0	
0	0	0	0	0	511	509	0	0	
1	0	0	0	0	512	508	0	0	
2	0	0	0	0	511	506	0	0	
3	0	0	0	0	510	508	0	0	
4	0	0	0	0	508	508	0	0	
5	0	0	0	0	513	507	0	0	
6	0	0	0	0	509	508	0	0	
7	0	0	0	0	510	508	0	0	
8	0	0	0	0	511	509	0	0	
9	0	0	0	0	511	508	0	0	
10	0	0	0	0	512	508	0	0	
11	0	0	0	0	510	509	0	0	
12	0	0	0	0	513	508	0	0	
13	0	0	0	0	511	508	0	0	
14	0	0	0	0	508	512	0	0	
15	0	0	0	0	511	509	0	0	
0	0	0	0	0	511	511	0	0	
1	0	0	0	0	512	507	0	0	
2	0	0	0	0	510	508	0	0	
3	0	0	0	0	511	506	0	0	
4	0	0	0	0	511	508	0	0	
5	0	0	0	0	511	508	0	0	
6	0	0	0	0	511	508	0	0	
7	0	0	0	0	512	508	0	0	
8	0	0	0	0	512	507	0	0	
9	0	0	0	0	513	506	0	0	
10	0	0	0	0	512	508	0	0	
11	0	0	0	0	510	510	0	0	
12	0	0	0	0	511	507	0	0	
13	0	0	0	0	511	506	0	0	
14	0	0	0	0	511	507	0	0	
15	0	0	0	0	511	509	0	0	
0	0	0	0	0	515	508	0	0	
1	0	0	0	0	513	510	0	0	
2	0	0	0	0	510	508	0	0	
3	0	0	0	0	511	509	0	0	
4	0	0	0	0	512	508	0	0	
5	0	0	0	0	511	509	0	0	
6	0	0	0	0	508	508	0	0	
7	0	0	0	0	509	510	0	0	
8	0	0	0	0	510	509	0	0	
9	0	0	0	0	514	506	0	0	
10	0	0	0	0	513	506	0	0	
11	0	0	0	0	511	506	0	0	
12	0	0	0	0	512	506	0	0	
13	0	0	0	0	511	508	0	0	
14	0	0	0	0	511	508	0	0	
15	0	0	0	0	511	507	0	0	
0	0	0	0	0	513	507	0	0	
1	0	0	0	0	515	508	0	0	
2	0	0	0	0	511	509	0	0	
3	0	0	0	0	508	508	0	0	
4	0	0	0	0	510	509	0	0	
5	0	0	0	0	512	508	0	0	
6	0	0	0	0	509	509	0	0	
7	0	0	0	0	510	510	0	0	
8	0	0	0	0	513	506	0	0	
9	0	0	0	0	509	510	0	0	
10	0	0	0	0	508	508	0	0	
11	0	0	0	0	508	509	0	0	
12	0	0	0	0	511	509	0	0	
13	0	0	0	0	510	507	0	0	
14	0	0	0	0	512	508	0	0	
15	0	0	0	0	513	508	0	0	
0	0	0	0	0	515	508	0	0	
1	0	0	0	0	515	505	0	0	
2	0	0	0	0	514	510	0	0	
3	0	0	0	0	510	509	0	0	
4	0	0	0	0	512	507	0	0	
5	0	0	0	0	511	508	0	0	
6	0	0	0	0	510	508	0	0	
7	0	0	0	0	508	508	0	0	
8	0	0	0	0	508	508	0	0	
9	0	0	0	0	509	508	0	0	
10	0	0	0	0	507	510	0	0	
11	0	0	0	0	507	507	0	0	
12	0	0	0	0	507	509	0	0	
13	0	0	0	0	509	508	0	0	
14	0	0	0	0	509	510	0	0	
15	0	0	0	0	512	509	0	0	
0	0	0	0	0	517	509	0	0	
1	0	0	0	0	519	507	0	0	
2	0	0	0	0	515	508	0	0	
3	0	0	0	0	513	506	0	0	
4	0	0	0	0	511	505	0	0	
5	0	0	0	0	509	507	0	0	
6	0	0	0	0	508	510	0	0	
7	0	0	0	0	510	509	0	0	
8	0	0	0	0	510	507	0	0	
9	0	0	0	0	512	506	0	0	
10	0	0	0	0	508	508	0	0	
11	0	0	0	0	511	509	0	0	
12	0	0	0	0	511	510	0	0	
13	0	0	0	0	511	509	0	0	
14	0	0	0	0	511	509	0	0	
15	0	0	0	0	510	510	0	0	
0	0	0	0	0	511	508	0	0	
1	0	0	0	0	510	509	0	0	
2	0	0	0	0	510	508	0	0	
3	0	0	0	0	509	509	0	0	
4	0	0	0	0	510	508	0	0	
5	0	0	0	0	512	507	0	0	
6	0	0	0	0	512	507	0	0	
7	0	0	0	0	512	506	0	0	
8	0	0	0	0	513	508	0	0	
9	0	0	0	0	512	509	0	0	
10	0	0	0	0	511	510	0	0	
11	0	0	0	0	510	508	0	0	
12	0	0	0	0	509	505	0	0	
13	0	0	0	0	512	507	0	0	
14	0	0	0	0	512	509	0	0	
15	0	0	0	0	511	509	0	0	
0	0	0	0	0	510	508	0	0	
1	0	0	0	0	510	511	0	0	
2	0	0	0	0	509	509	0	0	
3	0	0	0	0	512	511	0	0	
4	0	0	0	0	512	509	0	0	
5	0	0	0	0	512	508	0	0	
6	0	0	0	0	511	508	0	0	
7	0	0	0	0	510	508	0	0	
8	0	0	0	0	509	508	0	0	
9	0	0	0	0	512	508	0	0	
10	0	0	0	0	511	507	0	0	
11	0	0	0	0	511	506	0	0	
12	0	0	0	0	513	508	0	0	
13	0	0	0	0	513	508	0	0	
14	0	0	0	0	511	507	0	0	
15	0	0	0	0	509	509	0	0	
0	0	0	0	0	511	507	0	0	
1	0	0	0	0	513	507	0	0	
2	0	0	0	0	515	507	0	0	
3	0	0	0	0	511	510	0	0	
4	0	0	0	0	509	508	0	0	
5	0	0	0	0	509	508	0	0	
6	0	0	0	0	509	508	0	0	
7	0	0	0	0	510	509	0	0	
8	0	0	0	0	510	508	0	0	
9	0	0	0	0	510	508	0	0	
10	0	0	0	0	511	507	0	0	
11	0	0	0	0	511	507	0	0	
12	0	0	0	0	509	508	0	0	
13	0	0	0	0	511	508	0	0	
14	0	0	0	0	512	507	0	0	
15	0	0	0	0	513	507	0	0	
0	0	0	0	0	510	508	0	0	
1	0	0	0	0	510	506	0	0	
2	0	0	0	0	507	510	0	0	
3	0	0	0	0	512	506	0	0	
4	0	0	0	0	516	508	0	0	
5	0	0	0	0	519	507	0	0	
6	0	0	0	0	515	508	0	0	
7	0	0	0	0	511	508	0	0	
8	0	0	0	0	508	509	0	0	
9	0	0	0	0	510	507	0	0	
10	0	0	0	0	508	512	0	0	
11	0	0	0	0	511	508	0	0	
12	0	0	0	0	511	507	0	0	
13	0	0	0	0	508	507	0	0	
14	0	0	0	0	511	508	0	0	
15	0	0	0	0	510	508	0	0	
0	0	0	0	0	511	507	0	0	
1	0	0	0	0	512	507	0	0	
2	0	0	0	0	513	508	0	0	
3	0	0	0	0	513	507	0	0	
4	0	0	0	0	511	508	0	0	
5	0	0	0	0	510	507	0	0	
6	0	0	0	0	509	506	0	0	
7	0	0	0	0	510	507	0	0	
8	0	0	0	0	508	508	0	0	
9	0	0	0	0	512	507	0	0	
10	0	0	0	0	511	509	0	0	
11	0	0	0	0	512	511	0	0	
12	0	0	0	0	514	509	0	0	
13	0	0	0	0	508	508	0	0	
14	0	0	0	0	507	508	0	0	
15	0	0	0	0	510	507	0	0	
0	0	0	0	0	513	508	0	0	
1	0	0	0	0	515	508	0	0	
2	0	0	0	0	511	508	0	0	
3	0	0	0	0	513	507	0	0	
4	0	0	0	0	518	508	0	0	
5	0	0	0	0	517	509	0	0	
6	0	0	0	0	513	509	0	0	
7	0	0	0	0	509	505	0	0	
8	0	0	0	0	508	509	0	0	
9	0	0	0	0	509	507	0	0	
10	0	0	0	0	510	504	0	0	
11	0	0	0	0	510	508	0	0	
12	0	0	0	0	511	508	0	0	
13	0	0	0	0	513	506	0	0	
14	0	0	0	0	509	508	0	0	
15	0	0	0	0	511	510	0	0	
0	0	0	0	0	510	510	0	0	
1	0	0	0	0	508	511	0	0	
2	0	0	0	0	509	508	0	0	
3	0	0	0	0	508	507	0	0	
4	0	0	0	0	511	507	0	0	
5	0	0	0	0	510	506	0	0	
6	0	0	0	0	512	508	0	0	
7	0	0	0	0	509	508	0	0	
8	0	0	0	0	512	509	0	0	
9	0	0	0	0	511	507	0	0	
10	0	0	0	0	510	508	0	0	
11	0	0	0	0	511	507	0	0	
12	0	0	0	0	512	508	0	0	
13	0	0	0	0	511	507	0	0	
14	0	0	0	0	513	508	0	0	
15	0	0	0	0	516	507	0	0	
0	0	0	0	0	515	506	0	0	
1	0	0	0	0	512	508	0	0	
2	0	0	0	0	513	509	0	0	
3	0	0	0	0	509	508	0	0	
4	0	0	0	0	508	510	0	0	
5	0	0	0	0	505	509	0	0	
6	0	0	0	0	509	508	0	0	
7	0	0	0	0	511	508	0	0	
8	0	0	0	0	510	508	0	0	
9	0	0	0	0	513	509	0	0	
10	0	0	0	0	513	508	0	0	
11	0	0	0	0	513	507	0	0	
12	0	0	0	0	514	509	0	0	
13	0	0	0	0	513	508	0	0	
14	0	0	0	0	512	508	0	0	
15	0	0	0	0	510	507	0	0	
0	0	0	0	0	508	507	0	0	
1	0	0	0	0	509	508	0	0	
2	0	0	0	0	507	507	0	0	
3	0	0	0	0	512	506	0	0	
4	0	0	0	0	512	508	0	0	
5	0	0	0	0	510	509	0	0	
6	0	0	0	0	509	507	0	0	
7	0	0	0	0	510	508	0	0	
8	0	0	0	0	512	510	0	0	
9	0	0	0	0	512	509	0	0	
10	0	0	0	0	510	509	0	0	
11	0	0	0	0	510	509	0	0	
12	0	0	0	0	510	508	0	0	
13	0	0	0	0	512	508	0	0	
14	0	0	0	0	514	509	0	0	
15	0	0	0	0	511	509	0	0	
0	0	0	0	0	511	507	0	0	
1	0	0	0	0	514	508	0	0	
2	0	0	0	0	511	508	0	0	
3	0	0	0	0	509	508	0	0	
4	0	0	0	0	510	507	0	0	
5	0	0	0	0	508	508	0	0	
6	0	0	0	0	508	508	0	0	
7	0	0	0	0	511	507	0	0	
8	0	0	0	0	512	508	0	0	
9	0	0	0	0	515	507	0	0	
10	0	0	0	0	512	506	0	0	
11	0	0	0	0	510	506	0	0	
12	0	0	0	0	508	510	0	0	
13	0	0	0	0	509	509	0	0	
14	0	0	0	0	508	510	0	0	
15	0	0	0	0	511	511	0	0	
0	0	0	0	0	511	507	0	0	
1	0	0	0	0	512	508	0	0	
2	0	0	0	0	509	507	0	0	
3	0	0	0	0	511	509	0	0	
4	0	0	0	0	511	507	0	0	
5	0	0	0	0	513	509	0	0	
6	0	0	0	0	511	507	0	0	
7	0	0	0	0	511	508	0	0	
8	0	0	0	0	511	507	0	0	
9	0	0	0	0	512	506	0	0	
10	0	0	0	0	513	508	0	0	
11	0	0	0	0	513	508	0	0	
12	0	0	0	0	511	508	0	0	
13	0	0	0	0	511	507	0	0	
14	0	0	0	0	511	507	0	0	
15	0	0	0	0	511	509	0	0	
0	0	0	0	0	509	508	0	0	
1	0	0	0	0	511	507	0	0	
2	0	0	0	0	510	509	0	0	
3	0	0	0	0	512	509	0	0	
4	0	0	0	0	511	508	0	0	
5	0	0	0	0	511	507	0	0	
6	0	0	0	0	510	510	0	0	
7	0	0	0	0	511	511	0	0	
8	0	0	0	0	513	507	0	0	
9	0	0	0	0	511	507	0	0	
10	0	0	0	0	513	508	0	0	
11	0	0	0	0	514	508	0	0	
12	0	0	0	0	514	506	0	0	
13	0	0	0	0	511	505	0	0	
14	0	0	0	0	511	508	0	0	
15	0	0	0	0	510	507	0	0	
0	0	0	0	0	508	508	0	0	
1	0	0	0	0	508	508	0	0	
2	0	0	0	0	509	510	0	0	
3	0	0	0	0	509	509	0	0	
4	0	0	0	0	511	508	0	0	
5	0	0	0	0	508	510	0	0	
6	0	0	0	0	510	509	0	0	
7	0	0	0	0	513	510	0	0	
8	0	0	0	0	514	509	0	0	
9	0	0	0	0	515	507	0	0	
10	0	0	0	0	513	506	0	0	
11	0	0	0	0	513	508	0	0	
12	0	0	0	0	514	509	0	0	
13	0	0	0	0	514	506	0	0	
14	0	0	0	0	515	508	0	0	
15	0	0	0	0	512	508	0	0	
0	0	0	0	0	511	505	0	0	
1	0	0	0	0	510	507	0	0	
2	0	0	0	0	510	506	0	0	
3	0	0	0	0	509	509	0	0	
4	0	0	0	0	506	508	0	0	
5	0	0	0	0	505	507	0	0	
6	0	0	0	0	506	510	0	0	
7	0	0	0	0	508	510	0	0	
8	0	0	0	0	508	508	0	0	
9	0	0	0	0	511	509	0	0	
10	0	0	0	0	514	511	0	0	
11	0	0	0	0	515	510	0	0	
12	0	0	0	0	515	508	0	0	
13	0	0	0	0	516	507	0	0	
14	0	0	0	0	513	509	0	0	
15	0	0	0	0	510	510	0	0	
0	0	0	0	0	511	507	0	0	
1	0	0	0	0	511	507	0	0	
2	0	0	0	0	511	507	0	0	
3	0	0	0	0	511	508	0	0	
4	0	0	0	0	510	507	0	0	
5	0	0	0	0	510	506	0	0	
6	0	0	0	0	511	506	0	0	
7	0	0	0	0	511	509	0	0	
8	0	0	0	0	514	507	0	0	
9	0	0	0	0	513	508	0	0	
10	0	0	0	0	511	509	0	0	
11	0	0	0	0	508	508	0	0	
12	0	0	0	0	510	508	0	0	
13	0	0	0	0	510	511	0	0	
14	0	0	0	0	508	510	0	0	
15	0	0	0	0	511	509	0	0	
0	0	0	0	0	511	509	0	0	
1	0	0	0	0	513	509	0	0	
2	0	0	0	0	513	508	0	0	
3	0	0	0	0	511	507	0	0	
4	0	0	0	0	513	507	0	0	
5	0	0	0	0	513	509	0	0	
6	0	0	0	0	515	508	0	0	
7	0	0	0	0	513	508	0	0	
8	0	0	0	0	513	507	0	0	
9	0	0	0	0	509	508	0	0	
10	0	0	0	0	507	509	0	0	
11	0	0	0	0	508	508	0	0	
12	0	0	0	0	508	505	0	0	
13	0	0	0	0	509	508	0	0	
14	0	0	0	0	509	507	0	0	
15	0	0	0	0	510	508	0	0	
0	0	0	0	0	508	507	0	0	
1	0	0	0	0	512	509	0	0	
2	0	0	0	0	511	508	0	0	
3	0	0	0	0	511	505	0	0	
4	0	0	0	0	511	508	0	0	
5	0	0	0	0	512	509	0	0	
6	0	0	0	0	513	510	0	0	
7	0	0	0	0	511	510	0	0	
8	0	0	0	0	508	509	0	0	
9	0	0	0	0	512	509	0	0	
10	0	0	0	0	513	507	0	0	
11	0	0	0	0	514	506	0	0	
12	0	0	0	0	511	507	0	0	
13	0	0	0	0	512	507	0	0	
14	0	0	0	0	512	508	0	0	
15	0	0	0	0	510	507	0	0	
0	0	0	0	0	510	507	0	0	
1	0	0	0	0	512	506	0	0	
2	0	0	0	0	511	506	0	0	
3	0	0	0	0	510	509	0	0	
4	0	0	0	0	511	508	0	0	
5	0	0	0	0	511	508	0	0	
6	0	0	0	0	510	510	0	0	
7	0	0	0	0	510	509	0	0	
8	0	0	0	0	512	511	0	0	
9	0	0	0	0	512	509	0	0	
10	0	0	0	0	512	508	0	0	
11	0	0	0	0	510	511	0	0	
12	0	0	0	0	511	508	0	0	
13	0	0	0	0	512	507	0	0	
14	0	0	0	0	513	508	0	0	
15	0	0	0	0	513	507	0	0	
0	0	0	0	0	512	506	0	0	
1	0	0	0	0	510	508	0	0	
2	0	0	0	0	514	505	0	0	
3	0	0	0	0	515	507	0	0	
4	0	0	0	0	512	506	0	0	
5	0	0	0	0	511	507	0	0	
6	0	0	0	0	510	509	0	0	
7	0	0	0	0	508	509	0	0	
8	0	0	0	0	510	509	0	0	
9	0	0	0	0	508	510	0	0	
10	0	0	0	0	508	507	0	0	
11	0	0	0	0	511	508	0	0	
12	0	0	0	0	512	509	0	0	
13	0	0	0	0	513	508	0	0	
14	0	0	0	0	515	509	0	0	
15	0	0	0	0	513	510	0	0	
0	0	0	0	0	515	510	0	0	
1	0	0	0	0	515	507	0	0	
2	0	0	0	0	510	507	0	0	
3	0	0	0	0	510	508	0	0	
4	0	0	0	0	511	507	0	0	
5	0	0	0	0	511	507	0	0	
6	0	0	0	0	510	508	0	0	
7	0	0	0	0	515	507	0	0	
8	0	0	0	0	512	507	0	0	
9	0	0	0	0	508	507	0	0	
10	0	0	0	0	505	507	0	0	
11	0	0	0	0	503	507	0	0	
12	0	0	0	0	501	511	0	0	
13	0	0	0	0	506	509	0	0	
14	0	0	0	0	510	509	0	0	
15	0	0	0	0	514	509	0	0	
0	0	0	0	0	515	509	0	0	
1	0	0	0	0	514	506	0	0	
2	0	0	0	0	513	509	0	0	
3	0	0	0	0	513	510	0	0	
4	0	0	0	0	512	511	0	0	
5	0	0	0	0	508	510	0	0	
6	0	0	0	0	513	505	0	0	
7	0	0	0	0	515	505	0	0	
8	0	0	0	0	517	505	0	0	
9	0	0	0	0	517	507	0	0	
10	0	0	0	0	515	508	0	0	
11	0	0	0	0	509	508	0	0	
12	0	0	0	0	511	507	0	0	
13	0	0	0	0	508	508	0	0	
14	0	0	0	0	508	509	0	0	
15	0	0	0	0	509	509	0	0	
0	0	0	0	0	508	510	0	0	
1	0	0	0	0	508	509	0	0	
2	0	0	0	0	511	509	0	0	
3	0	0	0	0	509	510	0	0	
4	0	0	0	0	511	510	0	0	
5	0	0	0	0	511	508	0	0	
6	0	0	0	0	512	508	0	0	
7	0	0	0	0	516	509	0	0	
8	0	0	0	0	515	509	0	0	
9	0	0	0	0	513	509	0	0	
10	0	0	0	0	511	509	0	0	
11	0	0	0	0	507	507	0	0	
12	0	0	0	0	509	504	0	0	
13	0	0	0	0	512	506	0	0	
14	0	0	0	0	512	507	0	0	
15	0	0	0	0	509	507	0	0	
0	0	0	0	0	510	510	0	0	
1	0	0	0	0	509	508	0	0	
2	0	0	0	0	510	507	0	0	
3	0	0	0	0	510	507	0	0	
4	0	0	0	0	511	510	0	0	
5	0	0	0	0	513	510	0	0	
6	0	0	0	0	511	510	0	0	
7	0	0	0	0	510	509	0	0	
8	0	0	0	0	511	509	0	0	
9	0	0	0	0	512	509	0	0	
10	0	0	0	0	511	509	0	0	
11	0	0	0	0	512	508	0	0	
12	0	0	0	0	513	507	0	0	
13	0	0	0	0	514	507	0	0	
14	0	0	0	0	512	508	0	0	
15	0	0	0	0	512	508	0	0	
0	0	0	0	0	515	507	0	0	
1	0	0	0	0	512	507	0	0	
2	0	0	0	0	508	507	0	0	
3	0	0	0	0	510	508	0	0	
4	0	0	0	0	511	507	0	0	
5	0	0	0	0	512	506	0	0	
6	0	0	0	0	509	508	0	0	
7	0	0	0	0	509	508	0	0	
8	0	0	0	0	510	507	0	0	
9	0	0	0	0	511	508	0	0	
10	0	0	0	0	509	510	0	0	
11	0	0	0	0	510	509	0	0	
12	0	0	0	0	511	509	0	0	
13	0	0	0	0	512	510	0	0	
14	0	0	0	0	511	509	0	0	
15	0	0	0	0	512	509	0	0	
0	0	0	0	0	515	507	0	0	
1	0	0	0	0	516	506	0	0	
2	0	0	0	0	512	507	0	0	
3	0	0	0	0	510	508	0	0	
4	0	0	0	0	511	505	0	0	
5	0	0	0	0	510	507	0	0	
6	0	0	0	0	509	508	0	0	
7	0	0	0	0	510	509	0	0	
8	0	0	0	0	509	506	0	0	
9	0	0	0	0	509	507	0	0	
10	0	0	0	0	509	508	0	0	
11	0	0	0	0	510	508	0	0	
12	0	0	0	0	512	509	0	0	
13	0	0	0	0	510	509	0	0	
14	0	0	0	0	510	509	0	0	
15	0	0	0	0	510	510	0	0	
0	0	0	0	0	511	507	0	0	
1	0	0	0	0	513	509	0	0	
2	0	0	0	0	514	510	0	0	
3	0	0	0	0	512	508	0	0	
4	0	0	0	0	512	508	0	0	
5	0	0	0	0	512	508	0	0	
6	0	0	0	0	513	508	0	0	
7	0	0	0	0	512	507	0	0	
8	0	0	0	0	512	507	0	0	
9	0	0	0	0	511	507	0	0	
10	0	0	0	0	511	507	0	0	
11	0	0	0	0	510	508	0	0	
12	0	0	0	0	508	508	0	0	
13	0	0	0	0	509	508	0	0	
14	0	0	0	0	510	508	0	0	
15	0	0	0	0	509	507	0	0	
0	0	0	0	0	508	509	0	0	
1	0	0	0	0	510	510	0	0	
2	0	0	0	0	510	506	0	0	
3	0	0	0	0	512	509	0	0	
4	0	0	0	0	513	508	0	0	
5	0	0	0	0	511	508	0	0	
6	0	0	0	0	511	508	0	0	
7	0	0	0	0	511	509	0	0	
8	0	0	0	0	513	509	0	0	
9	0	0	0	0	513	506	0	0	
10	0	0	0	0	513	507	0	0	
11	0	0	0	0	512	508	0	0	
12	0	0	0	0	512	508	0	0	
13	0	0	0	0	510	508	0	0	
14	0	0	0	0	510	509	0	0	
15	0	0	0	0	511	507	0	0	
0	0	0	0	0	507	508	0	0	
1	0	0	0	0	508	506	0	0	
2	0	0	0	0	509	507	0	0	
3	0	0	0	0	510	510	0	0	
4	0	0	0	0	510	508	0	0	
5	0	0	0	0	510	508	0	0	
6	0	0	0	0	514	508	0	0	
7	0	0	0	0	515	509	0	0	
8	0	0	0	0	515	509	0	0	
9	0	0	0	0	516	510	0	0	
10	0	0	0	0	515	510	0	0	
11	0	0	0	0	512	508	0	0	
12	0	0	0	0	509	509	0	0	
13	0	0	0	0	511	508	0	0	
14	0	0	0	0	512	507	0	0	
15	0	0	0	0	512	507	0	0	
0	0	0	0	0	508	506	0	0	
1	0	0	0	0	510	506	0	0	
2	0	0	0	0	510	505	0	0	
3	0	0	0	0	509	508	0	0	
4	0	0	0	0	506	507	0	0	
5	0	0	0	0	509	508	0	0	
6	0	0	0	0	506	508	0	0	
7	0	0	0	0	508	508	0	0	
8	0	0	0	0	511	508	0	0	
9	0	0	0	0	511	508	0	0	
10	0	0	0	0	512	511	0	0	
11	0	0	0	0	514	512	0	0	
12	0	0	0	0	512	510	0	0	
13	0	0	0	0	512	509	0	0	
14	0	0	0	0	511	511	0	0	
15	0	0	0	0	512	509	0	0	
0	0	0	0	0	516	508	0	0	
1	0	0	0	0	513	507	0	0	
2	0	0	0	0	515	507	0	0	
3	0	0	0	0	510	505	0	0	
4	0	0	0	0	511	508	0	0	
5	0	0	0	0	508	508	0	0	
6	0	0	0	0	510	506	0	0	
7	0	0	0	0	510	508	0	0	
8	0	0	0	0	509	506	0	0	
9	0	0	0	0	511	506	0	0	
10	0	0	0	0	514	505	0	0	
11	0	0	0	0	510	507	0	0	
12	0	0	0	0	512	507	0	0	
13	0	0	0	0	506	507	0	0	
14	0	0	0	0	508	511	0	0	
15	0	0	0	0	509	510	0	0	
0	0	0	0	0	513	510	0	0	
1	0	0	0	0	511	511	0	0	
2	0	0	0	0	513	510	0	0	
3	0	0	0	0	513	510	0	0	
4	0	0	0	0	515	507	0	0	
5	0	0	0	0	517	506	0	0	
6	0	0	0	0	515	507	0	0	
7	0	0	0	0	510	507	0	0	
8	0	0	0	0	508	506	0	0	
9	0	0	0	0	508	508	0	0	
10	0	0	0	0	512	508	0	0	
11	0	0	0	0	512	508	0	0	
12	0	0	0	0	508	507	0	0	
13	0	0	0	0	511	506	0	0	
14	0	0	0	0	510	510	0	0	
15	0	0	0	0	505	508	0	0	
0	0	0	0	0	510	509	0	0	
1	0	0	0	0	510	508	0	0	
2	0	0	0	0	511	511	0	0	
3	0	0	0	0	508	509	0	0	
4	0	0	0	0	511	510	0	0	
5	0	0	0	0	511	507	0	0	
6	0	0	0	0	513	508	0	0	
7	0	0	0	0	510	508	0	0	
8	0	0	0	0	513	508	0	0	
9	0	0	0	0	513	507	0	0	
10	0	0	0	0	513	507	0	0	
11	0	0	0	0	513	509	0	0	
12	0	0	0	0	514	507	0	0	
13	0	0	0	0	513	508	0	0	
14	0	0	0	0	512	505	0	0	
15	0	0	0	0	511	505	0	0	
0	0	0	0	0	510	508	0	0	
1	0	0	0	0	511	507	0	0	
2	0	0	0	0	509	504	0	0	
3	0	0	0	0	507	508	0	0	
4	0	0	0	0	507	511	0	0	
5	0	0	0	0	511	509	0	0	
6	0	0	0	0	510	509	0	0	
7	0	0	0	0	511	509	0	0	
8	0	0	0	0	514	510	0	0	
9	0	0	0	0	513	509	0	0	
10	0	0	0	0	510	510	0	0	
11	0	0	0	0	509	508	0	0	
12	0	0	0	0	510	507	0	0	
13	0	0	0	0	511	508	0	0	
14	0	0	0	0	511	505	0	0	
15	0	0	0	0	511	507	0	0	
0	0	0	0	0	511	507	0	0	
1	0	0	0	0	511	506	0	0	
2	0	0	0	0	510	507	0	0	
3	0	0	0	0	512	508	0	0	
4	0	0	0	0	509	507	0	0	
5	0	0	0	0	512	507	0	0	
6	0	0	0	0	513	508	0	0	
7	0	0	0	0	509	510	0	0	
8	0	0	0	0	511	507	0	0	
9	0	0	0	0	510	508	0	0	
10	0	0	0	0	511	510	0	0	
11	0	0	0	0	512	507	0	0	
12	0	0	0	0	512	509	0	0	
13	0	0	0	0	511	509	0	0	
14	0	0	0	0	508	510	0	0	
15	0	0	0	0	512	511	0	0	
0	0	0	0	0	515	508	0	0	
1	0	0	0	0	512	506	0	0	
2	0	0	0	0	513	509	0	0	
3	0	0	0	0	512	506	0	0	
4	0	0	0	0	511	507	0	0	
5	0	0	0	0	510	505	0	0	
6	0	0	0	0	513	508	0	0	
7	0	0	0	0	510	507	0	0	
8	0	0	0	0	509	509	0	0	
9	0	0	0	0	511	508	0	0	
10	0	0	0	0	507	508	0	0	
11	0	0	0	0	508	508	0	0	
12	0	0	0	0	512	509	0	0	
13	0	0	0	0	513	510	0	0	
14	0	0	0	0	512	508	0	0	
15	0	0	0	0	510	508	0	0	
0	0	0	0	0	512	508	0	0	
1	0	0	0	0	511	508	0	0	
2	0	0	0	0	508	507	0	0	
3	0	0	0	0	510	509	0	0	
4	0	0	0	0	511	508	0	0	
5	0	0	0	0	512	507	0	0	
6	0	0	0	0	512	509	0	0	
7	0	0	0	0	511	508	0	0	
8	0	0	0	0	511	507	0	0	
9	0	0	0	0	510	507	0	0	
10	0	0	0	0	510	507	0	0	
11	0	0	0	0	510	508	0	0	
12	0	0	0	0	508	507	0	0	
13	0	0	0	0	510	507	0	0	
14	0	0	0	0	509	507	0	0	
15	0	0	0	0	509	509	0	0	
0	0	0	0	0	509	510	0	0	
1	0	0	0	0	509	507	0	0	
2	0	0	0	0	511	509	0	0	
3	0	0	0	0	513	508	0	0	
4	0	0	0	0	513	508	0	0	
5	0	0	0	0	513	508	0	0	
6	0	0	0	0	513	510	0	0	
7	0	0	0	0	511	509	0	0	
8	0	0	0	0	514	509	0	0	
9	0	0	0	0	516	508	0	0	
10	0	0	0	0	514	507	0	0	
11	0	0	0	0	514	507	0	0	
12	0	0	0	0	512	506	0	0	
13	0	0	0	0	511	508	0	0	
14	0	0	0	0	510	507	0	0	
15	0	0	0	0	508	506	0	0	
0	0	0	0	0	507	507	0	0	
1	0	0	0	0	510	507	0	0	
2	0	0	0	0	512	508	0	0	
3	0	0	0	0	511	508	0	0	
4	0	0	0	0	510	511	0	0	
5	0	0	0	0	510	511	0	0	
6	0	0	0	0	510	508	0	0	
7	0	0	0	0	512	510	0	0	
8	0	0	0	0	511	512	0	0	
9	0	0	0	0	511	509	0	0	
10	0	0	0	0	511	509	0	0	
11	0	0	0	0	511	508	0	0	
12	0	0	0	0	513	510	0	0	
13	0	0	0	0	515	508	0	0	
14	0	0	0	0	511	507	0	0	
15	0	0	0	0	511	507	0	0	
0	0	0	0	0	512	507	0	0	
1	0	0	0	0	511	508	0	0	
2	0	0	0	0	511	508	0	0	
3	0	0	0	0	511	507	0	0	
4	0	0	0	0	511	507	0	0	
5	0	0	0	0	509	506	0	0	
6	0	0	0	0	511	507	0	0	
7	0	0	0	0	511	507	0	0	
8	0	0	0	0	511	506	0	0	
9	0	0	0	0	510	510	0	0	
10	0	0	0	0	510	508	0	0	
11	0	0	0	0	512	508	0	0	
12	0	0	0	0	511	509	0	0	
13	0	0	0	0	513	508	0	0	
14	0	0	0	0	515	508	0	0	
15	0	0	0	0	513	510	0	0	
0	0	0	0	0	512	507	0	0	
1	0	0	0	0	511	507	0	0	
2	0	0	0	0	514	508	0	0	
3	0	0	0	0	512	508	0	0	
4	0	0	0	0	512	508	0	0	
5	0	0	0	0	512	508	0	0	
6	0	0	0	0	511	508	0	0	
7	0	0	0	0	510	508	0	0	
8	0	0	0	0	511	507	0	0	
9	0	0	0	0	512	505	0	0	
10	0	0	0	0	508	507	0	0	
11	0	0	0	0	509	508	0	0	
12	0	0	0	0	509	508	0	0	
13	0	0	0	0	507	509	0	0	
14	0	0	0	0	509	509	0	0	
15	0	0	0	0	511	509	0	0	
0	0	0	0	0	510	508	0	0	
1	0	0	0	0	512	508	0	0	
2	0	0	0	0	509	508	0	0	
3	0	0	0	0	510	508	0	0	
4	0	0	0	0	513	509	0	0	
5	0	0	0	0	513	507	0	0	
6	0	0	0	0	513	508	0	0	
7	0	0	0	0	511	509	0	0	
8	0	0	0	0	513	508	0	0	
9	0	0	0	0	517	509	0	0	
10	0	0	0	0	515	507	0	0	
11	0	0	0	0	510	506	0	0	
12	0	0	0	0	508	508	0	0	
13	0	0	0	0	506	506	0	0	
14	0	0	0	0	505	506	0	0	
15	0	0	0	0	504	508	0	0	
0	0	0	0	0	507	508	0	0	
1	0	0	0	0	511	510	0	0	
2	0	0	0	0	511	510	0	0	
3	0	0	0	0	512	508	0	0	
4	0	0	0	0	517	508	0	0	
5	0	0	0	0	517	508	0	0	
6	0	0	0	0	512	509	0	0	
7	0	0	0	0	505	510	0	0	
8	0	0	0	0	505	510	0	0	
9	0	0	0	0	512	508	0	0	
10	0	0	0	0	515	507	0	0	
11	0	0	0	0	512	508	0	0	
12	0	0	0	0	510	507	0	0	
13	0	0	0	0	513	508	0	0	
14	0	0	0	0	515	508	0	0	
15	0	0	0	0	512	506	0	0	
0	0	0	0	0	511	507	0	0	
1	0	0	0	0	511	508	0	0	
2	0	0	0	0	509	508	0	0	
3	0	0	0	0	513	507	0	0	
4	0	0	0	0	515	510	0	0	
5	0	0	0	0	517	509	0	0	
6	0	0	0	0	514	509	0	0	
7	0	0	0	0	516	508	0	0	
8	0	0	0	0	513	509	0	0	
9	0	0	0	0	512	510	0	0	
10	0	0	0	0	499	511	0	0	
11	0	0	0	0	502	510	0	0	
12	0	0	0	0	513	510	0	0	
13	0	0	0	0	513	511	0	0	
14	0	0	0	0	515	506	0	0	
15	0	0	0	0	512	505	0	0	
0	0	0	0	0	511	506	0	0	
1	0	0	0	0	508	506	0	0	
2	0	0	0	0	512	505	0	0	
3	0	0	0	0	512	509	0	0	
4	0	0	0	0	510	506	0	0	
5	0	0	0	0	508	506	0	0	
6	0	0	0	0	507	507	0	0	
7	0	0	0	0	507	508	0	0	
8	0	0	0	0	505	511	0	0	
9	0	0	0	0	508	509	0	0	
10	0	0	0	0	510	510	0	0	
11	0	0	0	0	512	509	0	0	
12	0	0	0	0	518	509	0	0	
13	0	0	0	0	516	509	0	0	
14	0	0	0	0	514	509	0	0	
15	0	0	0	0	512	510	0	0	
0	0	0	0	0	514	508	0	0	
1	0	0	0	0	515	509	0	0	
2	0	0	0	0	510	506	0	0	
3	0	0	0	0	502	509	0	0	
4	0	0	0	0	513	508	0	0	
5	0	0	0	0	515	507	0	0	
6	0	0	0	0	514	504	0	0	
7	0	0	0	0	516	507	0	0	
8	0	0	0	0	515	507	0	0	
9	0	0	0	0	512	504	0	0	
10	0	0	0	0	508	507	0	0	
11	0	0	0	0	496	507	0	0	
12	0	0	0	0	501	508	0	0	
13	0	0	0	0	509	510	0	0	
14	0	0	0	0	508	510	0	0	
15	0	0	0	0	512	508	0	0	
0	0	0	0	0	513	508	0	0	
1	0	0	0	0	513	508	0	0	
2	0	0	0	0	513	508	0	0	
3	0	0	0	0	511	510	0	0	
4	0	0	0	0	512	510	0	0	
5	0	0	0	0	514	511	0	0	
6	0	0	0	0	513	507	0	0	
7	0	0	0	0	512	508	0	0	
8	0	0	0	0	513	506	0	0	
9	0	0	0	0	510	507	0	0	
10	0	0	0	0	512	509	0	0	
11	0	0	0	0	512	507	0	0	
12	0	0	0	0	510	506	0	0	
13	0	0	0	0	511	508	0	0	
14	0	0	0	0	511	506	0	0	
15	0	0	0	0	508	508	0	0	
0	0	0	0	0	512	508	0	0	
1	0	0	0	0	511	508	0	0	
2	0	0	0	0	510	510	0	0	
3	0	0	0	0	512	511	0	0	
4	0	0	0	0	512	508	0	0	
5	0	0	0	0	515	508	0	0	
6	0	0	0	0	515	508	0	0	
7	0	0	0	0	513	507	0	0	
8	0	0	0	0	511	508	0	0	
9	0	0	0	0	507	508	0	0	
10	0	0	0	0	504	507	0	0	
11	0	0	0	0	517	509	0	0	
12	0	0	0	0	513	506	0	0	
13	0	0	0	0	509	507	0	0	
14	0	0	0	0	510	507	0	0	
15	0	0	0	0	514	508	0	0	
0	0	0	0	0	513	507	0	0	
1	0	0	0	0	511	508	0	0	
2	0	0	0	0	508	507	0	0	
3	0	0	0	0	510	509	0	0	
4	0	0	0	0	508	509	0	0	
5	0	0	0	0	508	508	0	0	
6	0	0	0	0	509	510	0	0	
7	0	0	0	0	511	509	0	0	
8	0	0	0	0	511	510	0	0	
9	0	0	0	0	511	508	0	0	
10	0	0	0	0	512	509	0	0	
11	0	0	0	0	512	508	0	0	
12	0	0	0	0	511	511	0	0	
13	0	0	0	0	513	507	0	0	
14	0	0	0	0	510	505	0	0	
15	0	0	0	0	512	508	0	0	
0	0	0	0	0	515	507	0	0	
1	0	0	0	0	511	505	0	0	
2	0	0	0	0	511	506	0	0	
3	0	0	0	0	509	510	0	0	
4	0	0	0	0	511	508	0	0	
5	0	0	0	0	510	507	0	0	
6	0	0	0	0	511	507	0	0	
7	0	0	0	0	510	508	0	0	
8	0	0	0	0	510	508	0	0	
9	0	0	0	0	508	508	0	0	
10	0	0	0	0	508	510	0	0	
11	0	0	0	0	513	510	0	0	
12	0	0	0	0	512	509	0	0	
13	0	0	0	0	512	510	0	0	
14	0	0	0	0	512	510	0	0	
15	0	0	0	0	513	510	0	0	
0	0	0	0	0	512	507	0	0	
1	0	0	0	0	509	508	0	0	
2	0	0	0	0	508	506	0	0	
3	0	0	0	0	508	509	0	0	
4	0	0	0	0	507	504	0	0	
5	0	0	0	0	509	505	0	0	
6	0	0	0	0	514	507	0	0	
7	0	0	0	0	519	505	0	0	
8	0	0	0	0	521	507	0	0	
9	0	0	0	0	521	508	0	0	
10	0	0	0	0	519	507	0	0	
11	0	0	0	0	509	507	0	0	
12	0	0	0	0	508	508	0	0	
13	0	0	0	0	508	509	0	0	
14	0	0	0	0	508	510	0	0	
15	0	0	0	0	508	510	0	0	
0	0	0	0	0	511	510	0	0	
1	0	0	0	0	514	509	0	0	
2	0	0	0	0	511	510	0	0	
3	0	0	0	0	511	508	0	0	
4	0	0	0	0	511	509	0	0	
5	0	0	0	0	514	507	0	0	
6	0	0	0	0	515	507	0	0	
7	0	0	0	0	515	507	0	0	
8	0	0	0	0	512	508	0	0	
9	0	0	0	0	508	508	0	0	
10	0	0	0	0	510	506	0	0	
11	0	0	0	0	508	508	0	0	
12	0	0	0	0	510	508	0	0	
13	0	0	0	0	508	507	0	0	
14	0	0	0	0	507	507	0	0	
15	0	0	0	0	507	509	0	0	
0	0	0	0	0	510	508	0	0	
1	0	0	0	0	511	510	0	0	
2	0	0	0	0	508	508	0	0	
3	0	0	0	0	511	509	0	0	
4	0	0	0	0	511	508	0	0	
5	0	0	0	0	512	511	0	0	
6	0	0	0	0	513	508	0	0	
7	0	0	0	0	514	508	0	0	
8	0	0	0	0	512	510	0	0	
9	0	0	0	0	511	508	0	0	
10	0	0	0	0	512	505	0	0	
11	0	0	0	0	508	507	0	0	
12	0	0	0	0	511	506	0	0	
13	0	0	0	0	509	506	0	0	
14	0	0	0	0	510	506	0	0	
15	0	0	0	0	509	507	0	0	
0	0	0	0	0	511	508	0	0	
1	0	0	0	0	509	506	0	0	
2	0	0	0	0	509	508	0	0	
3	0	0	0	0	508	508	0	0	
4	0	0	0	0	508	509	0	0	
5	0	0	0	0	512	511	0	0	
6	0	0	0	0	511	509	0	0	
7	0	0	0	0	512	511	0	0	
8	0	0	0	0	513	511	0	0	
9	0	0	0	0	513	510	0	0	
10	0	0	0	0	512	510	0	0	
11	0	0	0	0	511	509	0	0	
12	0	0	0	0	512	508	0	0	
13	0	0	0	0	516	504	0	0	
14	0	0	0	0	514	508	0	0	
15	0	0	0	0	508	506	0	0	
0	0	0	0	0	510	506	0	0	
1	0	0	0	0	510	506	0	0	
2	0	0	0	0	509	507	0	0	
3	0	0	0	0	510	507	0	0	
4	0	0	0	0	511	510	0	0	
5	0	0	0	0	510	507	0	0	
6	0	0	0	0	513	508	0	0	
7	0	0	0	0	511	507	0	0	
8	0	0	0	0	511	508	0	0	
9	0	0	0	0	511	508	0	0	
10	0	0	0	0	508	508	0	0	
11	0	0	0	0	511	510	0	0	
12	0	0	0	0	512	510	0	0	
13	0	0	0	0	511	508	0	0	
14	0	0	0	0	512	509	0	0	
15	0	0	0	0	512	508	0	0	
0	0	0	0	0	511	507	0	0	
1	0	0	0	0	514	506	0	0	
2	0	0	0	0	512	506	0	0	
3	0	0	0	0	512	508	0	0	
4	0	0	0	0	511	508	0	0	
5	0	0	0	0	512	507	0	0	
6	0	0	0	0	507	506	0	0	
7	0	0	0	0	508	508	0	0	
8	0	0	0	0	507	506	0	0	
9	0	0	0	0	504	507	0	0	
10	0	0	0	0	507	509	0	0	
11	0	0	0	0	508	508	0	0	
12	0	0	0	0	512	508	0	0	
13	0	0	0	0	518	509	0	0	
14	0	0	0	0	521	508	0	0	
15	0	0	0	0	518	509	0	0	
0	0	0	0	0	513	508	0	0	
1	0	0	0	0	515	510	0	0	
2	0	0	0	0	514	508	0	0	
3	0	0	0	0	512	509	0	0	
4	0	0	0	0	509	509	0	0	
5	0	0	0	0	510	507	0	0	
6	0	0	0	0	511	508	0	0	
7	0	0	0	0	508	507	0	0	
8	0	0	0	0	509	505	0	0	
9	0	0	0	0	508	507	0	0	
10	0	0	0	0	511	508	0	0	
11	0	0	0	0	511	507	0	0	
12	0	0	0	0	508	508	0	0	
13	0	0	0	0	509	506	0	0	
14	0	0	0	0	506	507	0	0	
15	0	0	0	0	507	508	0	0	
0	0	0	0	0	509	509	0	0	
1	0	0	0	0	510	507	0	0	
2	0	0	0	0	508	510	0	0	
3	0	0	0	0	512	509	0	0	
4	0	0	0	0	513	509	0	0	
5	0	0	0	0	515	510	0	0	
6	0	0	0	0	514	509	0	0	
7	0	0	0	0	512	508	0	0	
8	0	0	0	0	515	508	0	0	
9	0	0	0	0	515	506	0	0	
10	0	0	0	0	514	509	0	0	
11	0	0	0	0	511	506	0	0	
12	0	0	0	0	512	505	0	0	
13	0	0	0	0	506	508	0	0	
14	0	0	0	0	507	507	0	0	
15	0	0	0	0	510	506	0	0	
0	0	0	0	0	510	508	0	0	
1	0	0	0	0	512	505	0	0	
2	0	0	0	0	515	507	0	0	
3	0	0	0	0	515	509	0	0	
4	0	0	0	0	511	510	0	0	
5	0	0	0	0	510	508	0	0	
6	0	0	0	0	510	511	0	0	
7	0	0	0	0	512	508	0	0	
8	0	0	0	0	510	510	0	0	
9	0	0	0	0	510	508	0	0	
10	0	0	0	0	511	510	0	0	
11	0	0	0	0	512	510	0	0	
12	0	0	0	0	513	509	0	0	
13	0	0	0	0	512	508	0	0	
14	0	0	0	0	512	507	0	0	
15	0	0	0	0	509	506	0	0	
0	0	0	0	0	510	506	0	0	
1	0	0	0	0	508	505	0	0	
2	0	0	0	0	508	507	0	0	
3	0	0	0	0	509	508	0	0	
4	0	0	0	0	509	507	0	0	
5	0	0	0	0	511	506	0	0	
6	0	0	0	0	512	509	0	0	
7	0	0	0	0	508	508	0	0	
8	0	0	0	0	510	508	0	0	
9	0	0	0	0	511	507	0	0	
10	0	0	0	0	509	509	0	0	
11	0	0	0	0	511	509	0	0	
12	0	0	0	0	510	512	0	0	
13	0	0	0	0	509	509	0	0	
14	0	0	0	0	513	509	0	0	
15	0	0	0	0	510	510	0	0	
0	0	0	0	0	512	509	0	0	
1	0	0	0	0	513	508	0	0	
2	0	0	0	0	514	506	0	0	
3	0	0	0	0	515	505	0	0	
4	0	0	0	0	513	507	0	0	
5	0	0	0	0	508	505	0	0	
6	0	0	0	0	506	505	0	0	
7	0	0	0	0	508	506	0	0	
8	0	0	0	0	507	506	0	0	
9	0	0	0	0	511	508	0	0	
10	0	0	0	0	512	508	0	0	
11	0	0	0	0	512	508	0	0	
12	0	0	0	0	514	510	0	0	
13	0	0	0	0	516	508	0	0	
14	0	0	0	0	513	510	0	0	
15	0	0	0	0	513	508	0	0	
0	0	0	0	0	511	510	0	0	
1	0	0	0	0	512	510	0	0	
2	0	0	0	0	510	508	0	0	
3	0	0	0	0	509	510	0	0	
4	0	0	0	0	514	509	0	0	
5	0	0	0	0	511	507	0	0	
6	0	0	0	0	513	507	0	0	
7	0	0	0	0	513	505	0	0	
8	0	0	0	0	511	508	0	0	
9	0	0	0	0	511	508	0	0	
10	0	0	0	0	513	507	0	0	
11	0	0	0	0	511	506	0	0	
12	0	0	0	0	512	508	0	0	
13	0	0	0	0	511	507	0	0	
14	0	0	0	0	507	506	0	0	
15	0	0	0	0	505	506	0	0	
0	0	0	0	0	507	509	0	0	
1	0	0	0	0	510	512	0	0	
2	0	0	0	0	511	510	0	0	
3	0	0	0	0	511	508	0	0	
4	0	0	0	0	513	508	0	0	
5	0	0	0	0	513	509	0	0	
6	0	0	0	0	515	509	0	0	
7	0	0	0	0	513	508	0	0	
8	0	0	0	0	512	510	0	0	
9	0	0	0	0	515	509	0	0	
10	0	0	0	0	515	507	0	0	
11	0	0	0	0	513	508	0	0	
12	0	0	0	0	510	508	0	0	
13	0	0	0	0	509	506	0	0	
14	0	0	0	0	510	507	0	0	
15	0	0	0	0	508	508	0	0	
0	0	0	0	0	511	508	0	0	
1	0	0	0	0	509	507	0	0	
2	0	0	0	0	511	508	0	0	
3	0	0	0	0	511	508	0	0	
4	0	0	0	0	512	508	0	0	
5	0	0	0	0	512	506	0	0	
6	0	0	0	0	511	508	0	0	
7	0	0	0	0	510	508	0	0	
8	0	0	0	0	513	511	0	0	
9	0	0	0	0	514	510	0	0	
10	0	0	0	0	515	507	0	0	
11	0	0	0	0	513	510	0	0	
12	0	0	0	0	510	509	0	0	
13	0	0	0	0	509	509	0	0	
14	0	0	0	0	510	508	0	0	
15	0	0	0	0	512	507	0	0	
0	0	0	0	0	513	504	0	0	
1	0	0	0	0	513	504	0	0	
2	0	0	0	0	516	508	0	0	
3	0	0	0	0	513	505	0	0	
4	0	0	0	0	508	508	0	0	
5	0	0	0	0	508	506	0	0	
6	0	0	0	0	507	508	0	0	
7	0	0	0	0	506	510	0	0	
8	0	0	0	0	507	508	0	0	
9	0	0	0	0	512	509	0	0	
10	0	0	0	0	510	509	0	0	
11	0	0	0	0	513	510	0	0	
12	0	0	0	0	514	508	0	0	
13	0	0	0	0	511	510	0	0	
14	0	0	0	0	512	510	0	0	
15	0	0	0	0	511	511	0	0	
0	0	0	0	0	514	510	0	0	
1	0	0	0	0	515	506	0	0	
2	0	0	0	0	513	505	0	0	
3	0	0	0	0	512	507	0	0	
4	0	0	0	0	513	507	0	0	
5	0	0	0	0	508	504	0	0	
6	0	0	0	0	507	506	0	0	
7	0	0	0	0	507	509	0	0	
8	0	0	0	0	509	508	0	0	
9	0	0	0	0	511	507	0	0	
10	0	0	0	0	510	506	0	0	
11	0	0	0	0	511	507	0	0	
12	0	0	0	0	512	508	0	0	
13	0	0	0	0	515	510	0	0	
14	0	0	0	0	515	510	0	0	
15	0	0	0	0	512	508	0	0	
0	0	0	0	0	509	509	0	0	
1	0	0	0	0	509	511	0	0	
2	0	0	0	0	508	508	0	0	
3	0	0	0	0	511	510	0	0	
4	0	0	0	0	512	509	0	0	
5	0	0	0	0	514	508	0	0	
6	0	0	0	0	521	508	0	0	
7	0	0	0	0	519	507	0	0	
8	0	0	0	0	512	507	0	0	
9	0	0	0	0	510	507	0	0	
10	0	0	0	0	511	504	0	0	
11	0	0	0	0	508	505	0	0	
12	0	0	0	0	509	508	0	0	
13	0	0	0	0	509	506	0	0	
14	0	0	0	0	509	508	0	0	
15	0	0	0	0	508	510	0	0	
0	0	0	0	0	509	509	0	0	
1	0	0	0	0	510	511	0	0	
2	0	0	0	0	512	510	0	0	
3	0	0	0	0	511	508	0	0	
4	0	0	0	0	509	510	0	0	
5	0	0	0	0	511	508	0	0	
6	0	0	0	0	511	508	0	0	
7	0	0	0	0	513	509	0	0	
8	0	0	0	0	512	508	0	0	
9	0	0	0	0	511	508	0	0	
10	0	0	0	0	510	507	0	0	
11	0	0	0	0	510	507	0	0	
12	0	0	0	0	511	508	0	0	
13	0	0	0	0	511	508	0	0	
14	0	0	0	0	509	508	0	0	
15	0	0	0	0	509	510	0	0	
0	0	0	0	0	508	507	0	0	
1	0	0	0	0	511	507	0	0	
2	0	0	0	0	510	506	0	0	
3	0	0	0	0	511	508	0	0	
4	0	0	0	0	511	510	0	0	
5	0	0	0	0	509	510	0	0	
6	0	0	0	0	512	508	0	0	
7	0	0	0	0	512	510	0	0	
8	0	0	0	0	513	511	0	0	
9	0	0	0	0	515	507	0	0	
10	0	0	0	0	510	508	0	0	
11	0	0	0	0	510	509	0	0	
12	0	0	0	0	510	508	0	0	
13	0	0	0	0	511	506	0	0	
14	0	0	0	0	511	508	0	0	
15	0	0	0	0	511	506	0	0	
0	0	0	0	0	511	508	0	0	
1	0	0	0	0	512	507	0	0	
2	0	0	0	0	512	510	0	0	
3	0	0	0	0	510	506	0	0	
4	0	0	0	0	508	508	0	0	
5	0	0	0	0	509	505	0	0	
6	0	0	0	0	507	504	0	0	
7	0	0	0	0	507	509	0	0	
8	0	0	0	0	510	508	0	0	
9	0	0	0	0	509	507	0	0	
10	0	0	0	0	512	509	0	0	
11	0	0	0	0	510	508	0	0	
12	0	0	0	0	511	509	0	0	
13	0	0	0	0	511	511	0	0	
14	0	0	0	0	513	509	0	0	
15	0	0	0	0	514	508	0	0	
0	0	0	0	0	513	507	0	0	
1	0	0	0	0	515	509	0	0	
2	0	0	0	0	518	508	0	0	
3	0	0	0	0	516	508	0	0	
4	0	0	0	0	514	508	0	0	
5	0	0	0	0	509	507	0	0	
6	0	0	0	0	509	507	0	0	
7	0	0	0	0	508	506	0	0	
8	0	0	0	0	508	507	0	0	
9	0	0	0	0	511	508	0	0	
10	0	0	0	0	508	507	0	0	
11	0	0	0	0	509	509	0	0	
12	0	0	0	0	510	511	0	0	
13	0	0	0	0	505	509	0	0	
14	0	0	0	0	508	508	0	0	
15	0	0	0	0	510	509	0	0	
0	0	0	0	0	510	510	0	0	
1	0	0	0	0	509	508	0	0	
2	0	0	0	0	511	511	0	0	
3	0	0	0	0	511	510	0	0	
4	0	0	0	0	511	507	0	0	
5	0	0	0	0	512	509	0	0	
6	0	0	0	0	511	508	0	0	
7	0	0	0	0	512	507	0	0	
8	0	0	0	0	516	507	0	0	
9	0	0	0	0	515	507	0	0	
10	0	0	0	0	512	509	0	0	
11	0	0	0	0	511	508	0	0	
12	0	0	0	0	510	506	0	0	
13	0	0	0	0	511	505	0	0	
14	0	0	0	0	511	508	0	0	
15	0	0	0	0	511	508	0	0	
0	0	0	0	0	509	508	0	0	
1	0	0	0	0	508	508	0	0	
2	0	0	0	0	510	511	0	0	
3	0	0	0	0	511	509	0	0	
4	0	0	0	0	511	509	0	0	
5	0	0	0	0	509	510	0	0	
6	0	0	0	0	511	507	0	0	
7	0	0	0	0	508	508	0	0	
8	0	0	0	0	509	510	0	0	
9	0	0	0	0	511	509	0	0	
10	0	0	0	0	511	505	0	0	
11	0	0	0	0	512	506	0	0	
12	0	0	0	0	516	507	0	0	
13	0	0	0	0	513	508	0	0	
14	0	0	0	0	515	507	0	0	
15	0	0	0	0	515	505	0	0	
0	0	0	0	0	514	509	0	0	
1	0	0	0	0	510	507	0	0	
2	0	0	0	0	511	505	0	0	
3	0	0	0	0	506	511	0	0	
4	0	0	0	0	508	510	0	0	
5	0	0	0	0	512	508	0	0	
6	0	0	0	0	511	508	0	0	
7	0	0	0	0	510	509	0	0	
8	0	0	0	0	511	509	0	0	
9	0	0	0	0	512	510	0	0	
10	0	0	0	0	511	508	0	0	
11	0	0	0	0	512	508	0	0	
12	0	0	0	0	511	509	0	0	
13	0	0	0	0	512	507	0	0	
14	0	0	0	0	510	510	0	0	
15	0	0	0	0	511	509	0	0	
0	0	0	0	0	510	505	0	0	
1	0	0	0	0	511	505	0	0	
2	0	0	0	0	511	507	0	0	
3	0	0	0	0	512	509	0	0	
4	0	0	0	0	513	507	0	0	
5	0	0	0	0	512	506	0	0	
6	0	0	0	0	507	507	0	0	
7	0	0	0	0	507	508	0	0	
8	0	0	0	0	508	509	0	0	
9	0	0	0	0	509	510	0	0	
10	0	0	0	0	510	509	0	0	
11	0	0	0	0	512	511	0	0	
12	0	0	0	0	512	510	0	0	
13	0	0	0	0	514	506	0	0	
14	0	0	0	0	513	507	0	0	
15	0	0	0	0	511	510	0	0	
0	0	0	0	0	513	508	0	0	
1	0	0	0	0	513	510	0	0	
2	0	0	0	0	517	507	0	0	
3	0	0	0	0	516	507	0	0	
4	0	0	0	0	514	506	0	0	
5	0	0	0	0	509	507	0	0	
6	0	0	0	0	508	506	0	0	
7	0	0	0	0	508	510	0	0	
8	0	0	0	0	509	508	0	0	
9	0	0	0	0	507	508	0	0	
10	0	0	0	0	509	508	0	0	
11	0	0	0	0	511	508	0	0	
12	0	0	0	0	507	508	0	0	
13	0	0	0	0	505	508	0	0	
14	0	0	0	0	509	508	0	0	
15	0	0	0	0	510	508	0	0	
0	0	0	0	0	511	510	0	0	
1	0	0	0	0	512	510	0	0	
2	0	0	0	0	511	508	0	0	
3	0	0	0	0	515	507	0	0	
4	0	0	0	0	515	510	0	0	
5	0	0	0	0	515	508	0	0	
6	0	0	0	0	511	507	0	0	
7	0	0	0	0	512	508	0	0	
8	0	0	0	0	516	506	0	0	
9	0	0	0	0	519	507	0	0	
10	0	0	0	0	517	508	0	0	
11	0	0	0	0	514	507	0	0	
12	0	0	0	0	511	506	0	0	
13	0	0	0	0	507	507	0	0	
14	0	0	0	0	508	509	0	0	
15	0	0	0	0	511	507	0	0	
0	0	0	0	0	512	507	0	0	
1	0	0	0	0	508	508	0	0	
2	0	0	0	0	507	510	0	0	
3	0	0	0	0	509	511	0	0	
4	0	0	0	0	510	510	0	0	
5	0	0	0	0	511	509	0	0	
6	0	0	0	0	511	508	0	0	
7	0	0	0	0	511	509	0	0	
8	0	0	0	0	512	509	0	0	
9	0	0	0	0	514	509	0	0	
10	0	0	0	0	511	508	0	0	
11	0	0	0	0	509	506	0	0	
12	0	0	0	0	513	509	0	0	
13	0	0	0	0	512	508	0	0	
14	0	0	0	0	513	505	0	0	
15	0	0	0	0	511	506	0	0	
0	0	0	0	0	509	508	0	0	
1	0	0	0	0	509	509	0	0	
2	0	0	0	0	507	507	0	0	
3	0	0	0	0	508	508	0	0	
4	0	0	0	0	507	507	0	0	
5	0	0	0	0	510	509	0	0	
6	0	0	0	0	512	511	0	0	
7	0	0	0	0	517	510	0	0	
8	0	0	0	0	513	508	0	0	
9	0	0	0	0	512	507	0	0	
10	0	0	0	0	512	508	0	0	
11	0	0	0	0	511	508	0	0	
12	0	0	0	0	511	508	0	0	
13	0	0	0	0	511	508	0	0	
14	0	0	0	0	513	508	0	0	
15	0	0	0	0	511	507	0	0	
0	0	0	0	0	515	505	0	0	
1	0	0	0	0	513	508	0	0	
2	0	0	0	0	510	509	0	0	
3	0	0	0	0	509	508	0	0	
4	0	0	0	0	510	508	0	0	
5	0	0	0	0	509	508	0	0	
6	0	0	0	0	509	506	0	0	
7	0	0	0	0	509	510	0	0	
8	0	0	0	0	510	510	0	0	
9	0	0	0	0	513	509	0	0	
10	0	0	0	0	511	510	0	0	
11	0	0	0	0	511	507	0	0	
12	0	0	0	0	511	507	0	0	
13	0	0	0	0	512	507	0	0	
14	0	0	0	0	511	506	0	0	
15	0	0	0	0	511	510	0	0	
0	0	0	0	0	512	509	0	0	
1	0	0	0	0	515	507	0	0	
2	0	0	0	0	516	506	0	0	
3	0	0	0	0	516	506	0	0	
4	0	0	0	0	515	506	0	0	
5	0	0	0	0	511	508	0	0	
6	0	0	0	0	508	508	0	0	
7	0	0	0	0	507	509	0	0	
8	0	0	0	0	510	510	0	0	
9	0	0	0	0	509	506	0	0	
10	0	0	0	0	512	506	0	0	
11	0	0	0	0	510	507	0	0	
12	0	0	0	0	509	511	0	0	
13	0	0	0	0	511	511	0	0	
14	0	0	0	0	510	510	0	0	
15	0	0	0	0	511	509	0	0	
0	0	0	0	0	510	509	0	0	
1	0	0	0	0	511	510	0	0	
2	0	0	0	0	513	507	0	0	
3	0	0	0	0	511	508	0	0	
4	0	0	0	0	508	508	0	0	
5	0	0	0	0	507	507	0	0	
6	0	0	0	0	506	507	0	0	
7	0	0	0	0	511	507	0	0	
8	0	0	0	0	515	505	0	0	
9	0	0	0	0	513	506	0	0	
10	0	0	0	0	512	507	0	0	
11	0	0	0	0	511	508	0	0	
12	0	0	0	0	515	508	0	0	
13	0	0	0	0	515	507	0	0	
14	0	0	0	0	511	509	0	0	
15	0	0	0	0	510	510	0	0	
0	0	0	0	0	507	508	0	0	
1	0	0	0	0	507	510	0	0	
2	0	0	0	0	511	508	0	0	
3	0	0	0	0	513	509	0	0	
4	0	0	0	0	512	508	0	0	
5	0	0	0	0	512	509	0	0	
6	0	0	0	0	514	508	0	0	
7	0	0	0	0	510	507	0	0	
8	0	0	0	0	511	507	0	0	
9	0	0	0	0	511	509	0	0	
10	0	0	0	0	512	507	0	0	
11	0	0	0	0	512	507	0	0	
12	0	0	0	0	513	507	0	0	
13	0	0	0	0	512	508	0	0	
14	0	0	0	0	510	510	0	0	
15	0	0	0	0	510	507	0	0	
0	0	0	0	0	509	505	0	0	
1	0	0	0	0	511	508	0	0	
2	0	0	0	0	510	508	0	0	
3	0	0	0	0	512	507	0	0	
4	0	0	0	0	512	509	0	0	
5	0	0	0	0	512	509	0	0	
6	0	0	0	0	512	510	0	0	
7	0	0	0	0	512	509	0	0	
8	0	0	0	0	513	510	0	0	
9	0	0	0	0	511	508	0	0	
10	0	0	0	0	513	508	0	0	
11	0	0	0	0	511	508	0	0	
12	0	0	0	0	512	509	0	0	
13	0	0	0	0	511	508	0	0	
14	0	0	0	0	509	507	0	0	
15	0	0	0	0	509	506	0	0	
0	0	0	0	0	510	507	0	0	
1	0	0	0	0	507	506	0	0	
2	0	0	0	0	509	508	0	0	
3	0	0	0	0	509	507	0	0	
4	0	0	0	0	509	507	0	0	
5	0	0	0	0	509	509	0	0	
6	0	0	0	0	508	509	0	0	
7	0	0	0	0	507	508	0	0	
8	0	0	0	0	511	509	0	0	
9	0	0	0	0	511	509	0	0	
10	0	0	0	0	513	511	0	0	
11	0	0	0	0	512	511	0	0	
12	0	0	0	0	512	508	0	0	
13	0	0	0	0	514	507	0	0	
14	0	0	0	0	511	507	0	0	
15	0	0	0	0	511	508	0	0	
0	0	0	0	0	513	509	0	0	
1	0	0	0	0	511	508	0	0	
2	0	0	0	0	510	508	0	0	
3	0	0	0	0	511	508	0	0	
4	0	0	0	0	513	505	0	0	
5	0	0	0	0	514	508	0	0	
6	0	0	0	0	515	507	0	0	
7	0	0	0	0	514	508	0	0	
8	0	0	0	0	511	508	0	0	
9	0	0	0	0	509	507	0	0	
10	0	0	0	0	508	508	0	0	
11	0	0	0	0	508	506	0	0	
12	0	0	0	0	508	510	0	0	
13	0	0	0	0	509	508	0	0	
14	0	0	0	0	508	510	0	0	
15	0	0	0	0	510	511	0	0	
0	0	0	0	0	508	509	0	0	
1	0	0	0	0	507	508	0	0	
2	0	0	0	0	512	508	0	0	
3	0	0	0	0	515	509	0	0	
4	0	0	0	0	516	507	0	0	
5	0	0	0	0	518	507	0	0	
6	0	0	0	0	519	506	0	0	
7	0	0	0	0	513	508	0	0	
8	0	0	0	0	510	505	0	0	
9	0	0	0	0	512	507	0	0	
10	0	0	0	0	508	508	0	0	
11	0	0	0	0	503	507	0	0	
12	0	0	0	0	507	506	0	0	
13	0	0	0	0	507	508	0	0	
14	0	0	0	0	506	507	0	0	
15	0	0	0	0	504	509	0	0	
0	0	0	0	0	513	509	0	0	
1	0	0	0	0	513	508	0	0	
2	0	0	0	0	517	507	0	0	
3	0	0	0	0	516	509	0	0	
4	0	0	0	0	516	510	0	0	
5	0	0	0	0	515	510	0	0	
6	0	0	0	0	514	510	0	0	
7	0	0	0	0	514	506	0	0	
8	0	0	0	0	512	509	0	0	
9	0	0	0	0	510	509	0	0	
10	0	0	0	0	511	507	0	0	
11	0	0	0	0	510	509	0	0	
12	0	0	0	0	509	508	0	0	
13	0	0	0	0	508	507	0	0	
14	0	0	0	0	508	507	0	0	
15	0	0	0	0	511	508	0	0	
0	0	0	0	0	510	505	0	0	
1	0	0	0	0	510	505	0	0	
2	0	0	0	0	507	508	0	0	
3	0	0	0	0	507	507	0	0	
4	0	0	0	0	513	509	0	0	
5	0	0	0	0	511	508	0	0	
6	0	0	0	0	511	507	0	0	
7	0	0	0	0	512	509	0	0	
8	0	0	0	0	511	508	0	0	
9	0	0	0	0	513	511	0	0	
10	0	0	0	0	513	510	0	0	
11	0	0	0	0	512	510	0	0	
12	0	0	0	0	511	509	0	0	
13	0	0	0	0	511	508	0	0	
14	0	0	0	0	515	507	0	0	
15	0	0	0	0	514	506	0	0	
0	0	0	0	0	512	506	0	0	
1	0	0	0	0	511	507	0	0	
2	0	0	0	0	509	506	0	0	
3	0	0	0	0	510	508	0	0	
4	0	0	0	0	508	507	0	0	
5	0	0	0	0	510	506	0	0	
6	0	0	0	0	510	509	0	0	
7	0	0	0	0	507	509	0	0	
8	0	0	0	0	508	509	0	0	
9	0	0	0	0	511	508	0	0	
10	0	0	0	0	512	508	0	0	
11	0	0	0	0	512	506	0	0	
12	0	0	0	0	514	507	0	0	
13	0	0	0	0	512	509	0	0	
14	0	0	0	0	512	508	0	0	
15	0	0	0	0	514	509	0	0	
0	0	0	0	0	513	507	0	0	
1	0	0	0	0	510	507	0	0	
2	0	0	0	0	510	507	0	0	
3	0	0	0	0	511	507	0	0	
4	0	0	0	0	508	506	0	0	
5	0	0	0	0	508	508	0	0	
6	0	0	0	0	511	505	0	0	
7	0	0	0	0	510	507	0	0	
8	0	0	0	0	510	507	0	0	
9	0	0	0	0	512	509	0	0	
10	0	0	0	0	514	509	0	0	
11	0	0	0	0	513	511	0	0	
12	0	0	0	0	512	508	0	0	
13	0	0	0	0	510	510	0	0	
14	0	0	0	0	510	509	0	0	
15	0	0	0	0	511	510	0	0	
0	0	0	0	0	513	509	0	0	
1	0	0	0	0	512	507	0	0	
2	0	0	0	0	512	509	0	0	
3	0	0	0	0	514	510	0	0	
4	0	0	0	0	511	509	0	0	
5	0	0	0	0	509	508	0	0	
6	0	0	0	0	509	507	0	0	
7	0	0	0	0	509	505	0	0	
8	0	0	0	0	510	508	0	0	
9	0	0	0	0	510	507	0	0	
10	0	0	0	0	514	505	0	0	
11	0	0	0	0	512	506	0	0	
12	0	0	0	0	510	505	0	0	
13	0	0	0	0	506	508	0	0	
14	0	0	0	0	508	507	0	0	
15	0	0	0	0	507	507	0	0	
0	0	0	0	0	508	510	0	0	
1	0	0	0	0	511	513	0	0	
2	0	0	0	0	510	509	0	0	
3	0	0	0	0	511	511	0	0	
4	0	0	0	0	510	508	0	0	
5	0	0	0	0	514	508	0	0	
6	0	0	0	0	518	508	0	0	
7	0	0	0	0	516	509	0	0	
8	0	0	0	0	512	508	0	0	
9	0	0	0	0	511	507	0	0	
10	0	0	0	0	511	506	0	0	
11	0	0	0	0	508	508	0	0	
12	0	0	0	0	510	507	0	0	
13	0	0	0	0	510	507	0	0	
14	0	0	0	0	507	507	0	0	
15	0	0	0	0	511	508	0	0	
0	0	0	0	0	515	509	0	0	
1	0	0	0	0	519	506	0	0	
2	0	0	0	0	517	506	0	0	
3	0	0	0	0	511	508	0	0	
4	0	0	0	0	506	509	0	0	
5	0	0	0	0	507	509	0	0	
6	0	0	0	0	510	510	0	0	
7	0	0	0	0	513	508	0	0	
8	0	0	0	0	512	509	0	0	
9	0	0	0	0	511	508	0	0	
10	0	0	0	0	512	509	0	0	
11	0	0	0	0	512	508	0	0	
12	0	0	0	0	513	509	0	0	
13	0	0	0	0	513	510	0	0	
14	0	0	0	0	512	507	0	0	
15	0	0	0	0	513	507	0	0	
0	0	0	0	0	509	507	0	0	
1	0	0	0	0	508	506	0	0	
2	0	0	0	0	507	507	0	0	
3	0	0	0	0	506	508	0	0	
4	0	0	0	0	507	507	0	0	
5	0	0	0	0	507	507	0	0	
6	0	0	0	0	508	508	0	0	
7	0	0	0	0	511	508	0	0	
8	0	0	0	0	513	508	0	0	
9	0	0	0	0	512	508	0	0	
10	0	0	0	0	510	511	0	0	
11	0	0	0	0	515	509	0	0	
12	0	0	0	0	511	508	0	0	
13	0	0	0	0	511	508	0	0	
14	0	0	0	0	511	510	0	0	
15	0	0	0	0	512	508	0	0	
0	0	0	0	0	511	510	0	0	
1	0	0	0	0	510	508	0	0	
2	0	0	0	0	510	508	0	0	
3	0	0	0	0	513	507	0	0	
4	0	0	0	0	511	508	0	0	
5	0	0	0	0	510	507	0	0	
6	0	0	0	0	511	507	0	0	
7	0	0	0	0	513	507	0	0	
8	0	0	0	0	513	507	0	0	
9	0	0	0	0	514	506	0	0	
10	0	0	0	0	512	507	0	0	
11	0	0	0	0	512	510	0	0	
12	0	0	0	0	509	508	0	0	
13	0	0	0	0	513	509	0	0	
14	0	0	0	0	511	509	0	0	
15	0	0	0	0	509	509	0	0	
0	0	0	0	0	512	508	0	0	
1	0	0	0	0	512	509	0	0	
2	0	0	0	0	511	512	0	0	
3	0	0	0	0	511	511	0	0	
4	0	0	0	0	511	508	0	0	
5	0	0	0	0	511	507	0	0	
6	0	0	0	0	513	507	0	0	
7	0	0	0	0	512	506	0	0	
8	0	0	0	0	513	509	0	0	
9	0	0	0	0	511	505	0	0	
10	0	0	0	0	509	508	0	0	
11	0	0	0	0	508	508	0	0	
12	0	0	0	0	509	508	0	0	
13	0	0	0	0	512	507	0	0	
14	0	0	0	0	510	506	0	0	
15	0	0	0	0	507	510	0	0	
0	0	0	0	0	505	508	0	0	
1	0	0	0	0	508	509	0	0	
2	0	0	0	0	508	510	0	0	
3	0	0	0	0	510	510	0	0	
4	0	0	0	0	512	509	0	0	
5	0	0	0	0	512	509	0	0	
6	0	0	0	0	515	508	0	0	
7	0	0	0	0	518	508	0	0	
8	0	0	0	0	516	509	0	0	
9	0	0	0	0	514	507	0	0	
10	0	0	0	0	514	506	0	0	
11	0	0	0	0	510	506	0	0	
12	0	0	0	0	511	507	0	0	
13	0	0	0	0	510	505	0	0	
14	0	0	0	0	509	506	0	0	
15	0	0	0	0	507	508	0	0	
0	0	0	0	0	509	507	0	0	
1	0	0	0	0	509	505	0	0	
2	0	0	0	0	510	505	0	0	
3	0	0	0	0	509	510	0	0	
4	0	0	0	0	510	509	0	0	
5	0	0	0	0	512	510	0	0	
6	0	0	0	0	510	512	0	0	
7	0	0	0	0	507	509	0	0	
8	0	0	0	0	512	508	0	0	
9	0	0	0	0	511	507	0	0	
10	0	0	0	0	512	509	0	0	
11	0	0	0	0	511	508	0	0	
12	0	0	0	0	510	508	0	0	
13	0	0	0	0	513	510	0	0	
14	0	0	0	0	513	507	0	0	
15	0	0	0	0	511	507	0	0	
0	0	0	0	0	510	508	0	0	
1	0	0	0	0	508	507	0	0	
2	0	0	0	0	508	507	0	0	
3	0	0	0	0	508	507	0	0	
4	0	0	0	0	507	507	0	0	
5	0	0	0	0	508	506	0	0	
6	0	0	0	0	513	507	0	0	
7	0	0	0	0	517	509	0	0	
8	0	0	0	0	515	509	0	0	
9	0	0	0	0	510	509	0	0	
10	0	0	0	0	509	509	0	0	
11	0	0	0	0	508	508	0	0	
12	0	0	0	0	513	510	0	0	
13	0	0	0	0	511	510	0	0	
14	0	0	0	0	511	511	0	0	
15	0	0	0	0	511	510	0	0	
0	0	0	0	0	513	509	0	0	
1	0	0	0	0	515	507	0	0	
2	0	0	0	0	513	505	0	0	
3	0	0	0	0	512	506	0	0	
4	0	0	0	0	511	506	0	0	
5	0	0	0	0	510	507	0	0	
6	0	0	0	0	508	508	0	0	
7	0	0	0	0	511	506	0	0	
8	0	0	0	0	510	507	0	0	
9	0	0	0	0	509	509	0	0	
10	0	0	0	0	508	508	0	0	
11	0	0	0	0	510	509	0	0	
12	0	0	0	0	512	508	0	0	
13	0	0	0	0	511	509	0	0	
14	0	0	0	0	508	510	0	0	
15	0	0	0	0	511	508	0	0	
0	0	0	0	0	511	510	0	0	
1	0	0	0	0	511	509	0	0	
2	0	0	0	0	510	509	0	0	
3	0	0	0	0	512	508	0	0	
4	0	0	0	0	515	509	0	0	
5	0	0	0	0	518	509	0	0	
6	0	0	0	0	516	506	0	0	
7	0	0	0	0	515	506	0	0	
8	0	0	0	0	519	506	0	0	
9	0	0	0	0	515	505	0	0	
10	0	0	0	0	511	508	0	0	
11	0	0	0	0	510	508	0	0	
12	0	0	0	0	508	507	0	0	
13	0	0	0	0	507	506	0	0	
14	0	0	0	0	504	507	0	0	
15	0	0	0	0	504	508	0	0	
0	0	0	0	0	508	509	0	0	
1	0	0	0	0	508	510	0	0	
2	0	0	0	0	509	510	0	0	
3	0	0	0	0	511	511	0	0	
4	0	0	0	0	510	508	0	0	
5	0	0	0	0	514	508	0	0	
6	0	0	0	0	516	507	0	0	
7	0	0	0	0	511	509	0	0	
8	0	0	0	0	512	509	0	0	
9	0	0	0	0	511	509	0	0	
10	0	0	0	0	514	507	0	0	
11	0	0	0	0	514	505	0	0	
12	0	0	0	0	512	507	0	0	
13	0	0	0	0	510	506	0	0	
14	0	0	0	0	510	508	0	0	
15	0	0	0	0	510	508	0	0	
0	0	0	0	0	510	507	0	0	
1	0	0	0	0	510	507	0	0	
2	0	0	0	0	507	507	0	0	
3	0	0	0	0	508	507	0	0	
4	0	0	0	0	510	510	0	0	
5	0	0	0	0	511	508	0	0	
6	0	0	0	0	510	508	0	0	
7	0	0	0	0	510	508	0	0	
8	0	0	0	0	511	508	0	0	
9	0	0	0	0	513	510	0	0	
10	0	0	0	0	514	509	0	0	
11	0	0	0	0	513	508	0	0	
12	0	0	0	0	513	509	0	0	
13	0	0	0	0	513	507	0	0	
14	0	0	0	0	514	508	0	0	
15	0	0	0	0	510	506	0	0	
0	0	0	0	0	509	507	0	0	
1	0	0	0	0	511	507	0	0	
2	0	0	0	0	511	507	0	0	
3	0	0	0	0	510	505	0	0	
4	0	0	0	0	508	507	0	0	
5	0	0	0	0	505	507	0	0	
6	0	0	0	0	499	508	0	0	
7	0	0	0	0	504	507	0	0	
8	0	0	0	0	509	507	0	0	
9	0	0	0	0	513	507	0	0	
10	0	0	0	0	514	510	0	0	
11	0	0	0	0	518	511	0	0	
12	0	0	0	0	523	511	0	0	
13	0	0	0	0	522	508	0	0	
14	0	0	0	0	517	508	0	0	
15	0	0	0	0	511	508	0	0	
0	0	0	0	0	512	508	0	0	
1	0	0	0	0	510	507	0	0	
2	0	0	0	0	511	507	0	0	
3	0	0	0	0	508	508	0	0	
4	0	0	0	0	511	506	0	0	
5	0	0	0	0	509	506	0	0	
6	0	0	0	0	507	507	0	0	
7	0	0	0	0	507	508	0	0	
8	0	0	0	0	508	508	0	0	
9	0	0	0	0	508	508	0	0	
10	0	0	0	0	508	508	0	0	
11	0	0	0	0	508	508	0	0	
12	0	0	0	0	510	509	0	0	
13	0	0	0	0	511	506	0	0	
14	0	0	0	0	510	510	0	0	
15	0	0	0	0	511	509	0	0	
0	0	0	0	0	511	510	0	0	
1	0	0	0	0	509	508	0	0	
2	0	0	0	0	510	509	0	0	
3	0	0	0	0	512	507	0	0	
4	0	0	0	0	511	508	0	0	
5	0	0	0	0	516	508	0	0	
6	0	0	0	0	515	506	0	0	
7	0	0	0	0	511	508	0	0	
8	0	0	0	0	511	508	0	0	
9	0	0	0	0	512	508	0	0	
10	0	0	0	0	508	508	0	0	
11	0	0	0	0	507	508	0	0	
12	0	0	0	0	509	507	0	0	
13	0	0	0	0	510	507	0	0	
14	0	0	0	0	516	506	0	0	
15	0	0	0	0	519	509	0	0	
0	0	0	0	0	523	510	0	0	
1	0	0	0	0	516	508	0	0	
2	0	0	0	0	511	509	0	0	
3	0	0	0	0	508	508	0	0	
4	0	0	0	0	511	509	0	0	
5	0	0	0	0	512	508	0	0	
6	0	0	0	0	507	507	0	0	
7	0	0	0	0	506	510	0	0	
8	0	0	0	0	510	509	0	0	
9	0	0	0	0	509	508	0	0	
10	0	0	0	0	509	507	0	0	
11	0	0	0	0	510	507	0	0	
12	0	0	0	0	512	507	0	0	
13	0	0	0	0	511	505	0	0	
14	0	0	0	0	512	505	0	0	
15	0	0	0	0	509	508	0	0	
0	0	0	0	0	510	507	0	0	
1	0	0	0	0	511	507	0	0	
2	0	0	0	0	509	508	0	0	
3	0	0	0	0	508	510	0	0	
4	0	0	0	0	510	508	0	0	
5	0	0	0	0	510	508	0	0	
6	0	0	0	0	510	511	0	0	
7	0	0	0	0	510	508	0	0	
8	0	0	0	0	510	508	0	0	
9	0	0	0	0	510	512	0	0	
10	0	0	0	0	509	508	0	0	
11	0	0	0	0	512	509	0	0	
12	0	0	0	0	512	507	0	0	
13	0	0	0	0	511	507	0	0	
14	0	0	0	0	513	508	0	0	
15	0	0	0	0	515	506	0	0	
0	0	0	0	0	520	507	0	0	
1	0	0	0	0	515	507	0	0	
2	0	0	0	0	513	508	0	0	
3	0	0	0	0	510	506	0	0	
4	0	0	0	0	509	508	0	0	
5	0	0	0	0	507	508	0	0	
6	0	0	0	0	506	509	0	0	
7	0	0	0	0	507	508	0	0	
8	0	0	0	0	509	508	0	0	
9	0	0	0	0	510	509	0	0	
10	0	0	0	0	512	508	0	0	
11	0	0	0	0	513	510	0	0	
12	0	0	0	0	513	508	0	0	
13	0	0	0	0	511	509	0	0	
14	0	0	0	0	509	508	0	0	
15	0	0	0	0	507	508	0	0	
0	0	0	0	0	508	508	0	0	
1	0	0	0	0	511	507	0	0	
2	0	0	0	0	510	507	0	0	
3	0	0	0	0	509	506	0	0	
4	0	0	0	0	505	507	0	0	
5	0	0	0	0	511	507	0	0	
6	0	0	0	0	514	506	0	0	
7	0	0	0	0	519	508	0	0	
8	0	0	0	0	520	506	0	0	
9	0	0	0	0	518	507	0	0	
10	0	0	0	0	515	507	0	0	
11	0	0	0	0	514	508	0	0	
12	0	0	0	0	514	508	0	0	
13	0	0	0	0	511	509	0	0	
14	0	0	0	0	511	510	0	0	
15	0	0	0	0	507	509	0	0	
0	0	0	0	0	509	509	0	0	
1	0	0	0	0	511	511	0	0	
2	0	0	0	0	510	509	0	0	
3	0	0	0	0	511	510	0	0	
4	0	0	0	0	511	509	0	0	
5	0	0	0	0	512	508	0	0	
6	0	0	0	0	509	506	0	0	
7	0	0	0	0	507	506	0	0	
8	0	0	0	0	507	508	0	0	
9	0	0	0	0	510	507	0	0	
10	0	0	0	0	508	507	0	0	
11	0	0	0	0	508	508	0	0	
12	0	0	0	0	508	508	0	0	
13	0	0	0	0	511	505	0	0	
14	0	0	0	0	515	508	0	0	
15	0	0	0	0	511	508	0	0	
0	0	0	0	0	510	511	0	0	
1	0	0	0	0	511	507	0	0	
2	0	0	0	0	514	509	0	0	
3	0	0	0	0	512	509	0	0	
4	0	0	0	0	512	510	0	0	
5	0	0	0	0	513	508	0	0	
6	0	0	0	0	510	509	0	0	
7	0	0	0	0	512	508	0	0	
8	0	0	0	0	514	510	0	0	
9	0	0	0	0	512	508	0	0	
10	0	0	0	0	513	506	0	0	
11	0	0	0	0	509	509	0	0	
12	0	0	0	0	509	506	0	0	
13	0	0	0	0	510	506	0	0	
14	0	0	0	0	510	506	0	0	
15	0	0	0	0	508	508	0	0	
0	0	0	0	0	510	508	0	0	
1	0	0	0	0	510	506	0	0	
2	0	0	0	0	512	507	0	0	
3	0	0	0	0	512	508	0	0	
4	0	0	0	0	508	511	0	0	
5	0	0	0	0	508	509	0	0	
6	0	0	0	0	508	510	0	0	
7	0	0	0	0	511	509	0	0	
8	0	0	0	0	512	508	0	0	
9	0	0	0	0	515	510	0	0	
10	0	0	0	0	511	509	0	0	
11	0	0	0	0	514	509	0	0	
12	0	0	0	0	514	508	0	0	
13	0	0	0	0	513	509	0	0	
14	0	0	0	0	513	506	0	0	
15	0	0	0	0	513	506	0	0	
0	0	0	0	0	512	506	0	0	
1	0	0	0	0	512	504	0	0	
2	0	0	0	0	514	508	0	0	
3	0	0	0	0	511	506	0	0	
4	0	0	0	0	510	507	0	0	
5	0	0	0	0	511	507	0	0	
6	0	0	0	0	510	507	0	0	
7	0	0	0	0	508	508	0	0	
8	0	0	0	0	508	508	0	0	
9	0	0	0	0	507	510	0	0	
10	0	0	0	0	508	510	0	0	
11	0	0	0	0	511	509	0	0	
12	0	0	0	0	513	509	0	0	
13	0	0	0	0	511	508	0	0	
14	0	0	0	0	513	507	0	0	
15	0	0	0	0	513	510	0	0	
0	0	0	0	0	511	508	0	0	
1	0	0	0	0	510	510	0	0	
2	0	0	0	0	509	508	0	0	
3	0	0	0	0	509	506	0	0	
4	0	0	0	0	508	508	0	0	
5	0	0	0	0	508	506	0	0	
6	0	0	0	0	507	506	0	0	
7	0	0	0	0	511	507	0	0	
8	0	0	0	0	516	506	0	0	
9	0	0	0	0	516	508	0	0	
10	0	0	0	0	513	507	0	0	
11	0	0	0	0	511	506	0	0	
12	0	0	0	0	512	510	0	0	
13	0	0	0	0	512	510	0	0	
14	0	0	0	0	511	511	0	0	
15	0	0	0	0	514	508	0	0	
0	0	0	0	0	511	507	0	0	
1	0	0	0	0	510	510	0	0	
2	0	0	0	0	513	510	0	0	
3	0	0	0	0	512	510	0	0	
4	0	0	0	0	511	509	0	0	
5	0	0	0	0	509	508	0	0	
6	0	0	0	0	510	505	0	0	
7	0	0	0	0	510	507	0	0	
8	0	0	0	0	510	509	0	0	
9	0	0	0	0	508	508	0	0	
10	0	0	0	0	509	505	0	0	
11	0	0	0	0	511	507	0	0	
12	0	0	0	0	510	508	0	0	
13	0	0	0	0	509	508	0	0	
14	0	0	0	0	509	507	0	0	
15	0	0	0	0	510	508	0	0	
0	0	0	0	0	509	508	0	0	
1	0	0	0	0	508	509	0	0	
2	0	0	0	0	511	510	0	0	
3	0	0	0	0	513	510	0	0	
4	0	0	0	0	515	509	0	0	
5	0	0	0	0	515	508	0	0	
6	0	0	0	0	519	510	0	0	
7	0	0	0	0	515	509	0	0	
8	0	0	0	0	515	508	0	0	
9	0	0	0	0	515	508	0	0	
10	0	0	0	0	514	508	0	0	
11	0	0	0	0	513	507	0	0	
12	0	0	0	0	512	507	0	0	
13	0	0	0	0	511	508	0	0	
14	0	0	0	0	508	506	0	0	
15	0	0	0	0	509	508	0	0	
0	0	0	0	0	508	508	0	0	
1	0	0	0	0	510	508	0	0	
2	0	0	0	0	508	507	0	0	
3	0	0	0	0	506	508	0	0	
4	0	0	0	0	508	508	0	0	
5	0	0	0	0	507	509	0	0	
6	0	0	0	0	507	511	0	0	
7	0	0	0	0	510	510	0	0	
8	0	0	0	0	511	511	0	0	
9	0	0	0	0	512	510	0	0	
10	0	0	0	0	514	508	0	0	
11	0	0	0	0	515	505	0	0	
12	0	0	0	0	514	510	0	0	
13	0	0	0	0	514	507	0	0	
14	0	0	0	0	512	507	0	0	
15	0	0	0	0	510	505	0	0	
0	0	0	0	0	507	507	0	0	
1	0	0	0	0	507	508	0	0	
2	0	0	0	0	507	506	0	0	
3	0	0	0	0	508	509	0	0	
4	0	0	0	0	509	508	0	0	
5	0	0	0	0	515	507	0	0	
6	0	0	0	0	513	507	0	0	
7	0	0	0	0	515	507	0	0	
8	0	0	0	0	512	510	0	0	
9	0	0	0	0	507	508	0	0	
10	0	0	0	0	507	510	0	0	
11	0	0	0	0	509	512	0	0	
12	0	0	0	0	512	509	0	0	
13	0	0	0	0	516	508	0	0	
14	0	0	0	0	516	507	0	0	
15	0	0	0	0	512	508	0	0	
0	0	0	0	0	512	508	0	0	
1	0	0	0	0	511	507	0	0	
2	0	0	0	0	512	507	0	0	
3	0	0	0	0	511	505	0	0	
4	0	0	0	0	511	506	0	0	
5	0	0	0	0	510	508	0	0	
6	0	0	0	0	507	508	0	0	
7	0	0	0	0	510	510	0	0	
8	0	0	0	0	510	507	0	0	
9	0	0	0	0	512	507	0	0	
10	0	0	0	0	510	507	0	0	
11	0	0	0	0	511	510	0	0	
12	0	0	0	0	510	510	0	0	
13	0	0	0	0	509	509	0	0	
14	0	0	0	0	508	510	0	0	
15	0	0	0	0	508	509	0	0	
0	0	0	0	0	510	507	0	0	
1	0	0	0	0	511	509	0	0	
2	0	0	0	0	511	508	0	0	
3	0	0	0	0	513	509	0	0	
4	0	0	0	0	518	507	0	0	
5	0	0	0	0	517	508	0	0	
6	0	0	0	0	516	507	0	0	
7	0	0	0	0	514	508	0	0	
8	0	0	0	0	511	507	0	0	
9	0	0	0	0	510	507	0	0	
10	0	0	0	0	511	507	0	0	
11	0	0	0	0	512	507	0	0	
12	0	0	0	0	511	506	0	0	
13	0	0	0	0	510	507	0	0	
14	0	0	0	0	508	508	0	0	
15	0	0	0	0	509	507	0	0	
0	0	0	0	0	507	511	0	0	
1	0	0	0	0	511	508	0	0	
2	0	0	0	0	511	509	0	0	
3	0	0	0	0	511	511	0	0	
4	0	0	0	0	512	508	0	0	
5	0	0	0	0	514	509	0	0	
6	0	0	0	0	511	508	0	0	
7	0	0	0	0	510	508	0	0	
8	0	0	0	0	508	509	0	0	
9	0	0	0	0	507	506	0	0	
10	0	0	0	0	508	507	0	0	
11	0	0	0	0	505	507	0	0	
12	0	0	0	0	511	507	0	0	
13	0	0	0	0	512	507	0	0	
14	0	0	0	0	509	508	0	0	
15	0	0	0	0	521	508	0	0	
0	0	0	0	0	519	505	0	0	
1	0	0	0	0	510	507	0	0	
2	0	0	0	0	510	509	0	0	
3	0	0	0	0	510	510	0	0	
4	0	0	0	0	514	509	0	0	
5	0	0	0	0	512	508	0	0	
6	0	0	0	0	513	510	0	0	
7	0	0	0	0	512	511	0	0	
8	0	0	0	0	515	506	0	0	
9	0	0	0	0	513	507	0	0	
10	0	0	0	0	511	509	0	0	
11	0	0	0	0	509	508	0	0	
12	0	0	0	0	505	508	0	0	
13	0	0	0	0	506	508	0	0	
14	0	0	0	0	510	507	0	0	
15	0	0	0	0	510	508	0	0	
0	0	0	0	0	513	508	0	0	
1	0	0	0	0	514	508	0	0	
2	0	0	0	0	515	505	0	0	
3	0	0	0	0	515	508	0	0	
4	0	0	0	0	514	508	0	0	
5	0	0	0	0	513	507	0	0	
6	0	0	0	0	510	508	0	0	
7	0	0	0	0	508	509	0	0	
8	0	0	0	0	510	509	0	0	
9	0	0	0	0	510	508	0	0	
10	0	0	0	0	511	508	0	0	
11	0	0	0	0	510	510	0	0	
12	0	0	0	0	510	510	0	0	
13	0	0	0	0	510	509	0	0	
14	0	0	0	0	510	509	0	0	
15	0	0	0	0	508	510	0	0	
0	0	0	0	0	512	508	0	0	
1	0	0	0	0	511	508	0	0	
2	0	0	0	0	512	510	0	0	
3	0	0	0	0	510	506	0	0	
4	0	0	0	0	511	508	0	0	
5	0	0	0	0	510	508	0	0	
6	0	0	0	0	509	507	0	0	
7	0	0	0	0	510	506	0	0	
8	0	0	0	0	514	505	0	0	
9	0	0	0	0	509	505	0	0	
10	0	0	0	0	509	508	0	0	
11	0	0	0	0	510	508	0	0	
12	0	0	0	0	514	510	0	0	
13	0	0	0	0	514	509	0	0	
14	0	0	0	0	511	509	0	0	
15	0	0	0	0	510	510	0	0	
0	0	0	0	0	513	511	0	0	
1	0	0	0	0	514	509	0	0	
2	0	0	0	0	509	509	0	0	
3	0	0	0	0	510	508	0	0	
4	0	0	0	0	511	509	0	0	
5	0	0	0	0	513	508	0	0	
6	0	0	0	0	513	506	0	0	
7	0	0	0	0	513	508	0	0	
8	0	0	0	0	515	507	0	0	
9	0	0	0	0	511	505	0	0	
10	0	0	0	0	510	506	0	0	
11	0	0	0	0	508	508	0	0	
12	0	0	0	0	507	508	0	0	
13	0	0	0	0	507	506	0	0	
14	0	0	0	0	510	507	0	0	
15	0	0	0	0	510	508	0	0	
0	0	0	0	0	515	510	0	0	
1	0	0	0	0	512	510	0	0	
2	0	0	0	0	510	510	0	0	
3	0	0	0	0	515	509	0	0	
4	0	0	0	0	515	510	0	0	
5	0	0	0	0	514	509	0	0	
6	0	0	0	0	510	507	0	0	
7	0	0	0	0	512	509	0	0	
8	0	0	0	0	508	509	0	0	
9	0	0	0	0	511	509	0	0	
10	0	0	0	0	514	510	0	0	
11	0	0	0	0	513	506	0	0	
12	0	0	0	0	511	504	0	0	
13	0	0	0	0	508	505	0	0	
14	0	0	0	0	511	506	0	0	
15	0	0	0	0	508	509	0	0	
0	0	0	0	0	510	506	0	0	
1	0	0	0	0	509	507	0	0	
2	0	0	0	0	509	508	0	0	
3	0	0	0	0	509	508	0	0	
4	0	0	0	0	513	509	0	0	
5	0	0	0	0	511	510	0	0	
6	0	0	0	0	511	509	0	0	
7	0	0	0	0	510	508	0	0	
8	0	0	0	0	509	510	0	0	
9	0	0	0	0	514	509	0	0	
10	0	0	0	0	514	508	0	0	
11	0	0	0	0	515	507	0	0	
12	0	0	0	0	515	508	0	0	
13	0	0	0	0	514	508	0	0	
14	0	0	0	0	514	507	0	0	
15	0	0	0	0	510	506	0	0	
0	0	0	0	0	510	505	0	0	
1	0	0	0	0	508	508	0	0	
2	0	0	0	0	509	507	0	0	
3	0	0	0	0	509	508	0	0	
4	0	0	0	0	508	508	0	0	
5	0	0	0	0	510	507	0	0	
6	0	0	0	0	509	507	0	0	
7	0	0	0	0	511	508	0	0	
8	0	0	0	0	511	508	0	0	
9	0	0	0	0	511	508	0	0	
10	0	0	0	0	509	509	0	0	
11	0	0	0	0	508	509	0	0	
12	0	0	0	0	511	509	0	0	
13	0	0	0	0	510	509	0	0	
14	0	0	0	0	510	509	0	0	
15	0	0	0	0	511	510	0	0	
0	0	0	0	0	509	508	0	0	
1	0	0	0	0	510	508	0	0	
2	0	0	0	0	512	506	0	0	
3	0	0	0	0	512	508	0	0	
4	0	0	0	0	515	508	0	0	
5	0	0	0	0	513	507	0	0	
6	0	0	0	0	513	508	0	0	
7	0	0	0	0	514	508	0	0	
8	0	0	0	0	510	507	0	0	
9	0	0	0	0	510	510	0	0	
10	0	0	0	0	511	508	0	0	
11	0	0	0	0	508	510	0	0	
12	0	0	0	0	510	507	0	0	
13	0	0	0	0	509	511	0	0	
14	0	0	0	0	511	511	0	0	
15	0	0	0	0	512	508	0	0	
0	0	0	0	0	509	510	0	0	
1	0	0	0	0	511	508	0	0	
2	0	0	0	0	509	508	0	0	
3	0	0	0	0	512	508	0	0	
4	0	0	0	0	512	509	0	0	
5	0	0	0	0	511	508	0	0	
6	0	0	0	0	512	507	0	0	
7	0	0	0	0	511	508	0	0	
8	0	0	0	0	514	507	0	0	
9	0	0	0	0	515	508	0	0	
10	0	0	0	0	516	508	0	0	
11	0	0	0	0	514	508	0	0	
12	0	0	0	0	514	508	0	0	
13	0	0	0	0	510	507	0	0	
14	0	0	0	0	510	505	0	0	
15	0	0	0	0	510	508	0	0	
0	0	0	0	0	508	508	0	0	
1	0	0	0	0	508	510	0	0	
2	0	0	0	0	510	510	0	0	
3	0	0	0	0	508	507	0	0	
4	0	0	0	0	510	507	0	0	
5	0	0	0	0	514	509	0	0	
6	0	0	0	0	515	510	0	0	
7	0	0	0	0	513	508	0	0	
8	0	0	0	0	514	508	0	0	
9	0	0	0	0	512	508	0	0	
10	0	0	0	0	507	509	0	0	
11	0	0	0	0	510	509	0	0	
12	0	0	0	0	510	505	0	0	
13	0	0	0	0	510	506	0	0	
14	0	0	0	0	512	508	0	0	
15	0	0	0	0	513	506	0	0	
0	0	0	0	0	512	508	0	0	
1	0	0	0	0	514	508	0	0	
2	0	0	0	0	513	509	0	0	
3	0	0	0	0	508	507	0	0	
4	0	0	0	0	507	510	0	0	
5	0	0	0	0	512	507	0	0	
6	0	0	0	0	512	508	0	0	
7	0	0	0	0	512	509	0	0	
8	0	0	0	0	512	509	0	0	
9	0	0	0	0	511	510	0	0	
10	0	0	0	0	511	509	0	0	
11	0	0	0	0	511	512	0	0	
12	0	0	0	0	512	510	0	0	
13	0	0	0	0	514	507	0	0	
14	0	0	0	0	511	507	0	0	
15	0	0	0	0	510	506	0	0	
0	0	0	0	0	509	507	0	0	
1	0	0	0	0	509	508	0	0	
2	0	0	0	0	511	507	0	0	
3	0	0	0	0	508	507	0	0	
4	0	0	0	0	509	507	0	0	
5	0	0	0	0	510	506	0	0	
6	0	0	0	0	510	507	0	0	
7	0	0	0	0	511	507	0	0	
8	0	0	0	0	511	508	0	0	
9	0	0	0	0	509	509	0	0	
10	0	0	0	0	510	508	0	0	
11	0	0	0	0	513	508	0	0	
12	0	0	0	0	513	509	0	0	
13	0	0	0	0	512	510	0	0	
14	0	0	0	0	512	509	0	0	
15	0	0	0	0	514	508	0	0	
0	0	0	0	0	512	510	0	0	
1	0	0	0	0	512	507	0	0	
2	0	0	0	0	512	507	0	0	
3	0	0	0	0	511	508	0	0	
4	0	0	0	0	509	507	0	0	
5	0	0	0	0	510	508	0	0	
6	0	0	0	0	510	507	0	0	
7	0	0	0	0	510	508	0	0	
8	0	0	0	0	511	507	0	0	
9	0	0	0	0	511	507	0	0	
10	0	0	0	0	512	506	0	0	
11	0	0	0	0	511	506	0	0	
12	0	0	0	0	513	508	0	0	
13	0	0	0	0	510	511	0	0	
14	0	0	0	0	507	509	0	0	
15	0	0	0	0	509	511	0	0	
0	0	0	0	0	511	509	0	0	
1	0	0	0	0	514	510	0	0	
2	0	0	0	0	515	509	0	0	
3	0	0	0	0	513	507	0	0	
4	0	0	0	0	515	508	0	0	
5	0	0	0	0	514	508	0	0	
6	0	0	0	0	514	507	0	0	
7	0	0	0	0	508	507	0	0	
8	0	0	0	0	512	507	0	0	
9	0	0	0	0	511	507	0	0	
10	0	0	0	0	511	508	0	0	
11	0	0	0	0	508	507	0	0	
12	0	0	0	0	505	507	0	0	
13	0	0	0	0	508	507	0	0	
14	0	0	0	0	508	509	0	0	
15	0	0	0	0	509	510	0	0	
0	0	0	0	0	508	510	0	0	
1	0	0	0	0	507	509	0	0	
2	0	0	0	0	515	511	0	0	
3	0	0	0	0	519	507	0	0	
4	0	0	0	0	515	509	0	0	
5	0	0	0	0	513	508	0	0	
6	0	0	0	0	515	509	0	0	
7	0	0	0	0	516	507	0	0	
8	0	0	0	0	512	508	0	0	
9	0	0	0	0	509	509	0	0	
10	0	0	0	0	509	509	0	0	
11	0	0	0	0	510	505	0	0	
12	0	0	0	0	506	506	0	0	
13	0	0	0	0	508	506	0	0	
14	0	0	0	0	507	509	0	0	
15	0	0	0	0	512	508	0	0	
0	0	0	0	0	512	509	0	0	
1	0	0	0	0	516	508	0	0	
2	0	0	0	0	515	507	0	0	
3	0	0	0	0	518	506	0	0	
4	0	0	0	0	514	507	0	0	
5	0	0	0	0	512	508	0	0	
6	0	0	0	0	509	509	0	0	
7	0	0	0	0	510	508	0	0	
8	0	0	0	0	511	509	0	0	
9	0	0	0	0	509	509	0	0	
10	0	0	0	0	506	510	0	0	
11	0	0	0	0	508	509	0	0	
12	0	0	0	0	510	508	0	0	
13	0	0	0	0	513	506	0	0	
14	0	0	0	0	512	505	0	0	
15	0	0	0	0	511	508	0	0	
0	0	0	0	0	511	507	0	0	
1	0	0	0	0	510	506	0	0	
2	0	0	0	0	511	506	0	0	
3	0	0	0	0	511	507	0	0	
4	0	0	0	0	511	507	0	0	
5	0	0	0	0	511	509	0	0	
6	0	0	0	0	511	509	0	0	
7	0	0	0	0	508	510	0	0	
8	0	0	0	0	510	507	0	0	
9	0	0	0	0	510	508	0	0	
10	0	0	0	0	510	507	0	0	
11	0	0	0	0	510	508	0	0	
12	0	0	0	0	511	510	0	0	
13	0	0	0	0	513	508	0	0	
14	0	0	0	0	512	511	0	0	
15	0	0	0	0	511	511	0	0	
0	0	0	0	0	513	509	0	0	
1	0	0	0	0	516	509	0	0	
2	0	0	0	0	517	506	0	0	
3	0	0	0	0	515	508	0	0	
4	0	0	0	0	513	508	0	0	
5	0	0	0	0	511	508	0	0	
6	0	0	0	0	509	507	0	0	
7	0	0	0	0	510	506	0	0	
8	0	0	0	0	510	508	0	0	
9	0	0	0	0	508	506	0	0	
10	0	0	0	0	509	507	0	0	
11	0	0	0	0	510	510	0	0	
12	0	0	0	0	507	509	0	0	
13	0	0	0	0	510	509	0	0	
14	0	0	0	0	512	511	0	0	
15	0	0	0	0	510	510	0	0	
0	0	0	0	0	509	508	0	0	
1	0	0	0	0	511	507	0	0	
2	0	0	0	0	515	509	0	0	
3	0	0	0	0	514	508	0	0	
4	0	0	0	0	516	510	0	0	
5	0	0	0	0	512	508	0	0	
6	0	0	0	0	512	505	0	0	
7	0	0	0	0	508	509	0	0	
8	0	0	0	0	511	507	0	0	
9	0	0	0	0	510	508	0	0	
10	0	0	0	0	509	508	0	0	
11	0	0	0	0	510	507	0	0	
12	0	0	0	0	510	508	0	0	
13	0	0	0	0	508	508	0	0	
14	0	0	0	0	509	507	0	0	
15	0	0	0	0	510	507	0	0	
0	0	0	0	0	509	508	0	0	
1	0	0	0	0	511	510	0	0	
2	0	0	0	0	512	508	0	0	
3	0	0	0	0	510	509	0	0	
4	0	0	0	0	511	510	0	0	
5	0	0	0	0	514	509	0	0	
6	0	0	0	0	514	510	0	0	
7	0	0	0	0	515	505	0	0	
8	0	0	0	0	513	507	0	0	
9	0	0	0	0	512	506	0	0	
10	0	0	0	0	513	508	0	0	
11	0	0	0	0	511	505	0	0	
12	0	0	0	0	514	505	0	0	
13	0	0	0	0	513	508	0	0	
14	0	0	0	0	511	508	0	0	
15	0	0	0	0	511	508	0	0	
0	0	0	0	0	511	507	0	0	
1	0	0	0	0	510	508	0	0	
2	0	0	0	0	509	508	0	0	
3	0	0	0	0	507	507	0	0	
4	0	0	0	0	508	507	0	0	
5	0	0	0	0	509	509	0	0	
6	0	0	0	0	509	510	0	0	
7	0	0	0	0	512	509	0	0	
8	0	0	0	0	510	510	0	0	
9	0	0	0	0	514	511	0	0	
10	0	0	0	0	511	510	0	0	
11	0	0	0	0	513	508	0	0	
12	0	0	0	0	513	508	0	0	
13	0	0	0	0	511	505	0	0	
14	0	0	0	0	512	507	0	0	
15	0	0	0	0	513	508	0	0	
0	0	0	0	0	511	508	0	0	
1	0	0	0	0	509	505	0	0	
2	0	0	0	0	509	507	0	0	
3	0	0	0	0	508	508	0	0	
4	0	0	0	0	509	508	0	0	
5	0	0	0	0	509	507	0	0	
6	0	0	0	0	506	508	0	0	
7	0	0	0	0	511	508	0	0	
8	0	0	0	0	513	508	0	0	
9	0	0	0	0	510	509	0	0	
10	0	0	0	0	511	509	0	0	
11	0	0	0	0	512	511	0	0	
12	0	0	0	0	512	508	0	0	
13	0	0	0	0	515	510	0	0	
14	0	0	0	0	513	509	0	0	
15	0	0	0	0	513	508	0	0	
0	0	0	0	0	510	508	0	0	
1	0	0	0	0	514	508	0	0	
2	0	0	0	0	515	507	0	0	
3	0	0	0	0	512	507	0	0	
4	0	0	0	0	511	507	0	0	
5	0	0	0	0	509	506	0	0	
6	0	0	0	0	512	505	0	0	
7	0	0	0	0	509	507	0	0	
8	0	0	0	0	510	508	0	0	
9	0	0	0	0	511	508	0	0	
10	0	0	0	0	507	508	0	0	
11	0	0	0	0	507	511	0	0	
12	0	0	0	0	508	510	0	0	
13	0	0	0	0	509	508	0	0	
14	0	0	0	0	509	510	0	0	
15	0	0	0	0	513	508	0	0	
0	0	0	0	0	512	508	0	0	
1	0	0	0	0	515	508	0	0	
2	0	0	0	0	512	510	0	0	
3	0	0	0	0	514	509	0	0	
4	0	0	0	0	511	508	0	0	
5	0	0	0	0	513	508	0	0	
6	0	0	0	0	511	506	0	0	
7	0	0	0	0	507	507	0	0	
8	0	0	0	0	505	506	0	0	
9	0	0	0	0	508	508	0	0	
10	0	0	0	0	509	509	0	0	
11	0	0	0	0	510	508	0	0	
12	0	0	0	0	509	506	0	0	
13	0	0	0	0	513	508	0	0	
14	0	0	0	0	517	508	0	0	
15	0	0	0	0	516	507	0	0	
0	0	0	0	0	512	507	0	0	
1	0	0	0	0	510	508	0	0	
2	0	0	0	0	511	510	0	0	
3	0	0	0	0	513	509	0	0	
4	0	0	0	0	513	510	0	0	
5	0	0	0	0	512	509	0	0	
6	0	0	0	0	509	508	0	0	
7	0	0	0	0	512	509	0	0	
8	0	0	0	0	511	508	0	0	
9	0	0	0	0	511	507	0	0	
10	0	0	0	0	513	507	0	0	
11	0	0	0	0	509	509	0	0	
12	0	0	0	0	512	506	0	0	
13	0	0	0	0	510	508	0	0	
14	0	0	0	0	508	505	0	0	
15	0	0	0	0	511	507	0	0	
0	0	0	0	0	508	508	0	0	
1	0	0	0	0	510	508	0	0	
2	0	0	0	0	511	507	0	0	
3	0	0	0	0	507	507	0	0	
4	0	0	0	0	508	509	0	0	
5	0	0	0	0	515	508	0	0	
6	0	0	0	0	514	508	0	0	
7	0	0	0	0	513	510	0	0	
8	0	0	0	0	512	510	0	0	
9	0	0	0	0	512	508	0	0	
10	0	0	0	0	511	510	0	0	
11	0	0	0	0	511	509	0	0	
12	0	0	0	0	514	508	0	0	
13	0	0	0	0	512	506	0	0	
14	0	0	0	0	511	506	0	0	
15	0	0	0	0	509	508	0	0	
0	0	0	0	0	510	507	0	0	
1	0	0	0	0	509	506	0	0	
2	0	0	0	0	508	508	0	0	
3	0	0	0	0	510	507	0	0	
4	0	0	0	0	511	508	0	0	
5	0	0	0	0	514	506	0	0	
6	0	0	0	0	513	507	0	0	
7	0	0	0	0	511	508	0	0	
8	0	0	0	0	511	509	0	0	
9	0	0	0	0	510	508	0	0	
10	0	0	0	0	511	511	0	0	
11	0	0	0	0	509	509	0	0	
12	0	0	0	0	509	509	0	0	
13	0	0	0	0	507	509	0	0	
14	0	0	0	0	508	508	0	0	
15	0	0	0	0	511	509	0	0	
0	0	0	0	0	514	509	0	0	
1	0	0	0	0	514	506	0	0	
2	0	0	0	0	515	507	0	0	
3	0	0	0	0	517	507	0	0	
4	0	0	0	0	519	507	0	0	
5	0	0	0	0	515	506	0	0	
6	0	0	0	0	510	508	0	0	
7	0	0	0	0	511	507	0	0	
8	0	0	0	0	508	507	0	0	
9	0	0	0	0	516	507	0	0	
10	0	0	0	0	517	507	0	0	
11	0	0	0	0	516	507	0	0	
12	0	0	0	0	508	508	0	0	
13	0	0	0	0	503	508	0	0	
14	0	0	0	0	500	509	0	0	
15	0	0	0	0	497	508	0	0	
0	0	0	0	0	496	511	0	0	
1	0	0	0	0	500	509	0	0	
2	0	0	0	0	515	510	0	0	
3	0	0	0	0	517	510	0	0	
4	0	0	0	0	516	510	0	0	
5	0	0	0	0	516	509	0	0	
6	0	0	0	0	514	506	0	0	
7	0	0	0	0	516	507	0	0	
8	0	0	0	0	515	505	0	0	
9	0	0	0	0	510	507	0	0	
10	0	0	0	0	508	505	0	0	
11	0	0	0	0	509	508	0	0	
12	0	0	0	0	511	509	0	0	
13	0	0	0	0	509	507	0	0	
14	0	0	0	0	509	508	0	0	
15	0	0	0	0	514	507	0	0	
0	0	0	0	0	517	507	0	0	
1	0	0	0	0	514	508	0	0	
2	0	0	0	0	508	507	0	0	
3	0	0	0	0	508	509	0	0	
4	0	0	0	0	508	509	0	0	
5	0	0	0	0	509	510	0	0	
6	0	0	0	0	512	507	0	0	
7	0	0	0	0	513	510	0	0	
8	0	0	0	0	513	510	0	0	
9	0	0	0	0	518	507	0	0	
10	0	0	0	0	519	509	0	0	
11	0	0	0	0	515	507	0	0	
12	0	0	0	0	513	508	0	0	
13	0	0	0	0	513	507	0	0	
14	0	0	0	0	508	508	0	0	
15	0	0	0	0	508	507	0	0	
0	0	0	0	0	510	507	0	0	
1	0	0	0	0	510	505	0	0	
2	0	0	0	0	511	505	0	0	
3	0	0	0	0	509	508	0	0	
4	0	0	0	0	506	510	0	0	
5	0	0	0	0	504	510	0	0	
6	0	0	0	0	506	509	0	0	
7	0	0	0	0	507	511	0	0	
8	0	0	0	0	509	508	0	0	
9	0	0	0	0	512	510	0	0	
10	0	0	0	0	513	509	0	0	
11	0	0	0	0	515	508	0	0	
12	0	0	0	0	518	507	0	0	
13	0	0	0	0	519	508	0	0	
14	0	0	0	0	513	509	0	0	
15	0	0	0	0	511	509	0	0	
0	0	0	0	0	511	508	0	0	
1	0	0	0	0	510	504	0	0	
2	0	0	0	0	507	506	0	0	
3	0	0	0	0	508	509	0	0	
4	0	0	0	0	507	507	0	0	
5	0	0	0	0	508	507	0	0	
6	0	0	0	0	506	508	0	0	
7	0	0	0	0	508	508	0	0	
8	0	0	0	0	507	508	0	0	
9	0	0	0	0	505	510	0	0	
10	0	0	0	0	511	510	0	0	
11	0	0	0	0	517	510	0	0	
12	0	0	0	0	514	510	0	0	
13	0	0	0	0	514	506	0	0	
14	0	0	0	0	514	508	0	0	
15	0	0	0	0	512	509	0	0	
0	0	0	0	0	511	508	0	0	
1	0	0	0	0	512	508	0	0	
2	0	0	0	0	513	507	0	0	
3	0	0	0	0	513	507	0	0	
4	0	0	0	0	513	508	0	0	
5	0	0	0	0	519	507	0	0	
6	0	0	0	0	518	504	0	0	
7	0	0	0	0	512	507	0	0	
8	0	0	0	0	507	507	0	0	
9	0	0	0	0	507	505	0	0	
10	0	0	0	0	510	507	0	0	
11	0	0	0	0	508	507	0	0	
12	0	0	0	0	507	510	0	0	
13	0	0	0	0	508	511	0	0	
14	0	0	0	0	511	509	0	0	
15	0	0	0	0	511	509	0	0	
0	0	0	0	0	507	509	0	0	
1	0	0	0	0	513	508	0	0	
2	0	0	0	0	508	510	0	0	
3	0	0	0	0	511	511	0	0	
4	0	0	0	0	512	507	0	0	
5	0	0	0	0	508	508	0	0	
6	0	0	0	0	510	508	0	0	
7	0	0	0	0	508	505	0	0	
8	0	0	0	0	513	505	0	0	
9	0	0	0	0	514	508	0	0	
10	0	0	0	0	518	509	0	0	
11	0	0	0	0	513	505	0	0	
12	0	0	0	0	513	507	0	0	
13	0	0	0	0	512	507	0	0	
14	0	0	0	0	511	508	0	0	
15	0	0	0	0	509	508	0	0	
0	0	0	0	0	508	511	0	0	
1	0	0	0	0	510	511	0	0	
2	0	0	0	0	512	509	0	0	
3	0	0	0	0	511	509	0	0	
4	0	0	0	0	511	509	0	0	
5	0	0	0	0	510	508	0	0	
6	0	0	0	0	511	509	0	0	
7	0	0	0	0	512	507	0	0	
8	0	0	0	0	514	509	0	0	
9	0	0	0	0	513	508	0	0	
10	0	0	0	0	512	508	0	0	
11	0	0	0	0	511	507	0	0	
12	0	0	0	0	511	506	0	0	
13	0	0	0	0	509	506	0	0	
14	0	0	0	0	509	508	0	0	
15	0	0	0	0	508	508	0	0	
0	0	0	0	0	510	507	0	0	
1	0	0	0	0	509	508	0	0	
2	0	0	0	0	511	507	0	0	
3	0	0	0	0	512	508	0	0	
4	0	0	0	0	510	509	0	0	
5	0	0	0	0	509	509	0	0	
6	0	0	0	0	509	509	0	0	
7	0	0	0	0	509	509	0	0	
8	0	0	0	0	514	509	0	0	
9	0	0	0	0	511	509	0	0	
10	0	0	0	0	511	508	0	0	
11	0	0	0	0	510	508	0	0	
12	0	0	0	0	509	508	0	0	
13	0	0	0	0	512	509	0	0	
14	0	0	0	0	514	507	0	0	
15	0	0	0	0	511	507	0	0	
0	0	0	0	0	512	505	0	0	
1	0	0	0	0	512	505	0	0	
2	0	0	0	0	514	508	0	0	
3	0	0	0	0	511	507	0	0	
4	0	0	0	0	513	507	0	0	
5	0	0	0	0	509	508	0	0	
6	0	0	0	0	509	507	0	0	
7	0	0	0	0	508	508	0	0	
8	0	0	0	0	506	508	0	0	
9	0	0	0	0	507	510	0	0	
10	0	0	0	0	510	509	0	0	
11	0	0	0	0	513	507	0	0	
12	0	0	0	0	517	508	0	0	
13	0	0	0	0	515	512	0	0	
14	0	0	0	0	517	507	0	0	
15	0	0	0	0	513	508	0	0	
0	0	0	0	0	512	508	0	0	
1	0	0	0	0	513	509	0	0	
2	0	0	0	0	513	508	0	0	
3	0	0	0	0	510	505	0	0	
4	0	0	0	0	510	505	0	0	
5	0	0	0	0	507	507	0	0	
6	0	0	0	0	507	508	0	0	
7	0	0	0	0	508	508	0	0	
8	0	0	0	0	507	507	0	0	
9	0	0	0	0	508	507	0	0	
10	0	0	0	0	512	507	0	0	
11	0	0	0	0	513	508	0	0	
12	0	0	0	0	514	508	0	0	
13	0	0	0	0	515	508	0	0	
14	0	0	0	0	513	509	0	0	
15	0	0	0	0	513	510	0	0	
0	0	0	0	0	515	509	0	0	
1	0	0	0	0	511	510	0	0	
2	0	0	0	0	510	509	0	0	
3	0	0	0	0	511	509	0	0	
4	0	0	0	0	510	509	0	0	
5	0	0	0	0	511	508	0	0	
6	0	0	0	0	510	507	0	0	
7	0	0	0	0	512	505	0	0	
8	0	0	0	0	505	506	0	0	
9	0	0	0	0	505	507	0	0	
10	0	0	0	0	508	505	0	0	
11	0	0	0	0	509	506	0	0	
12	0	0	0	0	512	507	0	0	
13	0	0	0	0	514	510	0	0	
14	0	0	0	0	512	507	0	0	
15	0	0	0	0	517	508	0	0	
0	0	0	0	0	514	508	0	0	
1	0	0	0	0	511	510	0	0	
2	0	0	0	0	511	508	0	0	
3	0	0	0	0	509	511	0	0	
4	0	0	0	0	511	509	0	0	
5	0	0	0	0	510	510	0	0	
6	0	0	0	0	512	508	0	0	
7	0	0	0	0	512	508	0	0	
8	0	0	0	0	511	508	0	0	
9	0	0	0	0	513	508	0	0	
10	0	0	0	0	510	507	0	0	
11	0	0	0	0	510	508	0	0	
12	0	0	0	0	509	507	0	0	
13	0	0	0	0	512	506	0	0	
14	0	0	0	0	511	508	0	0	
15	0	0	0	0	510	508	0	0	
0	0	0	0	0	509	507	0	0	
1	0	0	0	0	510	506	0	0	
2	0	0	0	0	509	508	0	0	
3	0	0	0	0	508	508	0	0	
4	0	0	0	0	508	509	0	0	
5	0	0	0	0	507	510	0	0	
6	0	0	0	0	511	511	0	0	
7	0	0	0	0	512	510	0	0	
8	0	0	0	0	511	508	0	0	
9	0	0	0	0	510	508	0	0	
10	0	0	0	0	508	508	0	0	
11	0	0	0	0	511	509	0	0	
12	0	0	0	0	512	510	0	0	
13	0	0	0	0	514	509	0	0	
14	0	0	0	0	515	507	0	0	
15	0	0	0	0	514	508	0	0	
0	0	0	0	0	515	505	0	0	
1	0	0	0	0	514	505	0	0	
2	0	0	0	0	510	505	0	0	
3	0	0	0	0	509	507	0	0	
4	0	0	0	0	508	506	0	0	
5	0	0	0	0	508	507	0	0	
6	0	0	0	0	508	508	0	0	
7	0	0	0	0	510	507	0	0	
8	0	0	0	0	510	510	0	0	
9	0	0	0	0	512	509	0	0	
10	0	0	0	0	513	507	0	0	
11	0	0	0	0	513	509	0	0	
12	0	0	0	0	516	510	0	0	
13	0	0	0	0	513	508	0	0	
14	0	0	0	0	511	511	0	0	
15	0	0	0	0	510	510	0	0	
0	0	0	0	0	511	508	0	0	
1	0	0	0	0	511	508	0	0	
2	0	0	0	0	511	508	0	0	
3	0	0	0	0	505	506	0	0	
4	0	0	0	0	508	504	0	0	
5	0	0	0	0	508	505	0	0	
6	0	0	0	0	513	505	0	0	
7	0	0	0	0	512	507	0	0	
8	0	0	0	0	508	508	0	0	
9	0	0	0	0	510	509	0	0	
10	0	0	0	0	510	508	0	0	
11	0	0	0	0	509	508	0	0	
12	0	0	0	0	513	510	0	0	
13	0	0	0	0	517	509	0	0	
14	0	0	0	0	516	510	0	0	
15	0	0	0	0	515	508	0	0	
0	0	0	0	0	515	509	0	0	
1	0	0	0	0	510	510	0	0	
2	0	0	0	0	512	508	0	0	
3	0	0	0	0	510	510	0	0	
4	0	0	0	0	512	507	0	0	
5	0	0	0	0	514	507	0	0	
6	0	0	0	0	517	507	0	0	
7	0	0	0	0	516	506	0	0	
8	0	0	0	0	512	508	0	0	
9	0	0	0	0	509	508	0	0	
10	0	0	0	0	509	508	0	0	
11	0	0	0	0	505	508	0	0	
12	0	0	0	0	505	506	0	0	
13	0	0	0	0	506	506	0	0	
14	0	0	0	0	503	508	0	0	
15	0	0	0	0	507	509	0	0	
0	0	0	0	0	507	509	0	0	
1	0	0	0	0	509	507	0	0	
2	0	0	0	0	505	508	0	0	
3	0	0	0	0	508	511	0	0	
4	0	0	0	0	510	509	0	0	
5	0	0	0	0	514	508	0	0	
6	0	0	0	0	520	509	0	0	
7	0	0	0	0	513	505	0	0	
8	0	0	0	0	515	509	0	0	
9	0	0	0	0	531	507	0	0	
10	0	0	0	0	532	505	0	0	
11	0	0	0	0	518	506	0	0	
12	0	0	0	0	507	508	0	0	
13	0	0	0	0	501	507	0	0	
14	0	0	0	0	501	507	0	0	
15	0	0	0	0	500	508	0	0	
0	0	0	0	0	504	508	0	0	
1	0	0	0	0	518	508	0	0	
2	0	0	0	0	512	508	0	0	
3	0	0	0	0	512	509	0	0	
4	0	0	0	0	508	510	0	0	
5	0	0	0	0	508	510	0	0	
6	0	0	0	0	516	508	0	0	
7	0	0	0	0	518	507	0	0	
8	0	0	0	0	517	508	0	0	
9	0	0	0	0	518	510	0	0	
10	0	0	0	0	517	508	0	0	
11	0	0	0	0	516	508	0	0	
12	0	0	0	0	515	507	0	0	
13	0	0	0	0	510	508	0	0	
14	0	0	0	0	502	509	0	0	
15	0	0	0	0	506	508	0	0	
0	0	0	0	0	500	507	0	0	
1	0	0	0	0	502	508	0	0	
2	0	0	0	0	506	509	0	0	
3	0	0	0	0	506	512	0	0	
4	0	0	0	0	511	511	0	0	
5	0	0	0	0	513	508	0	0	
6	0	0	0	0	512	508	0	0	
7	0	0	0	0	513	505	0	0	
8	0	0	0	0	508	511	0	0	
9	0	0	0	0	510	512	0	0	
10	0	0	0	0	519	511	0	0	
11	0	0	0	0	516	511	0	0	
12	0	0	0	0	520	513	0	0	
13	0	0	0	0	532	503	0	0	
14	0	0	0	0	513	524	0	0	
15	0	0	0	0	505	551	0	0	
0	0	0	0	0	507	539	0	0	
1	0	0	0	0	510	525	0	0	
2	0	0	0	0	515	514	0	0	
3	0	0	0	0	498	498	0	0	
4	0	0	0	0	499	468	0	0	
5	0	0	0	0	510	443	0	0	
6	0	0	0	0	504	457	0	0	
7	0	0	0	0	508	495	0	0	
8	0	0	0	0	506	508	0	0	
9	0	0	0	0	510	510	0	0	
10	0	0	0	0	496	549	0	0	
11	0	0	0	0	481	572	0	0	
12	0	0	0	0	484	580	0	0	
13	0	0	0	0	471	550	0	0	
14	0	0	0	0	465	542	0	0	
15	0	0	0	0	454	531	0	0	
0	0	0	0	0	468	486	0	0	
1	0	0	0	0	537	453	0	0	
2	0	0	0	0	597	439	0	0	
3	0	0	0	0	619	394	0	0	
4	0	0	0	0	634	402	0	0	
5	0	0	0	0	659	434	0	0	
6	0	0	0	0	615	521	0	0	
7	0	0	0	0	544	636	0	0	
8	0	0	0	0	477	527	0	0	
9	0	0	0	0	422	447	4	0	
10	0	0	0	0	413	500	7	0	
11	0	0	0	0	428	562	8	0	
12	0	0	0	0	505	482	13	0	
13	0	0	0	0	581	488	15	0	
14	0	0	0	0	554	561	21	0	
15	0	0	0	0	507	531	22	0	
0	0	0	0	0	470	508	27	0	
1	0	0	0	0	457	539	35	0	
2	0	0	0	0	452	569	39	0	
3	0	0	0	0	436	528	42	0	
4	0	0	0	0	457	496	45	0	
5	0	0	0	0	473	481	49	0	
6	0	0	0	0	516	486	48	0	
7	0	0	0	0	553	488	53	0	
8	0	0	0	0	554	435	55	0	
9	0	0	0	0	523	420	59	0	
10	0	0	0	0	493	467	59	0	
11	0	0	0	0	444	518	63	0	
12	0	0	0	0	483	531	72	0	
13	0	0	0	0	500	500	73	0	
14	0	0	0	0	554	472	67	0	
15	0	0	0	0	608	540	64	0	
0	0	0	0	0	627	576	63	0	
1	0	0	0	0	586	547	70	0	
2	0	0	0	0	596	557	69	0	
3	0	0	0	0	549	562	71	0	
4	0	0	0	0	491	541	76	0	
5	0	0	0	0	468	568	75	0	
6	0	0	0	0	433	613	74	0	
7	0	0	0	0	474	562	76	0	
8	0	0	0	0	493	519	83	0	
9	0	0	0	0	489	497	83	0	
10	0	0	0	0	484	454	88	0	
11	0	0	0	0	454	429	97	0	
12	0	0	0	0	485	446	101	0	
13	0	0	0	0	489	450	105	0	
14	0	0	0	0	467	472	109	0	
15	0	0	0	0	520	486	113	0	
0	0	0	0	0	569	502	117	0	
1	0	0	0	0	518	543	124	0	
2	0	0	0	0	489	553	135	0	
3	0	0	0	0	460	563	140	0	
4	0	0	0	0	499	482	152	0	
5	0	0	0	0	554	445	155	0	
6	0	0	0	0	493	448	159	0	
7	0	0	0	0	518	483	171	0	
8	0	0	0	0	593	506	180	0	
9	0	0	0	0	570	510	191	0	
10	0	0	0	0	571	534	199	0	
11	0	0	0	0	473	553	212	0	
12	0	0	0	0	488	527	221	0	
13	0	0	0	0	504	512	230	0	
14	0	0	0	0	535	487	233	0	
15	0	0	0	0	448	476	254	0	
0	0	0	0	0	459	478	255	0	
1	0	0	0	0	531	489	259	0	
2	0	0	0	0	622	497	268	0	
3	0	0	0	0	579	532	272	0	
4	0	0	0	0	520	522	276	0	
5	0	0	0	0	553	489	283	0	
6	0	0	0	0	566	478	289	0	
7	0	0	0	0	459	502	297	0	
8	0	0	0	0	390	553	320	0	
9	0	0	0	0	409	587	327	0	
10	0	0	0	0	418	566	333	0	
11	0	0	0	0	463	519	344	0	
12	0	0	0	0	496	494	343	0	
13	0	0	0	0	501	481	344	0	
14	0	0	0	0	548	500	347	0	
15	0	0	0	0	610	518	349	0	
0	0	0	0	0	537	506	352	8	
1	0	0	0	0	488	495	353	8	
2	0	0	0	0	562	522	359	8	
3	0	0	0	0	483	518	361	8	
4	0	0	0	0	505	494	364	8	
5	0	0	0	0	524	531	364	11	
6	0	0	0	0	563	532	365	10	
7	0	0	0	0	563	514	368	9	
8	0	0	0	0	544	488	374	9	
9	0	0	0	0	463	485	378	9	
10	0	0	0	0	423	501	382	8	
11	0	0	0	0	427	496	383	8	
12	0	0	0	0	534	508	383	8	
13	0	0	0	0	595	550	385	7	
14	0	0	0	0	612	514	387	7	
15	0	0	0	0	532	484	388	7	
0	0	0	0	0	521	499	393	7	
1	0	0	0	0	519	516	394	7	
2	0	0	0	0	538	508	398	7	
3	0	0	0	0	526	499	396	8	
4	0	0	0	0	493	492	399	7	
5	0	0	0	0	476	492	401	7	
6	0	0	0	0	509	491	403	8	
7	0	0	0	0	590	508	405	9	
8	0	0	0	0	617	514	405	10	
9	0	0	0	0	558	510	410	13	
10	0	0	0	0	494	505	413	12	
11	0	0	0	0	427	503	415	12	
12	0	0	0	0	379	508	419	11	
13	0	0	0	0	411	515	421	15	
14	0	0	0	0	511	512	420	19	
15	0	0	0	0	551	515	419	22	
0	0	0	0	0	539	505	420	71	
1	0	0	0	0	512	503	420	85	
2	0	0	0	0	464	505	421	86	
3	0	0	0	0	460	506	424	89	
4	0	0	0	0	465	522	423	95	
5	0	0	0	0	471	508	428	99	
6	0	0	0	0	499	476	428	104	
7	0	0	0	0	449	511	427	110	
8	0	0	0	0	464	552	428	112	
9	0	0	0	0	509	521	431	113	
10	0	0	0	0	579	482	431	116	
11	0	0	0	0	663	473	432	115	
12	0	0	0	0	630	473	433	118	
13	0	0	0	0	509	513	435	117	
14	0	0	0	0	481	505	436	117	
15	0	0	0	0	425	511	434	118	
0	0	0	0	0	403	523	436	116	
1	0	0	0	0	515	531	436	115	
2	0	0	0	0	565	515	436	113	
3	0	0	0	0	592	520	437	115	
4	0	0	0	0	549	554	439	112	
5	0	0	0	0	537	532	439	112	
6	0	0	0	0	586	500	440	109	
7	0	0	0	0	488	507	441	106	
8	0	0	0	0	464	508	443	101	
9	0	0	0	0	460	498	444	97	
10	0	0	0	0	433	504	445	95	
11	0	0	0	0	492	495	445	95	
12	0	0	0	0	534	480	448	94	
13	0	0	0	0	505	500	448	95	
14	0	0	0	0	488	536	449	95	
15	0	0	0	0	519	530	452	95	
0	0	0	0	0	555	514	454	95	
1	0	0	0	0	573	514	457	95	
2	0	0	0	0	506	501	457	96	
3	0	0	0	0	456	500	459	96	
4	0	0	0	0	467	486	459	97	
5	0	0	0	0	499	459	460	99	
6	0	0	0	0	546	473	462	100	
7	0	0	0	0	588	466	463	101	
8	0	0	0	0	609	440	463	102	
9	0	0	0	0	496	519	465	101	
10	0	0	0	0	432	585	467	100	
11	0	0	0	0	517	552	467	100	
12	0	0	0	0	477	527	470	101	
13	0	0	0	0	481	513	470	103	
14	0	0	0	0	426	503	472	105	
15	0	0	0	0	467	499	473	106	
0	0	0	0	0	470	507	475	105	
1	0	0	0	0	499	521	476	105	
2	0	0	0	0	549	517	478	105	
3	0	0	0	0	553	544	477	111	
4	0	0	0	0	554	548	479	108	
5	0	0	0	0	539	534	478	106	
6	0	0	0	0	534	492	476	110	
7	0	0	0	0	556	478	476	110	
8	0	0	0	0	546	474	474	110	
9	0	0	0	0	476	472	476	105	
10	0	0	0	0	464	481	477	104	
11	0	0	0	0	449	505	477	99	
12	0	0	0	0	446	521	479	98	
13	0	0	0	0	492	532	480	100	
14	0	0	0	0	472	545	482	101	
15	0	0	0	0	519	549	482	99	
0	0	0	0	0	581	543	482	94	
1	0	0	0	0	600	512	482	72	
2	0	0	0	0	599	457	483	77	
3	0	0	0	0	629	477	483	94	
4	0	0	0	0	558	477	483	79	
5	0	0	0	0	472	492	483	83	
6	0	0	0	0	493	494	484	96	
7	0	0	0	0	461	506	484	83	
8	0	0	0	0	508	513	485	88	
9	0	0	0	0	544	505	485	89	
10	0	0	0	0	512	510	485	93	
11	0	0	0	0	530	540	486	101	
12	0	0	0	0	532	528	485	96	
13	0	0	0	0	409	527	485	92	
14	0	0	0	0	443	515	484	87	
15	0	0	0	0	503	506	482	89	
0	0	0	0	0	486	500	483	86	
1	0	0	0	0	485	507	481	89	
2	0	0	0	0	532	502	481	79	
3	0	0	0	0	522	503	478	78	
4	0	0	0	0	558	491	477	77	
5	0	0	0	0	510	497	477	78	
6	0	0	0	0	504	518	476	71	
7	0	0	0	0	497	523	474	86	
8	0	0	0	0	585	530	473	71	
9	0	0	0	0	581	508	472	71	
10	0	0	0	0	496	500	471	71	
11	0	0	0	0	468	513	470	78	
12	0	0	0	0	483	516	470	86	
13	0	0	0	0	516	540	468	88	
14	0	0	0	0	479	514	469	83	
15	0	0	0	0	543	505	469	85	
0	0	0	0	0	499	497	468	86	
1	0	0	0	0	487	497	467	87	
2	0	0	0	0	506	469	468	92	
3	0	0	0	0	462	489	468	85	
4	0	0	0	0	483	494	468	83	
5	0	0	0	0	501	483	469	85	
6	0	0	0	0	507	495	469	78	
7	0	0	0	0	515	515	467	73	
8	0	0	0	0	507	514	467	79	
9	0	0	0	0	520	508	466	68	
10	0	0	0	0	530	519	465	69	
11	0	0	0	0	490	526	465	70	
12	0	0	0	0	508	524	465	69	
13	0	0	0	0	568	514	466	66	
14	0	0	0	0	572	501	466	79	
15	0	0	0	0	529	496	466	70	
0	0	0	0	0	462	502	466	75	
1	0	0	0	0	480	514	466	63	
2	0	0	0	0	456	513	465	64	
3	0	0	0	0	473	513	465	66	
4	0	0	0	0	504	510	465	70	
5	0	0	0	0	545	531	464	68	
6	0	0	0	0	519	549	462	65	
7	0	0	0	0	567	521	461	67	
8	0	0	0	0	575	515	462	60	
9	0	0	0	0	509	501	461	65	
10	0	0	0	0	517	494	460	77	
11	0	0	0	0	472	485	459	78	
12	0	0	0	0	518	482	459	83	
13	0	0	0	0	575	492	458	82	
14	0	0	0	0	521	508	458	73	
15	0	0	0	0	471	517	458	65	
0	0	0	0	0	416	513	457	62	
1	0	0	0	0	479	510	458	66	
2	0	0	0	0	588	500	458	65	
3	0	0	0	0	551	497	457	62	
4	0	0	0	0	514	507	457	60	
5	0	0	0	0	460	537	456	69	
6	0	0	0	0	431	559	455	63	
7	0	0	0	0	476	551	455	58	
8	0	0	0	0	532	508	455	59	
9	0	0	0	0	549	473	455	60	
10	0	0	0	0	558	464	455	60	
11	0	0	0	0	549	454	455	62	
12	0	0	0	0	517	480	455	40	
13	0	0	0	0	529	507	455	40	
14	0	0	0	0	516	526	456	39	
15	0	0	0	0	527	533	454	36	
0	0	0	0	0	509	515	455	37	
1	0	0	0	0	500	515	455	36	
2	0	0	0	0	464	509	456	35	
3	0	0	0	0	460	513	455	36	
4	0	0	0	0	509	512	457	34	
5	0	0	0	0	556	523	459	35	
6	0	0	0	0	557	526	460	35	
7	0	0	0	0	565	516	460	36	
8	0	0	0	0	539	495	461	35	
9	0	0	0	0	480	483	462	35	
10	0	0	0	0	475	482	462	37	
11	0	0	0	0	499	500	463	37	
12	0	0	0	0	489	551	463	38	
13	0	0	0	0	487	520	464	38	
14	0	0	0	0	481	501	464	40	
15	0	0	0	0	495	495	464	43	
0	0	0	0	0	523	504	465	44	
1	0	0	0	0	590	496	465	45	
2	0	0	0	0	579	509	466	45	
3	0	0	0	0	523	506	466	44	
4	0	0	0	0	528	510	466	45	
5	0	0	0	0	505	505	466	46	
6	0	0	0	0	499	510	466	46	
7	0	0	0	0	508	510	466	45	
8	0	0	0	0	487	525	466	46	
9	0	0	0	0	472	519	467	46	
10	0	0	0	0	463	515	467	45	
11	0	0	0	0	473	507	468	46	
12	0	0	0	0	488	499	467	46	
13	0	0	0	0	514	502	468	46	
14	0	0	0	0	513	502	467	44	
15	0	0	0	0	543	504	467	43	
0	0	0	0	0	552	503	468	43	
1	0	0	0	0	497	503	468	42	
2	0	0	0	0	472	508	468	42	
3	0	0	0	0	484	508	469	43	
4	0	0	0	0	512	506	468	45	
5	0	0	0	0	542	510	468	45	
6	0	0	0	0	526	508	468	43	
7	0	0	0	0	511	497	469	44	
8	0	0	0	0	518	497	469	46	
9	0	0	0	0	579	496	469	44	
10	0	0	0	0	498	506	469	41	
11	0	0	0	0	439	511	470	40	
12	0	0	0	0	486	514	470	42	
13	0	0	0	0	465	520	469	41	
14	0	0	0	0	459	525	469	41	
15	0	0	0	0	506	509	470	42	
0	0	0	0	0	532	509	470	41	
1	0	0	0	0	538	519	470	42	
2	0	0	0	0	545	519	471	41	
3	0	0	0	0	575	520	471	37	
4	0	0	0	0	563	510	471	45	
5	0	0	0	0	563	515	471	41	
6	0	0	0	0	540	526	471	43	
7	0	0	0	0	490	515	472	39	
8	0	0	0	0	420	519	471	38	
9	0	0	0	0	475	508	472	39	
10	0	0	0	0	497	483	472	38	
11	0	0	0	0	512	469	472	38	
12	0	0	0	0	528	474	471	40	
13	0	0	0	0	530	465	471	40	
14	0	0	0	0	514	467	471	39	
15	0	0	0	0	528	500	471	39	
0	0	0	0	0	531	524	471	39	
1	0	0	0	0	514	531	470	38	
2	0	0	0	0	518	543	470	38	
3	0	0	0	0	502	527	467	40	
4	0	0	0	0	448	531	467	40	
5	0	0	0	0	473	526	466	41	
6	0	0	0	0	505	519	467	37	
7	0	0	0	0	509	512	467	40	
8	0	0	0	0	521	503	466	38	
9	0	0	0	0	519	499	466	38	
10	0	0	0	0	495	499	465	36	
11	0	0	0	0	497	505	467	31	
12	0	0	0	0	531	508	465	30	
13	0	0	0	0	507	498	465	30	
14	0	0	0	0	524	499	464	30	
15	0	0	0	0	532	496	464	28	
0	0	0	0	0	524	513	464	33	
1	0	0	0	0	549	524	464	38	
2	0	0	0	0	534	521	463	40	
3	0	0	0	0	502	526	463	41	
4	0	0	0	0	514	501	464	39	
5	0	0	0	0	525	500	464	29	
6	0	0	0	0	502	498	464	31	
7	0	0	0	0	519	531	464	35	
8	0	0	0	0	530	517	463	38	
9	0	0	0	0	509	521	464	35	
10	0	0	0	0	532	508	464	35	
11	0	0	0	0	546	503	463	35	
12	0	0	0	0	496	492	463	26	
13	0	0	0	0	486	486	463	25	
14	0	0	0	0	473	478	463	24	
15	0	0	0	0	417	508	463	24	
0	0	0	0	0	429	515	463	24	
1	0	0	0	0	521	513	464	25	
2	0	0	0	0	574	524	464	24	
3	0	0	0	0	556	520	464	23	
4	0	0	0	0	489	506	464	24	
5	0	0	0	0	512	498	464	23	
6	0	0	0	0	568	527	465	23	
7	0	0	0	0	559	547	464	22	
8	0	0	0	0	500	524	465	23	
9	0	0	0	0	478	506	464	23	
10	0	0	0	0	463	471	465	22	
11	0	0	0	0	430	478	465	22	
12	0	0	0	0	470	471	465	21	
13	0	0	0	0	508	478	465	21	
14	0	0	0	0	536	503	465	20	
15	0	0	0	0	576	524	465	20	
0	0	0	0	0	565	523	465	19	
1	0	0	0	0	543	524	465	19	
2	0	0	0	0	504	517	464	18	
3	0	0	0	0	523	514	464	18	
4	0	0	0	0	508	505	463	17	
5	0	0	0	0	491	521	462	18	
6	0	0	0	0	528	519	462	16	
7	0	0	0	0	497	515	462	16	
8	0	0	0	0	469	512	461	15	
9	0	0	0	0	507	494	462	17	
10	0	0	0	0	553	489	460	15	
11	0	0	0	0	604	499	460	14	
12	0	0	0	0	589	502	459	14	
13	0	0	0	0	551	491	459	17	
14	0	0	0	0	523	499	458	16	
15	0	0	0	0	433	531	457	14	
0	0	0	0	0	424	529	457	14	
1	0	0	0	0	444	518	457	15	
2	0	0	0	0	482	505	457	14	
3	0	0	0	0	464	515	457	15	
4	0	0	0	0	499	509	456	15	
5	0	0	0	0	493	515	456	15	
6	0	0	0	0	536	511	455	15	
7	0	0	0	0	591	503	455	15	
8	0	0	0	0	495	502	455	15	
9	0	0	0	0	542	498	454	15	
10	0	0	0	0	531	525	452	15	
11	0	0	0	0	527	519	448	14	
12	0	0	0	0	525	504	448	15	
13	0	0	0	0	610	499	448	14	
14	0	0	0	0	596	504	448	15	
15	0	0	0	0	474	498	448	13	
0	0	0	0	0	417	504	448	14	
1	0	0	0	0	436	495	449	15	
2	0	0	0	0	400	514	448	15	
3	0	0	0	0	451	527	448	15	
4	0	0	0	0	536	528	447	14	
5	0	0	0	0	550	516	447	14	
6	0	0	0	0	524	513	447	14	
7	0	0	0	0	538	494	446	13	
8	0	0	0	0	537	479	446	14	
9	0	0	0	0	494	478	445	12	
10	0	0	0	0	493	516	446	12	
11	0	0	0	0	510	516	446	11	
12	0	0	0	0	525	512	445	13	
13	0	0	0	0	524	511	445	13	
14	0	0	0	0	556	513	445	13	
15	0	0	0	0	504	520	444	13	
0	0	0	0	0	499	512	444	12	
1	0	0	0	0	499	506	444	8	
2	0	0	0	0	504	490	445	8	
3	0	0	0	0	515	510	444	8	
4	0	0	0	0	513	519	443	8	
5	0	0	0	0	517	532	444	7	
6	0	0	0	0	545	537	443	7	
7	0	0	0	0	514	505	443	7	
8	0	0	0	0	505	482	443	7	
9	0	0	0	0	502	484	443	7	
10	0	0	0	0	481	489	442	7	
11	0	0	0	0	498	501	442	7	
12	0	0	0	0	533	506	442	7	
13	0	0	0	0	543	499	442	6	
14	0	0	0	0	575	484	441	6	
15	0	0	0	0	523	479	440	6	
0	0	0	0	0	407	485	441	6	
1	0	0	0	0	421	508	441	6	
2	0	0	0	0	458	542	442	6	
3	0	0	0	0	605	545	441	6	
4	0	0	0	0	607	530	441	5	
5	0	0	0	0	515	519	442	5	
6	0	0	0	0	497	518	441	5	
7	0	0	0	0	477	514	440	5	
8	0	0	0	0	497	508	440	5	
9	0	0	0	0	487	498	440	5	
10	0	0	0	0	471	518	439	5	
11	0	0	0	0	490	514	438	5	
12	0	0	0	0	522	509	438	4	
13	0	0	0	0	539	511	439	5	
14	0	0	0	0	518	508	438	4	
15	0	0	0	0	546	510	437	4	
0	0	0	0	0	572	515	438	4	
1	0	0	0	0	523	511	438	5	
2	0	0	0	0	477	508	436	5	
3	0	0	0	0	494	499	435	4	
4	0	0	0	0	499	483	435	4	
5	0	0	0	0	449	487	435	4	
6	0	0	0	0	432	497	434	4	
7	0	0	0	0	473	502	433	4	
8	0	0	0	0	477	512	433	4	
9	0	0	0	0	526	499	431	4	
10	0	0	0	0	625	494	432	4	
11	0	0	0	0	632	509	431	4	
12	0	0	0	0	587	516	431	4	
13	0	0	0	0	565	511	431	4	
14	0	0	0	0	516	533	429	4	
15	0	0	0	0	454	521	428	4	
0	0	0	0	0	462	514	429	4	
1	0	0	0	0	467	509	425	4	
2	0	0	0	0	516	494	422	4	
3	0	0	0	0	536	497	423	4	
4	0	0	0	0	481	515	420	4	
5	0	0	0	0	496	531	420	4	
6	0	0	0	0	500	520	418	4	
7	0	0	0	0	472	504	418	3	
8	0	0	0	0	543	502	418	4	
9	0	0	0	0	537	506	415	4	
10	0	0	0	0	471	505	414	3	
11	0	0	0	0	526	505	413	4	
12	0	0	0	0	554	502	413	4	
13	0	0	0	0	551	503	412	3	
14	0	0	0	0	539	502	410	4	
15	0	0	0	0	522	508	409	4	
0	0	0	0	0	480	511	409	3	
1	0	0	0	0	499	515	408	3	
2	0	0	0	0	466	527	408	3	
3	0	0	0	0	477	513	408	3	
4	0	0	0	0	524	514	408	3	
5	0	0	0	0	513	512	407	3	
6	0	0	0	0	497	513	407	3	
7	0	0	0	0	508	510	405	3	
8	0	0	0	0	524	497	406	3	
9	0	0	0	0	462	494	404	3	
10	0	0	0	0	475	497	404	3	
11	0	0	0	0	580	507	404	2	
12	0	0	0	0	553	520	403	2	
13	0	0	0	0	521	534	401	3	
14	0	0	0	0	551	507	401	3	
15	0	0	0	0	577	488	400	2	
0	0	0	0	0	525	478	401	2	
1	0	0	0	0	458	486	401	3	
2	0	0	0	0	410	501	400	3	
3	0	0	0	0	436	510	401	3	
4	0	0	0	0	484	504	401	2	
5	0	0	0	0	527	504	399	2	
6	0	0	0	0	508	516	399	1	
7	0	0	0	0	509	518	398	2	
8	0	0	0	0	539	502	397	2	
9	0	0	0	0	553	487	395	3	
10	0	0	0	0	562	504	396	2	
11	0	0	0	0	533	518	396	2	
12	0	0	0	0	447	525	396	2	
13	0	0	0	0	456	520	397	1	
14	0	0	0	0	508	524	396	2	
15	0	0	0	0	508	520	396	2	
0	0	0	0	0	498	497	396	2	
1	0	0	0	0	492	499	396	3	
2	0	0	0	0	517	505	395	2	
3	0	0	0	0	487	523	396	2	
4	0	0	0	0	561	524	396	2	
5	0	0	0	0	627	496	396	2	
6	0	0	0	0	527	490	396	1	
7	0	0	0	0	488	491	396	2	
8	0	0	0	0	511	500	396	2	
9	0	0	0	0	518	506	397	2	
10	0	0	0	0	470	496	397	2	
11	0	0	0	0	457	517	396	3	
12	0	0	0	0	478	527	398	2	
13	0	0	0	0	521	534	397	2	
14	0	0	0	0	595	521	398	2	
15	0	0	0	0	584	489	398	2	
0	0	0	0	0	491	477	398	3	
1	0	0	0	0	455	503	398	3	
2	0	0	0	0	439	520	397	4	
3	0	0	0	0	489	512	397	4	
4	0	0	0	0	547	503	397	5	
5	0	0	0	0	536	507	397	5	
6	0	0	0	0	542	510	396	5	
7	0	0	0	0	526	507	396	4	
8	0	0	0	0	493	512	396	4	
9	0	0	0	0	470	512	396	4	
10	0	0	0	0	480	511	396	4	
11	0	0	0	0	591	516	396	4	
12	0	0	0	0	496	514	396	5	
13	0	0	0	0	489	515	396	5	
14	0	0	0	0	533	510	395	4	
15	0	0	0	0	468	511	395	4	
0	0	0	0	0	491	503	396	4	
1	0	0	0	0	492	514	395	5	
2	0	0	0	0	533	511	395	4	
3	0	0	0	0	527	501	395	4	
4	0	0	0	0	547	496	395	4	
5	0	0	0	0	591	498	395	3	
6	0	0	0	0	471	498	394	3	
7	0	0	0	0	480	501	395	3	
8	0	0	0	0	511	519	396	4	
9	0	0	0	0	533	533	395	4	
10	0	0	0	0	509	507	395	4	
11	0	0	0	0	518	518	395	4	
12	0	0	0	0	541	514	394	3	
13	0	0	0	0	511	502	393	4	
14	0	0	0	0	499	497	393	4	
15	0	0	0	0	470	499	393	4	
0	0	0	0	0	442	505	393	5	
1	0	0	0	0	451	513	392	5	
2	0	0	0	0	483	512	392	4	
3	0	0	0	0	532	498	393	4	
4	0	0	0	0	620	498	391	4	
5	0	0	0	0	639	512	390	4	
6	0	0	0	0	532	510	390	4	
7	0	0	0	0	487	524	389	4	
8	0	0	0	0	439	515	388	4	
9	0	0	0	0	480	508	387	3	
10	0	0	0	0	545	519	388	4	
11	0	0	0	0	562	524	387	4	
12	0	0	0	0	574	497	386	4	
13	0	0	0	0	495	501	384	4	
14	0	0	0	0	421	515	384	4	
15	0	0	0	0	443	496	384	4	
0	0	0	0	0	468	482	383	4	
1	0	0	0	0	507	496	384	4	
2	0	0	0	0	527	500	384	4	
3	0	0	0	0	528	531	383	4	
4	0	0	0	0	546	532	382	3	
5	0	0	0	0	561	508	382	3	
6	0	0	0	0	566	513	381	3	
7	0	0	0	0	525	518	381	3	
8	0	0	0	0	451	527	381	3	
9	0	0	0	0	486	498	381	3	
10	0	0	0	0	447	468	380	3	
11	0	0	0	0	457	477	380	3	
12	0	0	0	0	519	487	379	3	
13	0	0	0	0	532	494	380	3	
14	0	0	0	0	536	507	380	3	
15	0	0	0	0	505	507	381	4	
0	0	0	0	0	505	512	380	4	
1	0	0	0	0	500	522	380	4	
2	0	0	0	0	475	525	380	4	
3	0	0	0	0	479	513	380	4	
4	0	0	0	0	505	515	380	4	
5	0	0	0	0	490	519	380	4	
6	0	0	0	0	486	524	381	3	
7	0	0	0	0	544	513	381	3	
8	0	0	0	0	524	512	380	3	
9	0	0	0	0	556	509	381	3	
10	0	0	0	0	558	508	381	3	
11	0	0	0	0	583	501	382	4	
12	0	0	0	0	566	504	382	4	
13	0	0	0	0	524	501	382	4	
14	0	0	0	0	494	508	381	4	
15	0	0	0	0	482	515	381	3	
0	0	0	0	0	485	519	383	4	
1	0	0	0	0	503	515	383	4	
2	0	0	0	0	534	503	382	4	
3	0	0	0	0	542	499	383	4	
4	0	0	0	0	516	500	382	3	
5	0	0	0	0	462	501	381	4	
6	0	0	0	0	454	505	380	3	
7	0	0	0	0	447	508	382	3	
8	0	0	0	0	511	512	382	4	
9	0	0	0	0	558	524	382	4	
10	0	0	0	0	582	508	382	4	
11	0	0	0	0	519	503	381	4	
12	0	0	0	0	506	508	381	3	
13	0	0	0	0	530	513	383	3	
14	0	0	0	0	489	516	382	3	
15	0	0	0	0	494	508	382	2	
0	0	0	0	0	577	504	382	1	
1	0	0	0	0	534	512	381	1	
2	0	0	0	0	505	498	381	1	
3	0	0	0	0	533	495	382	1	
4	0	0	0	0	507	522	382	1	
5	0	0	0	0	491	534	381	1	
6	0	0	0	0	488	515	380	2	
7	0	0	0	0	482	503	379	1	
8	0	0	0	0	446	504	380	1	
9	0	0	0	0	465	488	379	1	
10	0	0	0	0	507	478	376	1	
11	0	0	0	0	530	481	377	1	
12	0	0	0	0	498	493	376	1	
13	0	0	0	0	517	515	378	1	
14	0	0	0	0	526	518	376	2	
15	0	0	0	0	531	518	374	2	
0	0	0	0	0	495	512	375	2	
1	0	0	0	0	486	511	373	1	
2	0	0	0	0	497	519	364	1	
3	0	0	0	0	525	514	363	0	
4	0	0	0	0	543	518	364	0	
5	0	0	0	0	554	522	362	0	
6	0	0	0	0	505	518	364	0	
7	0	0	0	0	513	506	363	0	
8	0	0	0	0	531	499	362	0	
9	0	0	0	0	531	493	362	0	
10	0	0	0	0	508	492	361	0	
11	0	0	0	0	488	498	361	0	
12	0	0	0	0	468	508	361	0	
13	0	0	0	0	471	525	361	0	
14	0	0	0	0	486	524	361	0	
15	0	0	0	0	550	502	361	0	
0	0	0	0	0	594	501	361	0	
1	0	0	0	0	581	510	361	0	
2	0	0	0	0	551	513	361	0	
3	0	0	0	0	460	509	361	0	
4	0	0	0	0	420	511	361	0	
5	0	0	0	0	412	516	359	0	
6	0	0	0	0	465	511	360	0	
7	0	0	0	0	518	497	361	0	
8	0	0	0	0	504	494	361	0	
9	0	0	0	0	531	495	361	0	
10	0	0	0	0	546	515	361	0	
11	0	0	0	0	531	506	360	0	
12	0	0	0	0	571	505	360	0	
13	0	0	0	0	576	511	359	0	
14	0	0	0	0	483	515	359	0	
15	0	0	0	0	494	510	359	0	
0	0	0	0	0	491	503	358	0	
1	0	0	0	0	500	495	359	0	
2	0	0	0	0	504	496	359	0	
3	0	0	0	0	513	507	358	0	
4	0	0	0	0	523	529	359	0	
5	0	0	0	0	572	523	358	0	
6	0	0	0	0	563	523	358	0	
7	0	0	0	0	501	519	358	0	
8	0	0	0	0	465	518	359	0	
9	0	0	0	0	472	503	358	0	
10	0	0	0	0	462	486	359	0	
11	0	0	0	0	519	494	359	0	
12	0	0	0	0	536	502	358	0	
13	0	0	0	0	489	504	359	0	
14	0	0	0	0	515	508	359	0	
15	0	0	0	0	513	523	359	0	
0	0	0	0	0	518	515	358	0	
1	0	0	0	0	503	505	358	0	
2	0	0	0	0	504	504	359	0	
3	0	0	0	0	486	504	359	0	
4	0	0	0	0	499	511	359	0	
5	0	0	0	0	531	519	360	0	
6	0	0	0	0	533	521	359	0	
7	0	0	0	0	508	518	359	0	
8	0	0	0	0	490	511	359	0	
9	0	0	0	0	517	493	359	0	
10	0	0	0	0	504	482	359	0	
11	0	0	0	0	509	483	359	0	
12	0	0	0	0	499	496	359	0	
13	0	0	0	0	508	512	359	0	
14	0	0	0	0	529	522	359	0	
15	0	0	0	0	551	520	359	0	
0	0	0	0	0	590	519	359	0	
1	0	0	0	0	557	512	358	0	
2	0	0	0	0	516	509	358	0	
3	0	0	0	0	503	502	359	0	
4	0	0	0	0	474	510	359	0	
5	0	0	0	0	454	511	359	0	
6	0	0	0	0	495	508	359	0	
7	0	0	0	0	489	504	359	0	
8	0	0	0	0	483	500	359	0	
9	0	0	0	0	495	506	359	0	
10	0	0	0	0	515	509	360	0	
11	0	0	0	0	526	506	360	0	
12	0	0	0	0	512	515	360	0	
13	0	0	0	0	581	513	359	0	
14	0	0	0	0	569	525	360	0	
15	0	0	0	0	527	518	359	0	
0	0	0	0	0	523	505	359	0	
1	0	0	0	0	481	501	360	0	
2	0	0	0	0	470	501	360	0	
3	0	0	0	0	525	500	359	0	
4	0	0	0	0	560	496	359	0	
5	0	0	0	0	502	505	358	0	
6	0	0	0	0	491	514	357	0	
7	0	0	0	0	466	515	357	0	
8	0	0	0	0	488	504	357	0	
9	0	0	0	0	520	512	358	0	
10	0	0	0	0	521	517	358	0	
11	0	0	0	0	504	524	358	0	
12	0	0	0	0	526	508	358	0	
13	0	0	0	0	506	504	358	0	
14	0	0	0	0	493	492	359	0	
15	0	0	0	0	486	504	358	0	
0	0	0	0	0	500	493	359	0	
1	0	0	0	0	519	496	359	0	
2	0	0	0	0	529	507	359	0	
3	0	0	0	0	522	517	359	0	
4	0	0	0	0	462	515	359	0	
5	0	0	0	0	497	523	359	0	
6	0	0	0	0	517	519	358	0	
7	0	0	0	0	543	514	357	0	
8	0	0	0	0	540	508	358	0	
9	0	0	0	0	515	508	358	0	
10	0	0	0	0	489	497	358	0	
11	0	0	0	0	476	489	358	0	
12	0	0	0	0	489	491	358	0	
13	0	0	0	0	529	492	357	0	
14	0	0	0	0	518	491	356	0	
15	0	0	0	0	495	512	356	0	
0	0	0	0	0	504	532	355	0	
1	0	0	0	0	514	530	355	0	
2	0	0	0	0	577	518	355	0	
3	0	0	0	0	580	519	354	0	
4	0	0	0	0	563	510	353	0	
5	0	0	0	0	540	484	353	0	
6	0	0	0	0	494	509	354	0	
7	0	0	0	0	443	493	353	0	
8	0	0	0	0	472	505	353	0	
9	0	0	0	0	488	518	353	0	
10	0	0	0	0	496	534	353	0	
11	0	0	0	0	507	518	352	0	
12	0	0	0	0	524	499	351	0	
13	0	0	0	0	523	499	351	0	
14	0	0	0	0	506	516	351	0	
15	0	0	0	0	502	519	351	0	
0	0	0	0	0	487	485	350	0	
1	0	0	0	0	462	483	350	0	
2	0	0	0	0	455	518	350	0	
3	0	0	0	0	500	535	349	0	
4	0	0	0	0	546	535	350	0	
5	0	0	0	0	558	537	349	0	
6	0	0	0	0	540	514	349	0	
7	0	0	0	0	520	482	349	0	
8	0	0	0	0	553	471	350	0	
9	0	0	0	0	533	470	350	0	
10	0	0	0	0	493	486	349	0	
11	0	0	0	0	518	494	350	0	
12	0	0	0	0	488	503	350	0	
13	0	0	0	0	505	516	349	0	
14	0	0	0	0	516	519	350	0	
15	0	0	0	0	544	527	350	0	
0	0	0	0	0	500	519	350	0	
1	0	0	0	0	455	525	350	0	
2	0	0	0	0	503	511	350	0	
3	0	0	0	0	534	510	350	0	
4	0	0	0	0	551	510	350	0	
5	0	0	0	0	553	515	351	0	
6	0	0	0	0	489	506	351	0	
7	0	0	0	0	474	499	351	0	
8	0	0	0	0	451	498	352	0	
9	0	0	0	0	480	504	351	0	
10	0	0	0	0	516	509	351	0	
11	0	0	0	0	520	513	351	0	
12	0	0	0	0	536	513	350	0	
13	0	0	0	0	557	515	349	0	
14	0	0	0	0	494	510	349	0	
15	0	0	0	0	512	504	349	0	
0	0	0	0	0	553	501	348	0	
1	0	0	0	0	546	506	346	0	
2	0	0	0	0	530	512	347	0	
3	0	0	0	0	492	513	345	0	
4	0	0	0	0	495	516	344	0	
5	0	0	0	0	537	510	344	0	
6	0	0	0	0	509	500	345	0	
7	0	0	0	0	486	502	345	0	
8	0	0	0	0	511	501	343	0	
9	0	0	0	0	523	508	343	0	
10	0	0	0	0	548	504	342	0	
11	0	0	0	0	539	520	342	0	
12	0	0	0	0	485	515	341	0	
13	0	0	0	0	475	504	342	0	
14	0	0	0	0	461	502	340	0	
15	0	0	0	0	466	508	340	0	
0	0	0	0	0	505	510	340	0	
1	0	0	0	0	517	522	339	0	
2	0	0	0	0	547	526	338	0	
3	0	0	0	0	544	507	338	0	
4	0	0	0	0	511	519	337	0	
5	0	0	0	0	494	491	337	0	
6	0	0	0	0	485	496	336	0	
7	0	0	0	0	514	496	335	0	
8	0	0	0	0	510	501	336	0	
9	0	0	0	0	505	508	336	0	
10	0	0	0	0	524	522	335	0	
11	0	0	0	0	503	517	337	0	
12	0	0	0	0	478	504	336	0	
13	0	0	0	0	521	501	337	0	
14	0	0	0	0	512	493	337	0	
15	0	0	0	0	519	494	337	0	
0	0	0	0	0	530	501	338	0	
1	0	0	0	0	526	508	337	0	
2	0	0	0	0	505	506	337	0	
3	0	0	0	0	496	511	338	0	
4	0	0	0	0	471	506	339	0	
5	0	0	0	0	472	509	339	0	
6	0	0	0	0	463	528	338	0	
7	0	0	0	0	490	512	339	0	
8	0	0	0	0	542	502	338	0	
9	0	0	0	0	531	493	339	0	
10	0	0	0	0	561	489	339	0	
11	0	0	0	0	536	521	340	0	
12	0	0	0	0	537	523	339	0	
13	0	0	0	0	563	520	340	0	
14	0	0	0	0	534	512	340	0	
15	0	0	0	0	528	507	340	0	
0	0	0	0	0	531	499	340	0	
1	0	0	0	0	551	507	340	0	
2	0	0	0	0	553	525	341	0	
3	0	0	0	0	509	510	341	0	
4	0	0	0	0	512	500	340	0	
5	0	0	0	0	463	503	340	0	
6	0	0	0	0	450	516	341	0	
7	0	0	0	0	465	515	341	0	
8	0	0	0	0	409	503	341	0	
9	0	0	0	0	418	492	341	0	
10	0	0	0	0	516	497	341	0	
11	0	0	0	0	538	520	342	0	
12	0	0	0	0	568	521	342	0	
13	0	0	0	0	563	512	342	0	
14	0	0	0	0	536	523	341	0	
15	0	0	0	0	509	515	341	0	
0	0	0	0	0	491	501	341	0	
1	0	0	0	0	514	498	341	0	
2	0	0	0	0	512	496	341	0	
3	0	0	0	0	537	490	340	0	
4	0	0	0	0	498	497	340	0	
5	0	0	0	0	485	510	339	0	
6	0	0	0	0	517	508	339	0	
7	0	0	0	0	552	512	338	0	
8	0	0	0	0	555	511	339	0	
9	0	0	0	0	551	489	338	0	
10	0	0	0	0	539	485	337	0	
11	0	0	0	0	472	507	337	0	
12	0	0	0	0	473	535	337	0	
13	0	0	0	0	480	542	335	0	
14	0	0	0	0	508	526	336	0	
15	0	0	0	0	523	521	336	0	
0	0	0	0	0	527	506	335	0	
1	0	0	0	0	515	505	335	0	
2	0	0	0	0	512	501	334	0	
3	0	0	0	0	453	502	335	0	
4	0	0	0	0	459	503	335	0	
5	0	0	0	0	521	501	335	0	
6	0	0	0	0	558	503	335	0	
7	0	0	0	0	525	521	335	0	
8	0	0	0	0	506	514	335	0	
9	0	0	0	0	492	513	335	0	
10	0	0	0	0	483	510	335	0	
11	0	0	0	0	484	501	334	0	
12	0	0	0	0	532	500	334	0	
13	0	0	0	0	540	503	333	0	
14	0	0	0	0	532	511	333	0	
15	0	0	0	0	502	502	333	0	
0	0	0	0	0	514	499	333	0	
1	0	0	0	0	527	505	334	0	
2	0	0	0	0	516	500	333	0	
3	0	0	0	0	526	500	333	0	
4	0	0	0	0	531	509	333	0	
5	0	0	0	0	527	505	333	0	
6	0	0	0	0	502	521	332	0	
7	0	0	0	0	504	516	332	0	
8	0	0	0	0	482	516	332	0	
9	0	0	0	0	521	520	332	0	
10	0	0	0	0	495	511	331	0	
11	0	0	0	0	489	512	331	0	
12	0	0	0	0	518	510	330	0	
13	0	0	0	0	532	504	331	0	
14	0	0	0	0	516	492	329	0	
15	0	0	0	0	507	480	328	0	
0	0	0	0	0	508	506	328	0	
1	0	0	0	0	503	504	327	0	
2	0	0	0	0	513	513	328	0	
3	0	0	0	0	515	519	328	0	
4	0	0	0	0	485	512	328	0	
5	0	0	0	0	513	503	328	0	
6	0	0	0	0	489	502	328	0	
7	0	0	0	0	481	510	327	0	
8	0	0	0	0	515	512	327	0	
9	0	0	0	0	513	513	327	0	
10	0	0	0	0	500	507	327	0	
11	0	0	0	0	494	511	327	0	
12	0	0	0	0	523	512	327	0	
13	0	0	0	0	542	511	327	0	
14	0	0	0	0	542	508	327	0	
15	0	0	0	0	548	513	328	0	
0	0	0	0	0	543	506	328	0	
1	0	0	0	0	553	506	327	0	
2	0	0	0	0	571	505	328	0	
3	0	0	0	0	482	513	327	0	
4	0	0	0	0	433	499	328	0	
5	0	0	0	0	474	510	328	0	
6	0	0	0	0	482	524	327	0	
7	0	0	0	0	491	511	329	0	
8	0	0	0	0	485	508	328	0	
9	0	0	0	0	486	503	328	0	
10	0	0	0	0	469	514	328	0	
11	0	0	0	0	512	509	329	0	
12	0	0	0	0	557	515	328	0	
13	0	0	0	0	555	515	328	0	
14	0	0	0	0	535	518	329	0	
15	0	0	0	0	546	498	330	0	
0	0	0	0	0	521	489	329	0	
1	0	0	0	0	515	492	331	0	
2	0	0	0	0	512	494	330	0	
3	0	0	0	0	510	505	330	0	
4	0	0	0	0	524	505	331	0	
5	0	0	0	0	495	499	331	0	
6	0	0	0	0	456	507	331	0	
7	0	0	0	0	468	507	331	0	
8	0	0	0	0	487	513	330	0	
9	0	0	0	0	521	512	329	0	
10	0	0	0	0	549	507	331	0	
11	0	0	0	0	525	511	330	0	
12	0	0	0	0	499	532	329	0	
13	0	0	0	0	541	523	329	0	
14	0	0	0	0	560	507	330	0	
15	0	0	0	0	571	495	328	0	
0	0	0	0	0	516	503	327	0	
1	0	0	0	0	478	494	328	0	
2	0	0	0	0	534	510	328	0	
3	0	0	0	0	499	517	327	0	
4	0	0	0	0	492	515	325	0	
5	0	0	0	0	502	512	326	0	
6	0	0	0	0	492	496	323	0	
7	0	0	0	0	488	498	324	0	
8	0	0	0	0	472	523	325	0	
9	0	0	0	0	456	529	325	0	
10	0	0	0	0	481	515	323	0	
11	0	0	0	0	521	499	323	0	
12	0	0	0	0	534	496	322	0	
13	0	0	0	0	548	494	321	0	
14	0	0	0	0	558	497	321	0	
15	0	0	0	0	527	512	320	0	
0	0	0	0	0	505	521	319	0	
1	0	0	0	0	523	503	318	0	
2	0	0	0	0	521	505	318	0	
3	0	0	0	0	507	532	319	0	
4	0	0	0	0	486	531	318	0	
5	0	0	0	0	476	512	318	0	
6	0	0	0	0	505	502	316	0	
7	0	0	0	0	537	495	315	0	
8	0	0	0	0	531	490	315	0	
9	0	0	0	0	517	507	315	0	
10	0	0	0	0	511	508	315	0	
11	0	0	0	0	502	502	313	0	
12	0	0	0	0	494	507	312	0	
13	0	0	0	0	499	498	312	0	
14	0	0	0	0	493	512	312	0	
15	0	0	0	0	512	497	312	0	
0	0	0	0	0	529	501	312	0	
1	0	0	0	0	545	500	312	0	
2	0	0	0	0	535	499	312	0	
3	0	0	0	0	489	514	312	0	
4	0	0	0	0	487	518	311	0	
5	0	0	0	0	519	508	312	0	
6	0	0	0	0	503	505	311	0	
7	0	0	0	0	515	506	310	0	
8	0	0	0	0	487	515	311	0	
9	0	0	0	0	436	516	312	0	
10	0	0	0	0	472	510	312	0	
11	0	0	0	0	522	511	312	0	
12	0	0	0	0	538	507	312	0	
13	0	0	0	0	583	509	313	0	
14	0	0	0	0	575	519	314	0	
15	0	0	0	0	531	510	314	0	
0	0	0	0	0	515	514	313	0	
1	0	0	0	0	496	510	314	0	
2	0	0	0	0	480	507	315	0	
3	0	0	0	0	491	504	315	0	
4	0	0	0	0	490	496	315	0	
5	0	0	0	0	488	498	315	0	
6	0	0	0	0	526	516	316	0	
7	0	0	0	0	536	516	316	0	
8	0	0	0	0	505	512	317	0	
9	0	0	0	0	507	512	316	0	
10	0	0	0	0	505	511	316	0	
11	0	0	0	0	519	515	317	0	
12	0	0	0	0	550	509	317	0	
13	0	0	0	0	475	508	318	0	
14	0	0	0	0	496	504	318	0	
15	0	0	0	0	553	504	318	0	
0	0	0	0	0	564	507	318	0	
1	0	0	0	0	530	502	318	0	
2	0	0	0	0	508	504	318	0	
3	0	0	0	0	495	506	319	0	
4	0	0	0	0	516	504	318	0	
5	0	0	0	0	513	512	318	0	
6	0	0	0	0	527	509	320	0	
7	0	0	0	0	527	513	319	0	
8	0	0	0	0	484	527	319	0	
9	0	0	0	0	434	511	318	0	
10	0	0	0	0	465	496	319	0	
11	0	0	0	0	492	492	319	0	
12	0	0	0	0	514	494	318	0	
13	0	0	0	0	536	502	319	0	
14	0	0	0	0	557	506	317	0	
15	0	0	0	0	549	510	317	0	
0	0	0	0	0	470	519	316	0	
1	0	0	0	0	442	517	317	0	
2	0	0	0	0	457	515	318	0	
3	0	0	0	0	501	506	318	0	
4	0	0	0	0	542	500	319	0	
5	0	0	0	0	539	501	318	0	
6	0	0	0	0	556	510	317	0	
7	0	0	0	0	568	516	316	0	
8	0	0	0	0	575	518	318	0	
9	0	0	0	0	523	523	318	0	
10	0	0	0	0	463	517	319	0	
11	0	0	0	0	486	511	318	0	
12	0	0	0	0	481	510	317	0	
13	0	0	0	0	489	519	319	0	
14	0	0	0	0	521	507	318	0	
15	0	0	0	0	512	485	318	0	
0	0	0	0	0	512	473	318	0	
1	0	0	0	0	515	498	318	0	
2	0	0	0	0	515	512	317	0	
3	0	0	0	0	521	503	318	0	
4	0	0	0	0	525	495	318	0	
5	0	0	0	0	522	516	316	0	
6	0	0	0	0	513	508	314	0	
7	0	0	0	0	488	510	314	0	
8	0	0	0	0	517	511	313	0	
9	0	0	0	0	541	513	313	0	
10	0	0	0	0	518	511	313	0	
11	0	0	0	0	486	508	313	0	
12	0	0	0	0	443	508	313	0	
13	0	0	0	0	472	504	313	0	
14	0	0	0	0	511	508	312	0	
15	0	0	0	0	521	517	313	0	
0	0	0	0	0	516	521	314	0	
1	0	0	0	0	488	502	314	0	
2	0	0	0	0	483	503	316	0	
3	0	0	0	0	483	509	315	0	
4	0	0	0	0	520	511	316	0	
5	0	0	0	0	576	513	316	0	
6	0	0	0	0	586	516	316	0	
7	0	0	0	0	528	515	316	0	
8	0	0	0	0	519	511	315	0	
9	0	0	0	0	492	511	315	0	
10	0	0	0	0	494	502	316	0	
11	0	0	0	0	512	502	316	0	
12	0	0	0	0	518	499	318	0	
13	0	0	0	0	519	499	318	0	
14	0	0	0	0	515	496	318	0	
15	0	0	0	0	520	491	318	0	
0	0	0	0	0	531	497	318	0	
1	0	0	0	0	507	528	318	0	
2	0	0	0	0	487	529	319	0	
3	0	0	0	0	496	519	318	0	
4	0	0	0	0	485	517	316	0	
5	0	0	0	0	490	510	317	0	
6	0	0	0	0	517	506	316	0	
7	0	0	0	0	529	505	316	0	
8	0	0	0	0	555	497	315	0	
9	0	0	0	0	542	515	316	0	
10	0	0	0	0	508	512	314	0	
11	0	0	0	0	492	510	314	0	
12	0	0	0	0	488	497	313	0	
13	0	0	0	0	472	503	316	0	
14	0	0	0	0	463	506	316	0	
15	0	0	0	0	486	514	317	0	
0	0	0	0	0	527	520	318	0	
1	0	0	0	0	559	520	318	0	
2	0	0	0	0	551	511	319	0	
3	0	0	0	0	540	497	320	0	
4	0	0	0	0	513	501	318	0	
5	0	0	0	0	511	504	319	0	
6	0	0	0	0	503	500	318	0	
7	0	0	0	0	512	494	320	0	
8	0	0	0	0	516	487	319	0	
9	0	0	0	0	525	493	321	0	
10	0	0	0	0	487	522	319	0	
11	0	0	0	0	503	535	320	0	
12	0	0	0	0	474	528	320	0	
13	0	0	0	0	496	518	322	0	
14	0	0	0	0	515	504	323	0	
15	0	0	0	0	488	502	323	0	
0	0	0	0	0	479	497	324	0	
1	0	0	0	0	500	502	324	0	
2	0	0	0	0	521	502	325	0	
3	0	0	0	0	541	503	323	0	
4	0	0	0	0	545	513	325	0	
5	0	0	0	0	519	517	326	0	
6	0	0	0	0	519	510	325	0	
7	0	0	0	0	524	507	326	0	
8	0	0	0	0	524	505	326	0	
9	0	0	0	0	525	508	327	0	
10	0	0	0	0	526	508	327	0	
11	0	0	0	0	506	505	328	0	
12	0	0	0	0	491	506	328	0	
13	0	0	0	0	484	504	329	0	
14	0	0	0	0	497	515	328	0	
15	0	0	0	0	535	517	327	0	
0	0	0	0	0	520	530	326	0	
1	0	0	0	0	497	515	328	0	
2	0	0	0	0	492	510	328	0	
3	0	0	0	0	460	513	329	0	
4	0	0	0	0	516	504	329	0	
5	0	0	0	0	523	504	330	0	
6	0	0	0	0	516	501	330	0	
7	0	0	0	0	536	496	329	0	
8	0	0	0	0	518	496	329	0	
9	0	0	0	0	505	496	330	0	
10	0	0	0	0	532	492	331	0	
11	0	0	0	0	531	496	330	0	
12	0	0	0	0	517	495	328	0	
13	0	0	0	0	517	508	329	0	
14	0	0	0	0	508	531	326	0	
15	0	0	0	0	493	528	328	0	
0	0	0	0	0	511	522	328	0	
1	0	0	0	0	520	515	328	0	
2	0	0	0	0	517	510	328	0	
3	0	0	0	0	524	500	328	0	
4	0	0	0	0	504	499	328	0	
5	0	0	0	0	460	511	328	0	
6	0	0	0	0	460	521	329	0	
7	0	0	0	0	483	515	329	0	
8	0	0	0	0	509	511	329	0	
9	0	0	0	0	497	506	329	0	
10	0	0	0	0	484	498	328	0	
11	0	0	0	0	497	496	329	0	
12	0	0	0	0	498	513	329	0	
13	0	0	0	0	525	525	331	0	
14	0	0	0	0	595	504	331	0	
15	0	0	0	0	667	501	331	0	
0	0	0	0	0	615	504	332	0	
1	0	0	0	0	537	507	331	0	
2	0	0	0	0	486	513	331	0	
3	0	0	0	0	458	511	332	0	
4	0	0	0	0	450	511	331	0	
5	0	0	0	0	496	509	331	0	
6	0	0	0	0	529	503	332	0	
7	0	0	0	0	522	503	332	0	
8	0	0	0	0	487	504	331	0	
9	0	0	0	0	460	512	330	0	
10	0	0	0	0	463	501	329	0	
11	0	0	0	0	479	500	328	0	
12	0	0	0	0	503	510	328	0	
13	0	0	0	0	540	517	328	0	
14	0	0	0	0	523	519	329	0	
15	0	0	0	0	516	521	327	0	
0	0	0	0	0	522	505	329	0	
1	0	0	0	0	502	496	329	0	
2	0	0	0	0	455	498	327	0	
3	0	0	0	0	492	504	327	0	
4	0	0	0	0	521	506	327	0	
5	0	0	0	0	559	510	326	0	
6	0	0	0	0	590	507	326	0	
7	0	0	0	0	566	511	325	0	
8	0	0	0	0	518	515	325	0	
9	0	0	0	0	471	517	324	0	
10	0	0	0	0	449	508	323	0	
11	0	0	0	0	471	512	323	0	
12	0	0	0	0	498	506	323	0	
13	0	0	0	0	524	506	321	0	
14	0	0	0	0	531	501	320	0	
15	0	0	0	0	513	505	320	0	
0	0	0	0	0	517	517	319	0	
1	0	0	0	0	520	505	319	0	
2	0	0	0	0	527	507	319	0	
3	0	0	0	0	506	502	320	0	
4	0	0	0	0	502	507	320	0	
5	0	0	0	0	499	511	319	0	
6	0	0	0	0	483	499	320	0	
7	0	0	0	0	492	505	318	0	
8	0	0	0	0	503	509	319	0	
9	0	0	0	0	506	514	318	0	
10	0	0	0	0	531	512	319	0	
11	0	0	0	0	546	507	316	0	
12	0	0	0	0	540	502	317	0	
13	0	0	0	0	525	499	318	0	
14	0	0	0	0	536	497	316	0	
15	0	0	0	0	519	508	315	0	
0	0	0	0	0	486	513	315	0	
1	0	0	0	0	484	524	315	0	
2	0	0	0	0	461	520	315	0	
3	0	0	0	0	463	514	315	0	
4	0	0	0	0	526	516	314	0	
5	0	0	0	0	536	518	314	0	
6	0	0	0	0	543	502	312	0	
7	0	0	0	0	523	501	313	0	
8	0	0	0	0	525	502	313	0	
9	0	0	0	0	517	511	312	0	
10	0	0	0	0	508	503	313	0	
11	0	0	0	0	507	503	314	0	
12	0	0	0	0	529	502	311	0	
13	0	0	0	0	508	508	311	0	
14	0	0	0	0	501	508	312	0	
15	0	0	0	0	505	511	311	0	
0	0	0	0	0	504	511	311	0	
1	0	0	0	0	502	506	311	0	
2	0	0	0	0	519	506	310	0	
3	0	0	0	0	510	508	311	0	
4	0	0	0	0	513	505	312	0	
5	0	0	0	0	545	498	310	0	
6	0	0	0	0	551	501	311	0	
7	0	0	0	0	529	499	309	0	
8	0	0	0	0	480	499	310	0	
9	0	0	0	0	495	503	311	0	
10	0	0	0	0	462	515	309	0	
11	0	0	0	0	471	519	312	0	
12	0	0	0	0	513	523	312	0	
13	0	0	0	0	536	518	312	0	
14	0	0	0	0	530	511	313	0	
15	0	0	0	0	470	503	313	0	
0	0	0	0	0	463	504	315	0	
1	0	0	0	0	481	509	315	0	
2	0	0	0	0	503	509	314	0	
3	0	0	0	0	529	503	314	0	
4	0	0	0	0	546	506	315	0	
5	0	0	0	0	597	505	313	0	
6	0	0	0	0	546	505	314	0	
7	0	0	0	0	521	504	314	0	
8	0	0	0	0	482	512	313	0	
9	0	0	0	0	423	511	314	0	
10	0	0	0	0	476	518	315	0	
11	0	0	0	0	541	512	314	0	
12	0	0	0	0	567	511	314	0	
13	0	0	0	0	551	500	313	0	
14	0	0	0	0	537	502	314	0	
15	0	0	0	0	506	514	314	0	
0	0	0	0	0	483	516	314	0	
1	0	0	0	0	503	512	313	0	
2	0	0	0	0	498	518	314	0	
3	0	0	0	0	495	507	314	0	
4	0	0	0	0	523	502	313	0	
5	0	0	0	0	550	504	313	0	
6	0	0	0	0	554	505	312	0	
7	0	0	0	0	554	504	312	0	
8	0	0	0	0	509	504	312	0	
9	0	0	0	0	454	503	312	0	
10	0	0	0	0	451	511	311	0	
11	0	0	0	0	496	513	311	0	
12	0	0	0	0	526	509	311	0	
13	0	0	0	0	526	501	310	0	
14	0	0	0	0	535	511	311	0	
15	0	0	0	0	522	507	309	0	
0	0	0	0	0	526	499	310	0	
1	0	0	0	0	494	497	310	0	
2	0	0	0	0	409	507	310	0	
3	0	0	0	0	426	511	309	0	
4	0	0	0	0	448	511	310	0	
5	0	0	0	0	519	511	309	0	
6	0	0	0	0	563	509	307	0	
7	0	0	0	0	601	505	305	0	
8	0	0	0	0	596	519	305	0	
9	0	0	0	0	535	533	304	0	
10	0	0	0	0	500	522	303	0	
11	0	0	0	0	501	510	302	0	
12	0	0	0	0	522	492	301	0	
13	0	0	0	0	527	483	301	0	
14	0	0	0	0	513	492	302	0	
15	0	0	0	0	508	504	301	0	
0	0	0	0	0	500	503	301	0	
1	0	0	0	0	507	505	300	0	
2	0	0	0	0	496	519	300	0	
3	0	0	0	0	489	519	300	0	
4	0	0	0	0	507	511	299	0	
5	0	0	0	0	485	512	299	0	
6	0	0	0	0	483	509	298	0	
7	0	0	0	0	496	509	295	0	
8	0	0	0	0	532	501	296	0	
9	0	0	0	0	542	496	298	0	
10	0	0	0	0	522	500	296	0	
11	0	0	0	0	485	515	297	0	
12	0	0	0	0	480	523	296	0	
13	0	0	0	0	482	507	295	0	
14	0	0	0	0	511	496	294	0	
15	0	0	0	0	531	498	295	0	
0	0	0	0	0	549	508	295	0	
1	0	0	0	0	540	526	295	0	
2	0	0	0	0	514	525	295	0	
3	0	0	0	0	499	516	295	0	
4	0	0	0	0	491	509	295	0	
5	0	0	0	0	497	507	296	0	
6	0	0	0	0	505	509	296	0	
7	0	0	0	0	524	511	294	0	
8	0	0	0	0	534	506	294	0	
9	0	0	0	0	543	503	294	0	
10	0	0	0	0	538	503	291	0	
11	0	0	0	0	546	509	295	0	
12	0	0	0	0	525	511	297	0	
13	0	0	0	0	483	508	295	0	
14	0	0	0	0	472	494	297	0	
15	0	0	0	0	473	490	295	0	
0	0	0	0	0	496	499	296	0	
1	0	0	0	0	494	516	295	0	
2	0	0	0	0	492	511	295	0	
3	0	0	0	0	503	509	293	0	
4	0	0	0	0	492	505	295	0	
5	0	0	0	0	498	506	297	0	
6	0	0	0	0	517	517	295	0	
7	0	0	0	0	530	522	297	0	
8	0	0	0	0	523	518	297	0	
9	0	0	0	0	515	506	297	0	
10	0	0	0	0	536	506	297	0	
11	0	0	0	0	525	504	297	0	
12	0	0	0	0	505	504	297	0	
13	0	0	0	0	520	511	297	0	
14	0	0	0	0	511	509	297	0	
15	0	0	0	0	504	512	297	0	
0	0	0	0	0	523	516	298	0	
1	0	0	0	0	549	511	297	0	
