# OpenSignals Text File Format. Version 1
# {"20:18:06:13:21:78": {"position": 0, "device": "bitalino_rev", "device name": "20:18:06:13:21:78", "device connection": "BTH20:18:06:13:21:78", "sampling rate": 1000, "resolution": [4, 1, 1, 1, 1, 10, 10, 10, 10], "firmware version": 1281, "comments": "", "keywords": "", "mode": 0, "sync interval": 2, "date": "2023-5-30", "time": "19:12:9.385", "channels": [1, 2, 3, 4], "sensor": ["EMGBITREV", "EMGBITREV", "RAW", "RAW"], "label": ["A1", "A2", "A3", "A4"], "column": ["nSeq", "I1", "I2", "O1", "O2", "A1", "A2", "A3", "A4"], "special": [{}, {}, {}, {}], "digital IO": [0, 0, 1, 1]}}
# EndOfHeader
0	0	0	0	0	517	509	0	0	
1	0	0	0	0	514	507	0	0	
2	0	0	0	0	511	510	0	0	
3	0	0	0	0	503	507	0	0	
4	0	0	0	0	497	507	0	0	
5	0	0	0	0	494	508	0	0	
6	0	0	0	0	507	510	0	0	
7	0	0	0	0	512	506	0	0	
8	0	0	0	0	513	508	0	0	
9	0	0	0	0	520	507	0	0	
10	0	0	0	0	521	508	0	0	
11	0	0	0	0	510	509	0	0	
12	0	0	0	0	512	509	0	0	
13	0	0	0	0	512	508	0	0	
14	0	0	0	0	511	508	0	0	
15	0	0	0	0	510	508	0	0	
0	0	0	0	0	511	508	0	0	
1	0	0	0	0	510	508	0	0	
2	0	0	0	0	509	507	0	0	
3	0	0	0	0	511	512	0	0	
4	0	0	0	0	511	510	0	0	
5	0	0	0	0	510	508	0	0	
6	0	0	0	0	508	507	0	0	
7	0	0	0	0	510	510	0	0	
8	0	0	0	0	515	509	0	0	
9	0	0	0	0	511	506	0	0	
10	0	0	0	0	510	510	0	0	
11	0	0	0	0	511	508	0	0	
12	0	0	0	0	510	510	0	0	
13	0	0	0	0	505	508	0	0	
14	0	0	0	0	510	509	0	0	
15	0	0	0	0	512	508	0	0	
0	0	0	0	0	512	508	0	0	
1	0	0	0	0	516	509	0	0	
2	0	0	0	0	519	506	0	0	
3	0	0	0	0	524	508	0	0	
4	0	0	0	0	520	508	0	0	
5	0	0	0	0	510	511	0	0	
6	0	0	0	0	508	510	0	0	
7	0	0	0	0	508	509	0	0	
8	0	0	0	0	505	507	0	0	
9	0	0	0	0	502	506	0	0	
10	0	0	0	0	505	508	0	0	
11	0	0	0	0	505	508	0	0	
12	0	0	0	0	508	510	0	0	
13	0	0	0	0	514	510	0	0	
14	0	0	0	0	521	510	0	0	
15	0	0	0	0	517	505	0	0	
0	0	0	0	0	520	509	0	0	
1	0	0	0	0	525	507	0	0	
2	0	0	0	0	524	507	0	0	
3	0	0	0	0	514	508	0	0	
4	0	0	0	0	512	511	0	0	
5	0	0	0	0	510	508	0	0	
6	0	0	0	0	509	507	0	0	
7	0	0	0	0	498	509	0	0	
8	0	0	0	0	506	510	0	0	
9	0	0	0	0	511	507	0	0	
10	0	0	0	0	514	510	0	0	
11	0	0	0	0	510	506	0	0	
12	0	0	0	0	511	508	0	0	
13	0	0	0	0	504	508	0	0	
14	0	0	0	0	497	508	0	0	
15	0	0	0	0	506	508	0	0	
0	0	0	0	0	508	508	0	0	
1	0	0	0	0	512	508	0	0	
2	0	0	0	0	510	509	0	0	
3	0	0	0	0	511	510	0	0	
4	0	0	0	0	510	508	0	0	
5	0	0	0	0	512	508	0	0	
6	0	0	0	0	511	509	0	0	
7	0	0	0	0	512	510	0	0	
8	0	0	0	0	513	510	0	0	
9	0	0	0	0	512	508	0	0	
10	0	0	0	0	514	510	0	0	
11	0	0	0	0	511	508	0	0	
12	0	0	0	0	512	510	0	0	
13	0	0	0	0	510	507	0	0	
14	0	0	0	0	514	508	0	0	
15	0	0	0	0	512	508	0	0	
0	0	0	0	0	511	508	0	0	
1	0	0	0	0	512	507	0	0	
2	0	0	0	0	511	508	0	0	
3	0	0	0	0	508	508	0	0	
4	0	0	0	0	505	507	0	0	
5	0	0	0	0	507	506	0	0	
6	0	0	0	0	509	508	0	0	
7	0	0	0	0	513	511	0	0	
8	0	0	0	0	516	508	0	0	
9	0	0	0	0	516	507	0	0	
10	0	0	0	0	511	508	0	0	
11	0	0	0	0	512	509	0	0	
12	0	0	0	0	511	511	0	0	
13	0	0	0	0	508	508	0	0	
14	0	0	0	0	510	508	0	0	
15	0	0	0	0	511	507	0	0	
0	0	0	0	0	514	507	0	0	
1	0	0	0	0	512	508	0	0	
2	0	0	0	0	512	507	0	0	
3	0	0	0	0	514	507	0	0	
4	0	0	0	0	515	505	0	0	
5	0	0	0	0	518	507	0	0	
6	0	0	0	0	511	508	0	0	
7	0	0	0	0	510	510	0	0	
8	0	0	0	0	507	510	0	0	
9	0	0	0	0	506	509	0	0	
10	0	0	0	0	509	510	0	0	
11	0	0	0	0	494	507	0	0	
12	0	0	0	0	506	508	0	0	
13	0	0	0	0	514	505	0	0	
14	0	0	0	0	508	510	0	0	
15	0	0	0	0	506	509	0	0	
0	0	0	0	0	505	508	0	0	
1	0	0	0	0	506	508	0	0	
2	0	0	0	0	512	507	0	0	
3	0	0	0	0	521	507	0	0	
4	0	0	0	0	538	508	0	0	
5	0	0	0	0	539	510	0	0	
6	0	0	0	0	523	511	0	0	
7	0	0	0	0	512	512	0	0	
8	0	0	0	0	507	508	0	0	
9	0	0	0	0	495	507	0	0	
10	0	0	0	0	504	507	0	0	
11	0	0	0	0	508	507	0	0	
12	0	0	0	0	507	507	0	0	
13	0	0	0	0	507	508	0	0	
14	0	0	0	0	510	510	0	0	
15	0	0	0	0	507	508	0	0	
0	0	0	0	0	510	511	0	0	
1	0	0	0	0	513	507	0	0	
2	0	0	0	0	513	508	0	0	
3	0	0	0	0	515	507	0	0	
4	0	0	0	0	516	506	1	0	
5	0	0	0	0	514	508	0	0	
6	0	0	0	0	513	510	0	0	
7	0	0	0	0	511	507	0	0	
8	0	0	0	0	509	510	0	0	
9	0	0	0	0	505	508	1	0	
10	0	0	0	0	506	508	0	0	
11	0	0	0	0	510	509	0	0	
12	0	0	0	0	512	507	0	0	
13	0	0	0	0	511	508	0	0	
14	0	0	0	0	515	509	0	0	
15	0	0	0	0	515	508	0	0	
0	0	0	0	0	511	507	0	0	
1	0	0	0	0	508	506	0	0	
2	0	0	0	0	510	510	0	0	
3	0	0	0	0	507	509	0	0	
4	0	0	0	0	509	507	0	0	
5	0	0	0	0	510	508	0	0	
6	0	0	0	0	510	507	0	0	
7	0	0	0	0	511	508	0	0	
8	0	0	0	0	514	510	0	0	
9	0	0	0	0	511	508	0	0	
10	0	0	0	0	513	509	0	0	
11	0	0	0	0	509	508	0	0	
12	0	0	0	0	508	508	0	0	
13	0	0	0	0	511	510	0	0	
14	0	0	0	0	508	511	0	0	
15	0	0	0	0	509	507	0	0	
0	0	0	0	0	511	509	0	0	
1	0	0	0	0	511	509	0	0	
2	0	0	0	0	512	506	0	0	
3	0	0	0	0	512	509	0	0	
4	0	0	0	0	509	508	0	0	
5	0	0	0	0	510	508	0	0	
6	0	0	0	0	510	508	0	0	
7	0	0	0	0	510	506	0	0	
8	0	0	0	0	511	507	0	0	
9	0	0	0	0	508	510	0	0	
10	0	0	0	0	511	508	0	0	
11	0	0	0	0	515	507	0	0	
12	0	0	0	0	518	509	0	0	
13	0	0	0	0	515	508	0	0	
14	0	0	0	0	516	506	0	0	
15	0	0	0	0	516	504	0	0	
0	0	0	0	0	516	509	0	0	
1	0	0	0	0	495	513	0	0	
2	0	0	0	0	499	506	0	0	
3	0	0	0	0	511	510	0	0	
4	0	0	0	0	509	508	0	0	
5	0	0	0	0	513	506	0	0	
6	0	0	0	0	515	509	0	0	
7	0	0	0	0	516	509	0	0	
8	0	0	0	0	515	506	0	0	
9	0	0	0	0	513	508	0	0	
10	0	0	0	0	503	508	0	0	
11	0	0	0	0	497	511	0	0	
12	0	0	0	0	506	510	0	0	
13	0	0	0	0	511	507	0	0	
14	0	0	0	0	511	508	0	0	
15	0	0	0	0	512	507	0	0	
0	0	0	0	0	513	507	0	0	
1	0	0	0	0	512	507	0	0	
2	0	0	0	0	512	508	0	0	
3	0	0	0	0	512	508	0	0	
4	0	0	0	0	512	508	0	0	
5	0	0	0	0	514	510	0	0	
6	0	0	0	0	513	509	0	0	
7	0	0	0	0	513	508	0	0	
8	0	0	0	0	511	508	0	0	
9	0	0	0	0	511	508	0	0	
10	0	0	0	0	512	511	0	0	
11	0	0	0	0	511	508	0	0	
12	0	0	0	0	513	508	0	0	
13	0	0	0	0	513	507	0	0	
14	0	0	0	0	511	509	0	0	
15	0	0	0	0	510	508	0	0	
0	0	0	0	0	513	510	0	0	
1	0	0	0	0	510	507	0	0	
2	0	0	0	0	510	508	0	0	
3	0	0	0	0	511	508	0	0	
4	0	0	0	0	510	508	0	0	
5	0	0	0	0	511	508	0	0	
6	0	0	0	0	513	508	0	0	
7	0	0	0	0	510	508	0	0	
8	0	0	0	0	511	510	0	0	
9	0	0	0	0	513	508	0	0	
10	0	0	0	0	511	508	0	0	
11	0	0	0	0	508	506	0	0	
12	0	0	0	0	509	508	0	0	
13	0	0	0	0	512	507	0	0	
14	0	0	0	0	512	508	0	0	
15	0	0	0	0	513	508	0	0	
0	0	0	0	0	513	508	0	0	
1	0	0	0	0	513	508	0	0	
2	0	0	0	0	514	508	0	0	
3	0	0	0	0	511	507	0	0	
4	0	0	0	0	511	507	0	0	
5	0	0	0	0	507	508	0	0	
6	0	0	0	0	511	507	0	0	
7	0	0	0	0	511	508	0	0	
8	0	0	0	0	509	506	0	0	
9	0	0	0	0	508	508	0	0	
10	0	0	0	0	512	510	0	0	
11	0	0	0	0	508	508	0	0	
12	0	0	0	0	510	510	0	0	
13	0	0	0	0	512	510	0	0	
14	0	0	0	0	513	507	0	0	
15	0	0	0	0	511	507	0	0	
0	0	0	0	0	508	508	0	0	
1	0	0	0	0	504	508	0	0	
2	0	0	0	0	504	509	0	0	
3	0	0	0	0	507	510	0	0	
4	0	0	0	0	508	508	0	0	
5	0	0	0	0	508	507	0	0	
6	0	0	0	0	509	508	0	0	
7	0	0	0	0	512	508	0	0	
8	0	0	0	0	518	507	0	0	
9	0	0	0	0	521	507	0	0	
10	0	0	0	0	520	506	0	0	
11	0	0	0	0	513	507	0	0	
12	0	0	0	0	518	508	0	0	
13	0	0	0	0	524	507	0	0	
14	0	0	0	0	523	508	0	0	
15	0	0	0	0	516	507	0	0	
0	0	0	0	0	513	509	0	0	
1	0	0	0	0	512	511	0	0	
2	0	0	0	0	509	509	0	0	
3	0	0	0	0	501	508	0	0	
4	0	0	0	0	496	511	0	0	
5	0	0	0	0	488	510	0	0	
6	0	0	0	0	505	510	0	0	
7	0	0	0	0	512	508	0	0	
8	0	0	0	0	516	507	0	0	
9	0	0	0	0	515	509	0	0	
10	0	0	0	0	511	510	0	0	
11	0	0	0	0	509	506	0	0	
12	0	0	0	0	506	508	0	0	
13	0	0	0	0	507	506	0	0	
14	0	0	0	0	509	507	0	0	
15	0	0	0	0	511	506	0	0	
0	0	0	0	0	512	509	0	0	
1	0	0	0	0	516	507	0	0	
2	0	0	0	0	516	506	0	0	
3	0	0	0	0	513	510	0	0	
4	0	0	0	0	512	508	0	0	
5	0	0	0	0	516	509	0	0	
6	0	0	0	0	513	508	0	0	
7	0	0	0	0	518	508	0	0	
8	0	0	0	0	519	506	0	0	
9	0	0	0	0	518	508	0	0	
10	0	0	0	0	513	512	0	0	
11	0	0	0	0	509	510	0	0	
12	0	0	0	0	510	510	0	0	
13	0	0	0	0	510	509	0	0	
14	0	0	0	0	510	507	0	0	
15	0	0	0	0	510	506	0	0	
0	0	0	0	0	508	508	0	0	
1	0	0	0	0	510	508	0	0	
2	0	0	0	0	508	508	0	0	
3	0	0	0	0	508	507	0	0	
4	0	0	0	0	509	508	0	0	
5	0	0	0	0	507	507	0	0	
6	0	0	0	0	508	508	0	0	
7	0	0	0	0	511	506	0	0	
8	0	0	0	0	512	509	0	0	
9	0	0	0	0	511	508	0	0	
10	0	0	0	0	512	507	0	0	
11	0	0	0	0	512	507	0	0	
12	0	0	0	0	512	506	0	0	
13	0	0	0	0	514	507	0	0	
14	0	0	0	0	513	509	0	0	
15	0	0	0	0	510	511	0	0	
0	0	0	0	0	504	508	0	0	
1	0	0	0	0	502	508	0	0	
2	0	0	0	0	506	509	0	0	
3	0	0	0	0	514	510	0	0	
4	0	0	0	0	515	507	0	0	
5	0	0	0	0	516	508	0	0	
6	0	0	0	0	519	509	0	0	
7	0	0	0	0	527	507	0	0	
8	0	0	0	0	522	507	0	0	
9	0	0	0	0	514	508	0	0	
10	0	0	0	0	494	511	0	0	
11	0	0	0	0	498	511	0	0	
12	0	0	0	0	508	510	0	0	
13	0	0	0	0	511	506	0	0	
14	0	0	0	0	518	508	0	0	
15	0	0	0	0	514	509	0	0	
0	0	0	0	0	506	508	0	0	
1	0	0	0	0	511	507	0	0	
2	0	0	0	0	512	507	0	0	
3	0	0	0	0	510	507	0	0	
4	0	0	0	0	508	508	0	0	
5	0	0	0	0	506	508	0	0	
6	0	0	0	0	506	510	0	0	
7	0	0	0	0	511	508	0	0	
8	0	0	0	0	513	509	0	0	
9	0	0	0	0	514	506	0	0	
10	0	0	0	0	512	507	0	0	
11	0	0	0	0	514	506	0	0	
12	0	0	0	0	513	511	0	0	
13	0	0	0	0	509	508	0	0	
14	0	0	0	0	509	508	0	0	
15	0	0	0	0	507	507	0	0	
0	0	0	0	0	507	510	0	0	
1	0	0	0	0	515	507	0	0	
2	0	0	0	0	519	509	0	0	
3	0	0	0	0	517	508	0	0	
4	0	0	0	0	518	510	0	0	
5	0	0	0	0	519	508	0	0	
6	0	0	0	0	520	508	0	0	
7	0	0	0	0	504	508	0	0	
8	0	0	0	0	496	508	0	0	
9	0	0	0	0	494	509	0	0	
10	0	0	0	0	505	508	0	0	
11	0	0	0	0	512	508	0	0	
12	0	0	0	0	522	506	0	0	
13	0	0	0	0	515	507	0	0	
14	0	0	0	0	512	508	0	0	
15	0	0	0	0	508	510	0	0	
0	0	0	0	0	510	511	0	0	
1	0	0	0	0	508	510	0	0	
2	0	0	0	0	510	506	0	0	
3	0	0	0	0	504	508	0	0	
4	0	0	0	0	504	508	0	0	
5	0	0	0	0	510	507	0	0	
6	0	0	0	0	517	508	0	0	
7	0	0	0	0	512	508	0	0	
8	0	0	0	0	511	509	0	0	
9	0	0	0	0	499	507	0	0	
10	0	0	0	0	521	505	0	0	
11	0	0	0	0	536	506	0	0	
12	0	0	0	0	525	508	0	0	
13	0	0	0	0	516	510	0	0	
14	0	0	0	0	507	511	0	0	
15	0	0	0	0	504	508	0	0	
0	0	0	0	0	503	507	0	0	
1	0	0	0	0	496	509	0	0	
2	0	0	0	0	488	508	0	0	
3	0	0	0	0	504	507	0	0	
4	0	0	0	0	519	511	0	0	
5	0	0	0	0	512	507	0	0	
6	0	0	0	0	508	507	0	0	
7	0	0	0	0	514	506	0	0	
8	0	0	0	0	513	508	0	0	
9	0	0	0	0	514	508	0	0	
10	0	0	0	0	517	509	0	0	
11	0	0	0	0	522	507	0	0	
12	0	0	0	0	528	507	0	0	
13	0	0	0	0	515	509	0	0	
14	0	0	0	0	506	509	0	0	
15	0	0	0	0	506	509	0	0	
0	0	0	0	0	508	508	0	0	
1	0	0	0	0	504	506	0	0	
2	0	0	0	0	507	507	0	0	
3	0	0	0	0	508	508	1	0	
4	0	0	0	0	514	507	0	0	
5	0	0	0	0	511	508	0	0	
6	0	0	0	0	511	509	0	0	
7	0	0	0	0	512	509	0	0	
8	0	0	0	0	514	508	0	0	
9	0	0	0	0	518	508	0	0	
10	0	0	0	0	519	510	0	0	
11	0	0	0	0	510	508	0	0	
12	0	0	0	0	510	509	0	0	
13	0	0	0	0	491	508	0	0	
14	0	0	0	0	500	507	0	0	
15	0	0	0	0	505	506	0	0	
0	0	0	0	0	509	505	0	0	
1	0	0	0	0	514	507	0	0	
2	0	0	0	0	512	511	0	0	
3	0	0	0	0	513	508	0	0	
4	0	0	0	0	512	510	0	0	
5	0	0	0	0	515	508	0	0	
6	0	0	0	0	515	511	0	0	
7	0	0	0	0	511	507	0	0	
8	0	0	0	0	511	509	0	0	
9	0	0	0	0	509	508	0	0	
10	0	0	0	0	508	507	0	0	
11	0	0	0	0	509	507	0	0	
12	0	0	0	0	510	504	1	0	
13	0	0	0	0	514	510	0	0	
14	0	0	0	0	513	509	0	0	
15	0	0	0	0	512	508	0	0	
0	0	0	0	0	511	508	0	0	
1	0	0	0	0	514	509	0	0	
2	0	0	0	0	511	508	0	0	
3	0	0	0	0	509	507	0	0	
4	0	0	0	0	512	508	0	0	
5	0	0	0	0	510	507	0	0	
6	0	0	0	0	511	510	0	0	
7	0	0	0	0	511	508	0	0	
8	0	0	0	0	511	510	0	0	
9	0	0	0	0	511	508	0	0	
10	0	0	0	0	515	507	0	0	
11	0	0	0	0	512	509	0	0	
12	0	0	0	0	511	507	0	0	
13	0	0	0	0	508	507	0	0	
14	0	0	0	0	505	509	0	0	
15	0	0	0	0	504	510	0	0	
0	0	0	0	0	504	508	0	0	
1	0	0	0	0	504	508	0	0	
2	0	0	0	0	500	507	0	0	
3	0	0	0	0	508	508	0	0	
4	0	0	0	0	518	508	0	0	
5	0	0	0	0	521	507	0	0	
6	0	0	0	0	516	506	0	0	
7	0	0	0	0	507	510	0	0	
8	0	0	0	0	511	507	0	0	
9	0	0	0	0	519	506	0	0	
10	0	0	0	0	517	510	0	0	
11	0	0	0	0	518	508	0	0	
12	0	0	0	0	518	508	0	0	
13	0	0	0	0	524	507	0	0	
14	0	0	0	0	522	508	0	0	
15	0	0	0	0	519	508	0	0	
0	0	0	0	0	502	508	0	0	
1	0	0	0	0	496	510	0	0	
2	0	0	0	0	503	509	0	0	
3	0	0	0	0	509	507	0	0	
4	0	0	0	0	511	509	0	0	
5	0	0	0	0	510	508	0	0	
6	0	0	0	0	513	506	0	0	
7	0	0	0	0	512	507	0	0	
8	0	0	0	0	509	508	0	0	
9	0	0	0	0	507	507	0	0	
10	0	0	0	0	508	508	0	0	
11	0	0	0	0	508	511	0	0	
12	0	0	0	0	511	508	0	0	
13	0	0	0	0	510	510	0	0	
14	0	0	0	0	512	509	0	0	
15	0	0	0	0	514	507	0	0	
0	0	0	0	0	515	507	0	0	
1	0	0	0	0	516	506	0	0	
2	0	0	0	0	515	508	0	0	
3	0	0	0	0	511	507	0	0	
4	0	0	0	0	502	507	0	0	
5	0	0	0	0	484	510	0	0	
6	0	0	0	0	502	508	0	0	
7	0	0	0	0	517	508	0	0	
8	0	0	0	0	514	508	0	0	
9	0	0	0	0	515	511	0	0	
10	0	0	0	0	520	508	0	0	
11	0	0	0	0	522	508	0	0	
12	0	0	0	0	518	510	0	0	
13	0	0	0	0	514	508	0	0	
14	0	0	0	0	507	511	0	0	
15	0	0	0	0	511	509	0	0	
0	0	0	0	0	511	507	0	0	
1	0	0	0	0	503	510	0	0	
2	0	0	0	0	507	508	0	0	
3	0	0	0	0	514	508	0	0	
4	0	0	0	0	515	507	0	0	
5	0	0	0	0	511	508	0	0	
6	0	0	0	0	508	509	0	0	
7	0	0	0	0	511	506	0	0	
8	0	0	0	0	507	507	0	0	
9	0	0	0	0	507	510	0	0	
10	0	0	0	0	511	506	0	0	
11	0	0	0	0	511	509	0	0	
12	0	0	0	0	515	510	0	0	
13	0	0	0	0	511	508	0	0	
14	0	0	0	0	509	508	0	0	
15	0	0	0	0	510	507	0	0	
0	0	0	0	0	511	507	0	0	
1	0	0	0	0	512	508	0	0	
2	0	0	0	0	508	508	0	0	
3	0	0	0	0	509	507	0	0	
4	0	0	0	0	511	507	0	0	
5	0	0	0	0	510	508	0	0	
6	0	0	0	0	509	509	0	0	
7	0	0	0	0	512	509	0	0	
8	0	0	0	0	511	508	0	0	
9	0	0	0	0	510	508	0	0	
10	0	0	0	0	512	506	0	0	
11	0	0	0	0	516	508	0	0	
12	0	0	0	0	514	507	0	0	
13	0	0	0	0	513	511	0	0	
14	0	0	0	0	511	508	0	0	
15	0	0	0	0	511	508	0	0	
0	0	0	0	0	505	508	0	0	
1	0	0	0	0	505	508	0	0	
2	0	0	0	0	504	507	0	0	
3	0	0	0	0	509	510	0	0	
4	0	0	0	0	509	508	0	0	
5	0	0	0	0	512	508	0	0	
6	0	0	0	0	524	508	0	0	
7	0	0	0	0	532	508	0	0	
8	0	0	0	0	525	510	0	0	
9	0	0	0	0	513	508	0	0	
10	0	0	0	0	505	507	1	0	
11	0	0	0	0	505	510	0	0	
12	0	0	0	0	505	511	0	0	
13	0	0	0	0	502	509	0	0	
14	0	0	0	0	506	510	0	0	
15	0	0	0	0	513	507	0	0	
0	0	0	0	0	515	508	0	0	
1	0	0	0	0	515	509	0	0	
2	0	0	0	0	519	505	0	0	
3	0	0	0	0	520	508	0	0	
4	0	0	0	0	513	508	0	0	
5	0	0	0	0	495	507	0	0	
6	0	0	0	0	507	508	0	0	
7	0	0	0	0	516	508	0	0	
8	0	0	0	0	512	508	0	0	
9	0	0	0	0	504	505	0	0	
10	0	0	0	0	509	508	0	0	
11	0	0	0	0	510	508	0	0	
12	0	0	0	0	510	507	0	0	
13	0	0	0	0	508	511	0	0	
14	0	0	0	0	507	506	0	0	
15	0	0	0	0	513	507	0	0	
0	0	0	0	0	516	508	0	0	
1	0	0	0	0	512	507	0	0	
2	0	0	0	0	511	507	0	0	
3	0	0	0	0	512	507	0	0	
4	0	0	0	0	512	507	0	0	
5	0	0	0	0	508	509	0	0	
6	0	0	0	0	508	509	0	0	
7	0	0	0	0	508	508	0	0	
8	0	0	0	0	511	508	0	0	
9	0	0	0	0	511	508	0	0	
10	0	0	0	0	509	508	0	0	
11	0	0	0	0	511	508	0	0	
12	0	0	0	0	509	508	0	0	
13	0	0	0	0	507	507	0	0	
14	0	0	0	0	504	506	0	0	
15	0	0	0	0	506	506	0	0	
0	0	0	0	0	507	507	0	0	
1	0	0	0	0	513	509	0	0	
2	0	0	0	0	518	510	0	0	
3	0	0	0	0	522	508	0	0	
4	0	0	0	0	524	507	0	0	
5	0	0	0	0	531	507	0	0	
6	0	0	0	0	519	507	0	0	
7	0	0	0	0	505	510	0	0	
8	0	0	0	0	494	507	0	0	
9	0	0	0	0	503	509	0	0	
10	0	0	0	0	504	508	0	0	
11	0	0	0	0	510	510	0	0	
12	0	0	0	0	508	511	0	0	
13	0	0	0	0	512	508	0	0	
14	0	0	0	0	515	508	0	0	
15	0	0	0	0	519	509	0	0	
0	0	0	0	0	519	508	0	0	
1	0	0	0	0	513	507	0	0	
2	0	0	0	0	505	508	0	0	
3	0	0	0	0	493	510	0	0	
4	0	0	0	0	499	508	0	0	
5	0	0	0	0	516	505	0	0	
6	0	0	0	0	516	508	0	0	
7	0	0	0	0	521	505	0	0	
8	0	0	0	0	519	507	0	0	
9	0	0	0	0	515	509	0	0	
10	0	0	0	0	512	510	0	0	
11	0	0	0	0	509	508	0	0	
12	0	0	0	0	507	508	0	0	
13	0	0	0	0	505	508	0	0	
14	0	0	0	0	506	505	0	0	
15	0	0	0	0	511	508	0	0	
0	0	0	0	0	509	505	0	0	
1	0	0	0	0	516	511	0	0	
2	0	0	0	0	517	509	0	0	
3	0	0	0	0	515	508	0	0	
4	0	0	0	0	522	508	0	0	
5	0	0	0	0	517	506	0	0	
6	0	0	0	0	511	508	0	0	
7	0	0	0	0	508	508	0	0	
8	0	0	0	0	510	508	0	0	
9	0	0	0	0	511	508	0	0	
10	0	0	0	0	507	508	1	0	
11	0	0	0	0	486	510	0	0	
12	0	0	0	0	504	508	0	0	
13	0	0	0	0	515	507	0	0	
14	0	0	0	0	506	507	0	0	
15	0	0	0	0	502	512	0	0	
0	0	0	0	0	504	509	0	0	
1	0	0	0	0	510	507	0	0	
2	0	0	0	0	524	506	0	0	
3	0	0	0	0	524	507	0	0	
4	0	0	0	0	520	508	0	0	
5	0	0	0	0	520	507	0	0	
6	0	0	0	0	515	508	0	0	
7	0	0	0	0	512	508	0	0	
8	0	0	0	0	513	507	0	0	
9	0	0	0	0	514	507	0	0	
10	0	0	0	0	510	508	0	0	
11	0	0	0	0	508	506	0	0	
12	0	0	0	0	511	508	0	0	
13	0	0	0	0	511	507	0	0	
14	0	0	0	0	507	510	0	0	
15	0	0	0	0	509	510	0	0	
0	0	0	0	0	499	507	0	0	
1	0	0	0	0	508	508	0	0	
2	0	0	0	0	508	508	0	0	
3	0	0	0	0	508	509	1	0	
4	0	0	0	0	508	510	0	0	
5	0	0	0	0	507	507	0	0	
6	0	0	0	0	509	509	0	0	
7	0	0	0	0	525	509	0	0	
8	0	0	0	0	522	507	0	0	
9	0	0	0	0	517	507	0	0	
10	0	0	0	0	515	505	0	0	
11	0	0	0	0	514	509	0	0	
12	0	0	0	0	514	507	0	0	
13	0	0	0	0	508	508	0	0	
14	0	0	0	0	505	509	0	0	
15	0	0	0	0	490	508	0	0	
0	0	0	0	0	507	507	0	0	
1	0	0	0	0	516	508	0	0	
2	0	0	0	0	514	509	0	0	
3	0	0	0	0	511	509	0	0	
4	0	0	0	0	504	507	0	0	
5	0	0	0	0	510	508	0	0	
6	0	0	0	0	512	506	0	0	
7	0	0	0	0	511	504	0	0	
8	0	0	0	0	516	509	0	0	
9	0	0	0	0	513	510	0	0	
10	0	0	0	0	518	509	0	0	
11	0	0	0	0	514	507	0	0	
12	0	0	0	0	506	508	0	0	
13	0	0	0	0	501	510	0	0	
14	0	0	0	0	510	508	0	0	
15	0	0	0	0	511	508	0	0	
0	0	0	0	0	512	509	0	0	
1	0	0	0	0	509	510	0	0	
2	0	0	0	0	511	508	0	0	
3	0	0	0	0	511	508	0	0	
4	0	0	0	0	508	507	0	0	
5	0	0	0	0	510	509	0	0	
6	0	0	0	0	519	509	0	0	
7	0	0	0	0	517	508	0	0	
8	0	0	0	0	516	507	0	0	
9	0	0	0	0	515	507	0	0	
10	0	0	0	0	512	509	0	0	
11	0	0	0	0	511	506	0	0	
12	0	0	0	0	511	510	0	0	
13	0	0	0	0	506	508	0	0	
14	0	0	0	0	504	510	0	0	
15	0	0	0	0	510	509	0	0	
0	0	0	0	0	508	508	0	0	
1	0	0	0	0	513	509	0	0	
2	0	0	0	0	513	506	0	0	
3	0	0	0	0	517	508	0	0	
4	0	0	0	0	520	511	0	0	
5	0	0	0	0	516	509	0	0	
6	0	0	0	0	510	509	0	0	
7	0	0	0	0	509	506	0	0	
8	0	0	0	0	508	507	0	0	
9	0	0	0	0	510	508	0	0	
10	0	0	0	0	513	510	0	0	
11	0	0	0	0	511	510	0	0	
12	0	0	0	0	515	506	0	0	
13	0	0	0	0	516	503	0	0	
14	0	0	0	0	512	509	0	0	
15	0	0	0	0	502	510	0	0	
0	0	0	0	0	501	508	0	0	
1	0	0	0	0	497	508	0	0	
2	0	0	0	0	500	510	0	0	
3	0	0	0	0	506	507	0	0	
4	0	0	0	0	513	507	0	0	
5	0	0	0	0	519	508	0	0	
6	0	0	0	0	523	505	0	0	
7	0	0	0	0	525	507	0	0	
8	0	0	0	0	532	510	0	0	
9	0	0	0	0	518	508	0	0	
10	0	0	0	0	511	509	0	0	
11	0	0	0	0	504	507	0	0	
12	0	0	0	0	500	508	0	0	
13	0	0	0	0	494	508	0	0	
14	0	0	0	0	512	511	0	0	
15	0	0	0	0	514	507	0	0	
0	0	0	0	0	511	506	0	0	
1	0	0	0	0	516	509	0	0	
2	0	0	0	0	512	509	0	0	
3	0	0	0	0	511	509	0	0	
4	0	0	0	0	499	510	0	0	
5	0	0	0	0	499	508	0	0	
6	0	0	0	0	507	508	0	0	
7	0	0	0	0	509	509	0	0	
8	0	0	0	0	507	507	0	0	
9	0	0	0	0	510	507	0	0	
10	0	0	0	0	507	507	0	0	
11	0	0	0	0	514	506	0	0	
12	0	0	0	0	521	509	0	0	
13	0	0	0	0	519	507	0	0	
14	0	0	0	0	519	507	0	0	
15	0	0	0	0	521	508	0	0	
0	0	0	0	0	519	508	0	0	
1	0	0	0	0	513	509	0	0	
2	0	0	0	0	507	509	0	0	
3	0	0	0	0	499	508	0	0	
4	0	0	0	0	504	509	0	0	
5	0	0	0	0	507	508	0	0	
6	0	0	0	0	508	508	0	0	
7	0	0	0	0	514	506	0	0	
8	0	0	0	0	516	508	0	0	
9	0	0	0	0	515	507	0	0	
10	0	0	0	0	513	510	0	0	
11	0	0	0	0	502	508	0	0	
12	0	0	0	0	511	509	1	0	
13	0	0	0	0	514	505	0	0	
14	0	0	0	0	511	507	0	0	
15	0	0	0	0	508	506	0	0	
0	0	0	0	0	509	509	0	0	
1	0	0	0	0	512	507	0	0	
2	0	0	0	0	499	507	0	0	
3	0	0	0	0	498	506	0	0	
4	0	0	0	0	507	508	0	0	
5	0	0	0	0	515	508	0	0	
6	0	0	0	0	516	510	0	0	
7	0	0	0	0	514	510	0	0	
8	0	0	0	0	513	507	0	0	
9	0	0	0	0	512	507	0	0	
10	0	0	0	0	511	508	0	0	
11	0	0	0	0	509	510	0	0	
12	0	0	0	0	511	510	0	0	
13	0	0	0	0	511	507	0	0	
14	0	0	0	0	510	508	0	0	
15	0	0	0	0	513	508	0	0	
0	0	0	0	0	514	506	1	0	
1	0	0	0	0	515	508	0	0	
2	0	0	0	0	515	509	0	0	
3	0	0	0	0	512	509	0	0	
4	0	0	0	0	515	507	0	0	
5	0	0	0	0	512	507	0	0	
6	0	0	0	0	509	509	0	0	
7	0	0	0	0	508	507	0	0	
8	0	0	0	0	508	511	0	0	
9	0	0	0	0	512	510	0	0	
10	0	0	0	0	509	510	0	0	
11	0	0	0	0	507	508	0	0	
12	0	0	0	0	509	508	0	0	
13	0	0	0	0	511	506	0	0	
14	0	0	0	0	514	509	0	0	
15	0	0	0	0	517	509	0	0	
0	0	0	0	0	512	506	0	0	
1	0	0	0	0	511	508	0	0	
2	0	0	0	0	514	508	0	0	
3	0	0	0	0	515	508	0	0	
4	0	0	0	0	510	508	0	0	
5	0	0	0	0	510	506	0	0	
6	0	0	0	0	508	507	0	0	
7	0	0	0	0	509	508	0	0	
8	0	0	0	0	509	512	0	0	
9	0	0	0	0	507	505	1	0	
10	0	0	0	0	508	509	0	0	
11	0	0	0	0	508	509	0	0	
12	0	0	0	0	509	510	0	0	
13	0	0	0	0	508	509	0	0	
14	0	0	0	0	511	508	0	0	
15	0	0	0	0	511	509	0	0	
0	0	0	0	0	516	511	0	0	
1	0	0	0	0	513	507	0	0	
2	0	0	0	0	507	510	0	0	
3	0	0	0	0	506	505	0	0	
4	0	0	0	0	510	508	0	0	
5	0	0	0	0	517	506	0	0	
6	0	0	0	0	519	508	0	0	
7	0	0	0	0	519	510	0	0	
8	0	0	0	0	521	507	0	0	
9	0	0	0	0	519	508	0	0	
10	0	0	0	0	518	508	0	0	
11	0	0	0	0	512	511	0	0	
12	0	0	0	0	500	508	0	0	
13	0	0	0	0	494	508	0	0	
14	0	0	0	0	507	508	0	0	
15	0	0	0	0	508	508	0	0	
0	0	0	0	0	508	509	0	0	
1	0	0	0	0	509	507	0	0	
2	0	0	0	0	512	510	0	0	
3	0	0	0	0	509	506	0	0	
4	0	0	0	0	507	508	0	0	
5	0	0	0	0	508	509	0	0	
6	0	0	0	0	507	510	0	0	
7	0	0	0	0	511	508	0	0	
8	0	0	0	0	511	508	0	0	
9	0	0	0	0	511	507	0	0	
10	0	0	0	0	509	510	0	0	
11	0	0	0	0	511	508	0	0	
12	0	0	0	0	512	507	0	0	
13	0	0	0	0	516	506	0	0	
14	0	0	0	0	513	507	0	0	
15	0	0	0	0	513	508	0	0	
0	0	0	0	0	515	508	0	0	
1	0	0	0	0	515	507	0	0	
2	0	0	0	0	505	508	0	0	
3	0	0	0	0	509	506	0	0	
4	0	0	0	0	515	507	0	0	
5	0	0	0	0	514	509	0	0	
6	0	0	0	0	511	509	0	0	
7	0	0	0	0	510	508	0	0	
8	0	0	0	0	514	508	0	0	
9	0	0	0	0	515	509	0	0	
10	0	0	0	0	513	508	0	0	
11	0	0	0	0	511	506	0	0	
12	0	0	0	0	496	508	0	0	
13	0	0	0	0	500	508	0	0	
14	0	0	0	0	502	508	0	0	
15	0	0	0	0	503	509	0	0	
0	0	0	0	0	508	510	0	0	
1	0	0	0	0	514	508	0	0	
2	0	0	0	0	521	507	0	0	
3	0	0	0	0	520	506	0	0	
4	0	0	0	0	514	511	0	0	
5	0	0	0	0	509	510	0	0	
6	0	0	0	0	499	507	0	0	
7	0	0	0	0	499	506	0	0	
8	0	0	0	0	512	510	0	0	
9	0	0	0	0	512	509	0	0	
10	0	0	0	0	518	506	0	0	
11	0	0	0	0	515	508	0	0	
12	0	0	0	0	514	506	0	0	
13	0	0	0	0	525	508	0	0	
14	0	0	0	0	516	510	0	0	
15	0	0	0	0	515	508	0	0	
0	0	0	0	0	515	510	0	0	
1	0	0	0	0	508	510	0	0	
2	0	0	0	0	510	508	0	0	
3	0	0	0	0	503	509	0	0	
4	0	0	0	0	504	507	1	0	
5	0	0	0	0	506	509	0	0	
6	0	0	0	0	506	510	0	0	
7	0	0	0	0	510	509	0	0	
8	0	0	0	0	513	508	0	0	
9	0	0	0	0	516	509	0	0	
10	0	0	0	0	515	510	0	0	
11	0	0	0	0	509	506	0	0	
12	0	0	0	0	508	508	0	0	
13	0	0	0	0	510	506	0	0	
14	0	0	0	0	511	508	0	0	
15	0	0	0	0	511	508	0	0	
0	0	0	0	0	512	508	0	0	
1	0	0	0	0	509	508	0	0	
2	0	0	0	0	510	507	0	0	
3	0	0	0	0	510	509	0	0	
4	0	0	0	0	512	508	0	0	
5	0	0	0	0	512	507	0	0	
6	0	0	0	0	507	507	0	0	
7	0	0	0	0	508	508	0	0	
8	0	0	0	0	512	510	0	0	
9	0	0	0	0	515	508	0	0	
10	0	0	0	0	515	508	0	0	
11	0	0	0	0	519	507	0	0	
12	0	0	0	0	516	508	0	0	
13	0	0	0	0	505	510	0	0	
14	0	0	0	0	511	510	0	0	
15	0	0	0	0	508	509	0	0	
0	0	0	0	0	507	507	0	0	
1	0	0	0	0	507	508	0	0	
2	0	0	0	0	507	506	0	0	
3	0	0	0	0	510	508	0	0	
4	0	0	0	0	514	509	0	0	
5	0	0	0	0	516	507	0	0	
6	0	0	0	0	511	508	0	0	
7	0	0	0	0	508	509	0	0	
8	0	0	0	0	509	508	0	0	
9	0	0	0	0	512	507	0	0	
10	0	0	0	0	517	507	0	0	
11	0	0	0	0	521	509	0	0	
12	0	0	0	0	526	508	0	0	
13	0	0	0	0	517	507	0	0	
14	0	0	0	0	508	507	0	0	
15	0	0	0	0	509	507	0	0	
0	0	0	0	0	495	508	0	0	
1	0	0	0	0	496	508	0	0	
2	0	0	0	0	508	509	0	0	
3	0	0	0	0	511	506	0	0	
4	0	0	0	0	516	508	0	0	
5	0	0	0	0	513	508	0	0	
6	0	0	0	0	513	509	0	0	
7	0	0	0	0	512	509	0	0	
8	0	0	0	0	516	507	0	0	
9	0	0	0	0	518	507	0	0	
10	0	0	0	0	517	510	0	0	
11	0	0	0	0	518	505	1	0	
12	0	0	0	0	499	509	0	0	
13	0	0	0	0	501	509	0	0	
14	0	0	0	0	508	508	0	0	
15	0	0	0	0	509	509	0	0	
0	0	0	0	0	513	508	0	0	
1	0	0	0	0	518	506	0	0	
2	0	0	0	0	512	507	0	0	
3	0	0	0	0	508	508	0	0	
4	0	0	0	0	510	508	0	0	
5	0	0	0	0	514	508	0	0	
6	0	0	0	0	518	507	0	0	
7	0	0	0	0	515	506	0	0	
8	0	0	0	0	506	507	0	0	
9	0	0	0	0	505	509	0	0	
10	0	0	0	0	508	507	0	0	
11	0	0	0	0	507	508	0	0	
12	0	0	0	0	510	511	0	0	
13	0	0	0	0	512	511	0	0	
14	0	0	0	0	514	509	0	0	
15	0	0	0	0	516	512	0	0	
0	0	0	0	0	511	508	0	0	
1	0	0	0	0	510	507	0	0	
2	0	0	0	0	510	507	0	0	
3	0	0	0	0	515	510	0	0	
4	0	0	0	0	516	508	0	0	
5	0	0	0	0	511	508	0	0	
6	0	0	0	0	505	508	0	0	
7	0	0	0	0	505	508	0	0	
8	0	0	0	0	508	506	0	0	
9	0	0	0	0	510	508	0	0	
10	0	0	0	0	511	508	0	0	
11	0	0	0	0	513	507	0	0	
12	0	0	0	0	514	508	0	0	
13	0	0	0	0	512	507	0	0	
14	0	0	0	0	510	508	0	0	
15	0	0	0	0	512	508	0	0	
0	0	0	0	0	509	506	0	0	
1	0	0	0	0	511	506	0	0	
2	0	0	0	0	511	508	0	0	
3	0	0	0	0	512	508	0	0	
4	0	0	0	0	511	507	0	0	
5	0	0	0	0	511	509	0	0	
6	0	0	0	0	497	508	0	0	
7	0	0	0	0	507	507	0	0	
8	0	0	0	0	512	512	0	0	
9	0	0	0	0	508	509	0	0	
10	0	0	0	0	504	508	0	0	
11	0	0	0	0	502	510	0	0	
12	0	0	0	0	518	511	0	0	
13	0	0	0	0	526	509	0	0	
14	0	0	0	0	525	508	0	0	
15	0	0	0	0	519	507	0	0	
0	0	0	0	0	513	509	0	0	
1	0	0	0	0	510	508	0	0	
2	0	0	0	0	510	509	0	0	
3	0	0	0	0	510	508	0	0	
4	0	0	0	0	512	508	0	0	
5	0	0	0	0	512	508	0	0	
6	0	0	0	0	512	506	0	0	
7	0	0	0	0	513	509	0	0	
8	0	0	0	0	510	507	0	0	
9	0	0	0	0	509	507	0	0	
10	0	0	0	0	508	508	0	0	
11	0	0	0	0	508	508	0	0	
12	0	0	0	0	510	506	0	0	
13	0	0	0	0	511	510	0	0	
14	0	0	0	0	510	507	0	0	
15	0	0	0	0	511	508	0	0	
0	0	0	0	0	513	508	0	0	
1	0	0	0	0	512	507	0	0	
2	0	0	0	0	507	507	0	0	
3	0	0	0	0	499	507	0	0	
4	0	0	0	0	508	507	0	0	
5	0	0	0	0	513	507	0	0	
6	0	0	0	0	518	507	1	0	
7	0	0	0	0	516	508	0	0	
8	0	0	0	0	518	508	0	0	
9	0	0	0	0	516	507	0	0	
10	0	0	0	0	516	509	0	0	
11	0	0	0	0	523	509	0	0	
12	0	0	0	0	519	509	0	0	
13	0	0	0	0	517	508	0	0	
14	0	0	0	0	497	510	0	0	
15	0	0	0	0	502	508	0	0	
0	0	0	0	0	496	509	0	0	
1	0	0	0	0	499	508	0	0	
2	0	0	0	0	511	507	0	0	
3	0	0	0	0	515	507	0	0	
4	0	0	0	0	520	508	0	0	
5	0	0	0	0	511	508	0	0	
6	0	0	0	0	510	509	0	0	
7	0	0	0	0	508	511	0	0	
8	0	0	0	0	508	508	0	0	
9	0	0	0	0	510	507	0	0	
10	0	0	0	0	514	510	0	0	
11	0	0	0	0	517	509	0	0	
12	0	0	0	0	518	509	0	0	
13	0	0	0	0	526	507	0	0	
14	0	0	0	0	516	507	0	0	
15	0	0	0	0	514	507	1	0	
0	0	0	0	0	511	508	0	0	
1	0	0	0	0	508	508	0	0	
2	0	0	0	0	508	506	0	0	
3	0	0	0	0	512	508	0	0	
4	0	0	0	0	507	508	0	0	
5	0	0	0	0	508	509	0	0	
6	0	0	0	0	507	508	0	0	
7	0	0	0	0	505	507	0	0	
8	0	0	0	0	507	509	0	0	
9	0	0	0	0	505	508	0	0	
10	0	0	0	0	495	508	0	0	
11	0	0	0	0	507	505	0	0	
12	0	0	0	0	511	509	0	0	
13	0	0	0	0	515	510	0	0	
14	0	0	0	0	512	507	0	0	
15	0	0	0	0	510	508	0	0	
0	0	0	0	0	514	507	0	0	
1	0	0	0	0	516	508	0	0	
2	0	0	0	0	511	508	0	0	
3	0	0	0	0	524	509	0	0	
4	0	0	0	0	519	508	0	0	
5	0	0	0	0	513	508	0	0	
6	0	0	0	0	509	508	0	0	
7	0	0	0	0	507	510	0	0	
8	0	0	0	0	507	509	1	0	
9	0	0	0	0	506	510	0	0	
10	0	0	0	0	502	508	0	0	
11	0	0	0	0	507	510	0	0	
12	0	0	0	0	512	508	0	0	
13	0	0	0	0	515	507	0	0	
14	0	0	0	0	513	506	0	0	
15	0	0	0	0	510	506	0	0	
0	0	0	0	0	514	507	0	0	
1	0	0	0	0	514	507	0	0	
2	0	0	0	0	515	508	0	0	
3	0	0	0	0	516	510	0	0	
4	0	0	0	0	513	508	0	0	
5	0	0	0	0	509	506	0	0	
6	0	0	0	0	498	509	0	0	
7	0	0	0	0	510	508	0	0	
8	0	0	0	0	521	508	0	0	
9	0	0	0	0	516	508	0	0	
10	0	0	0	0	513	508	0	0	
11	0	0	0	0	513	509	0	0	
12	0	0	0	0	509	508	0	0	
13	0	0	0	0	510	511	0	0	
14	0	0	0	0	507	510	0	0	
15	0	0	0	0	510	509	0	0	
0	0	0	0	0	509	508	0	0	
1	0	0	0	0	509	507	1	0	
2	0	0	0	0	514	508	0	0	
3	0	0	0	0	515	508	0	0	
4	0	0	0	0	512	509	0	0	
5	0	0	0	0	510	508	0	0	
6	0	0	0	0	499	508	0	0	
7	0	0	0	0	507	510	0	0	
8	0	0	0	0	515	506	0	0	
9	0	0	0	0	514	504	0	0	
10	0	0	0	0	504	507	0	0	
11	0	0	0	0	514	507	0	0	
12	0	0	0	0	520	511	0	0	
13	0	0	0	0	516	507	0	0	
14	0	0	0	0	513	505	0	0	
15	0	0	0	0	511	507	0	0	
0	0	0	0	0	509	508	0	0	
1	0	0	0	0	502	508	0	0	
2	0	0	0	0	496	509	0	0	
3	0	0	0	0	510	508	0	0	
4	0	0	0	0	512	508	0	0	
5	0	0	0	0	510	506	0	0	
6	0	0	0	0	513	509	0	0	
7	0	0	0	0	511	507	0	0	
8	0	0	0	0	511	509	0	0	
9	0	0	0	0	508	510	0	0	
10	0	0	0	0	511	505	0	0	
11	0	0	0	0	514	508	0	0	
12	0	0	0	0	508	507	0	0	
13	0	0	0	0	510	508	0	0	
14	0	0	0	0	513	509	0	0	
15	0	0	0	0	518	508	0	0	
0	0	0	0	0	515	508	0	0	
1	0	0	0	0	517	509	0	0	
2	0	0	0	0	513	508	0	0	
3	0	0	0	0	512	508	0	0	
4	0	0	0	0	515	507	0	0	
5	0	0	0	0	517	508	0	0	
6	0	0	0	0	519	507	0	0	
7	0	0	0	0	518	509	0	0	
8	0	0	0	0	515	508	0	0	
9	0	0	0	0	507	507	0	0	
10	0	0	0	0	504	508	0	0	
11	0	0	0	0	488	508	0	0	
12	0	0	0	0	500	507	0	0	
13	0	0	0	0	509	510	0	0	
14	0	0	0	0	511	510	0	0	
15	0	0	0	0	506	507	0	0	
0	0	0	0	0	506	509	0	0	
1	0	0	0	0	505	508	0	0	
2	0	0	0	0	511	508	0	0	
3	0	0	0	0	512	507	0	0	
4	0	0	0	0	520	509	0	0	
5	0	0	0	0	526	508	0	0	
6	0	0	0	0	518	507	0	0	
7	0	0	0	0	510	509	0	0	
8	0	0	0	0	510	508	0	0	
9	0	0	0	0	513	508	0	0	
10	0	0	0	0	511	507	0	0	
11	0	0	0	0	511	508	0	0	
12	0	0	0	0	509	507	0	0	
13	0	0	0	0	509	511	0	0	
14	0	0	0	0	510	509	0	0	
15	0	0	0	0	509	508	0	0	
0	0	0	0	0	510	507	0	0	
1	0	0	0	0	508	506	0	0	
2	0	0	0	0	511	508	0	0	
3	0	0	0	0	513	508	0	0	
4	0	0	0	0	512	507	0	0	
5	0	0	0	0	511	508	0	0	
6	0	0	0	0	508	511	0	0	
7	0	0	0	0	511	510	0	0	
8	0	0	0	0	507	507	0	0	
9	0	0	0	0	508	506	0	0	
10	0	0	0	0	515	509	0	0	
11	0	0	0	0	515	508	0	0	
12	0	0	0	0	515	510	0	0	
13	0	0	0	0	512	509	0	0	
14	0	0	0	0	502	508	0	0	
15	0	0	0	0	510	507	0	0	
0	0	0	0	0	513	507	0	0	
1	0	0	0	0	511	507	0	0	
2	0	0	0	0	506	508	0	0	
3	0	0	0	0	497	509	0	0	
4	0	0	0	0	508	508	0	0	
5	0	0	0	0	518	508	0	0	
6	0	0	0	0	523	509	0	0	
7	0	0	0	0	516	510	0	0	
8	0	0	0	0	512	505	0	0	
9	0	0	0	0	499	508	0	0	
10	0	0	0	0	518	508	0	0	
11	0	0	0	0	518	507	0	0	
12	0	0	0	0	511	508	0	0	
13	0	0	0	0	510	505	0	0	
14	0	0	0	0	515	511	0	0	
15	0	0	0	0	519	510	0	0	
0	0	0	0	0	515	505	0	0	
1	0	0	0	0	513	507	0	0	
2	0	0	0	0	507	507	0	0	
3	0	0	0	0	506	509	0	0	
4	0	0	0	0	510	509	0	0	
5	0	0	0	0	505	508	1	0	
6	0	0	0	0	506	511	0	0	
7	0	0	0	0	511	508	0	0	
8	0	0	0	0	515	509	0	0	
9	0	0	0	0	517	509	0	0	
10	0	0	0	0	517	508	0	0	
11	0	0	0	0	512	509	0	0	
12	0	0	0	0	509	508	0	0	
13	0	0	0	0	509	505	0	0	
14	0	0	0	0	507	507	0	0	
15	0	0	0	0	508	510	0	0	
0	0	0	0	0	508	508	0	0	
1	0	0	0	0	505	505	0	0	
2	0	0	0	0	507	508	0	0	
3	0	0	0	0	508	506	0	0	
4	0	0	0	0	508	507	0	0	
5	0	0	0	0	508	507	0	0	
6	0	0	0	0	511	508	0	0	
7	0	0	0	0	519	508	0	0	
8	0	0	0	0	517	510	0	0	
9	0	0	0	0	512	508	0	0	
10	0	0	0	0	514	508	0	0	
11	0	0	0	0	511	508	0	0	
12	0	0	0	0	506	509	0	0	
13	0	0	0	0	509	510	0	0	
14	0	0	0	0	512	510	0	0	
15	0	0	0	0	509	510	0	0	
0	0	0	0	0	510	510	0	0	
1	0	0	0	0	510	509	0	0	
2	0	0	0	0	511	508	0	0	
3	0	0	0	0	510	510	0	0	
4	0	0	0	0	510	508	0	0	
5	0	0	0	0	510	507	0	0	
6	0	0	0	0	511	508	0	0	
7	0	0	0	0	515	507	0	0	
8	0	0	0	0	513	508	0	0	
9	0	0	0	0	512	507	0	0	
10	0	0	0	0	511	506	0	0	
11	0	0	0	0	510	507	0	0	
12	0	0	0	0	512	508	0	0	
13	0	0	0	0	515	510	0	0	
14	0	0	0	0	515	510	0	0	
15	0	0	0	0	512	508	0	0	
0	0	0	0	0	513	507	0	0	
1	0	0	0	0	514	506	0	0	
2	0	0	0	0	507	508	0	0	
3	0	0	0	0	501	510	0	0	
4	0	0	0	0	491	507	0	0	
5	0	0	0	0	503	508	0	0	
6	0	0	0	0	515	508	0	0	
7	0	0	0	0	524	508	0	0	
8	0	0	0	0	518	509	0	0	
9	0	0	0	0	513	510	0	0	
10	0	0	0	0	515	509	0	0	
11	0	0	0	0	517	509	0	0	
12	0	0	0	0	512	510	0	0	
13	0	0	0	0	509	507	0	0	
14	0	0	0	0	511	510	0	0	
15	0	0	0	0	508	507	0	0	
0	0	0	0	0	507	509	0	0	
1	0	0	0	0	509	508	1	0	
2	0	0	0	0	511	507	0	0	
3	0	0	0	0	513	508	0	0	
4	0	0	0	0	514	509	0	0	
5	0	0	0	0	521	509	0	0	
6	0	0	0	0	517	506	0	0	
7	0	0	0	0	511	510	0	0	
8	0	0	0	0	511	507	0	0	
9	0	0	0	0	510	507	0	0	
10	0	0	0	0	509	508	0	0	
11	0	0	0	0	508	508	0	0	
12	0	0	0	0	508	508	0	0	
13	0	0	0	0	509	505	0	0	
14	0	0	0	0	513	507	0	0	
15	0	0	0	0	512	508	0	0	
0	0	0	0	0	512	508	0	0	
1	0	0	0	0	506	505	0	0	
2	0	0	0	0	497	509	0	0	
3	0	0	0	0	499	509	0	0	
4	0	0	0	0	508	511	0	0	
5	0	0	0	0	515	509	0	0	
6	0	0	0	0	513	508	0	0	
7	0	0	0	0	515	505	0	0	
8	0	0	0	0	517	508	0	0	
9	0	0	0	0	522	509	0	0	
10	0	0	0	0	517	508	0	0	
11	0	0	0	0	519	507	0	0	
12	0	0	0	0	518	508	0	0	
13	0	0	0	0	508	509	0	0	
14	0	0	0	0	499	509	0	0	
15	0	0	0	0	480	509	0	0	
0	0	0	0	0	498	508	0	0	
1	0	0	0	0	510	509	0	0	
2	0	0	0	0	515	507	0	0	
3	0	0	0	0	519	509	0	0	
4	0	0	0	0	528	510	0	0	
5	0	0	0	0	517	509	0	0	
6	0	0	0	0	510	505	0	0	
7	0	0	0	0	510	508	0	0	
8	0	0	0	0	511	506	0	0	
9	0	0	0	0	513	508	0	0	
10	0	0	0	0	514	507	0	0	
11	0	0	0	0	514	508	0	0	
12	0	0	0	0	510	508	0	0	
13	0	0	0	0	505	507	0	0	
14	0	0	0	0	508	508	0	0	
15	0	0	0	0	508	506	0	0	
0	0	0	0	0	512	508	0	0	
1	0	0	0	0	514	508	0	0	
2	0	0	0	0	518	510	0	0	
3	0	0	0	0	521	509	0	0	
4	0	0	0	0	523	509	0	0	
5	0	0	0	0	514	508	0	0	
6	0	0	0	0	510	509	0	0	
7	0	0	0	0	510	507	0	0	
8	0	0	0	0	508	506	1	0	
9	0	0	0	0	507	510	0	0	
10	0	0	0	0	508	506	0	0	
11	0	0	0	0	504	507	0	0	
12	0	0	0	0	504	507	0	0	
13	0	0	0	0	510	508	0	0	
14	0	0	0	0	511	508	0	0	
15	0	0	0	0	509	506	0	0	
0	0	0	0	0	511	509	0	0	
1	0	0	0	0	515	511	0	0	
2	0	0	0	0	517	508	0	0	
3	0	0	0	0	519	508	0	0	
4	0	0	0	0	518	505	0	0	
5	0	0	0	0	512	506	0	0	
6	0	0	0	0	517	509	0	0	
7	0	0	0	0	509	509	0	0	
8	0	0	0	0	512	510	0	0	
9	0	0	0	0	506	507	0	0	
10	0	0	0	0	497	508	0	0	
11	0	0	0	0	504	509	0	0	
12	0	0	0	0	512	508	0	0	
13	0	0	0	0	508	508	0	0	
14	0	0	0	0	503	507	0	0	
15	0	0	0	0	502	509	0	0	
0	0	0	0	0	513	507	0	0	
1	0	0	0	0	516	508	0	0	
2	0	0	0	0	504	508	0	0	
3	0	0	0	0	500	508	0	0	
4	0	0	0	0	515	508	0	0	
5	0	0	0	0	515	509	0	0	
6	0	0	0	0	514	509	0	0	
7	0	0	0	0	511	509	0	0	
8	0	0	0	0	509	508	0	0	
9	0	0	0	0	515	508	0	0	
10	0	0	0	0	514	508	0	0	
11	0	0	0	0	515	507	0	0	
12	0	0	0	0	514	507	0	0	
13	0	0	0	0	513	507	0	0	
14	0	0	0	0	516	510	0	0	
15	0	0	0	0	514	509	0	0	
0	0	0	0	0	508	508	0	0	
1	0	0	0	0	514	508	0	0	
2	0	0	0	0	514	507	0	0	
3	0	0	0	0	510	506	0	0	
4	0	0	0	0	505	508	0	0	
5	0	0	0	0	509	511	0	0	
6	0	0	0	0	511	508	0	0	
7	0	0	0	0	511	508	0	0	
8	0	0	0	0	513	508	0	0	
9	0	0	0	0	516	508	0	0	
10	0	0	0	0	516	508	0	0	
11	0	0	0	0	509	510	0	0	
12	0	0	0	0	508	508	0	0	
13	0	0	0	0	510	510	0	0	
14	0	0	0	0	512	510	0	0	
15	0	0	0	0	511	508	0	0	
0	0	0	0	0	508	507	0	0	
1	0	0	0	0	506	507	0	0	
2	0	0	0	0	509	508	0	0	
3	0	0	0	0	509	508	0	0	
4	0	0	0	0	507	508	0	0	
5	0	0	0	0	508	507	0	0	
6	0	0	0	0	512	510	0	0	
7	0	0	0	0	516	507	0	0	
8	0	0	0	0	515	508	0	0	
9	0	0	0	0	515	509	0	0	
10	0	0	0	0	512	507	0	0	
11	0	0	0	0	508	508	0	0	
12	0	0	0	0	505	508	0	0	
13	0	0	0	0	511	508	0	0	
14	0	0	0	0	511	511	0	0	
15	0	0	0	0	509	508	0	0	
0	0	0	0	0	510	508	0	0	
1	0	0	0	0	511	512	0	0	
2	0	0	0	0	519	509	0	0	
3	0	0	0	0	517	506	0	0	
4	0	0	0	0	517	509	0	0	
5	0	0	0	0	512	507	0	0	
6	0	0	0	0	506	508	0	0	
7	0	0	0	0	502	510	0	0	
8	0	0	0	0	515	508	0	0	
9	0	0	0	0	520	508	0	0	
10	0	0	0	0	519	509	0	0	
11	0	0	0	0	514	508	0	0	
12	0	0	0	0	513	507	0	0	
13	0	0	0	0	513	508	0	0	
14	0	0	0	0	492	508	0	0	
15	0	0	0	0	498	507	0	0	
0	0	0	0	0	513	508	0	0	
1	0	0	0	0	518	507	0	0	
2	0	0	0	0	515	508	0	0	
3	0	0	0	0	515	508	0	0	
4	0	0	0	0	512	510	0	0	
5	0	0	0	0	504	508	0	0	
6	0	0	0	0	511	509	0	0	
7	0	0	0	0	512	508	0	0	
8	0	0	0	0	512	508	0	0	
9	0	0	0	0	508	507	0	0	
10	0	0	0	0	511	511	0	0	
11	0	0	0	0	510	510	0	0	
12	0	0	0	0	512	507	0	0	
13	0	0	0	0	512	507	0	0	
14	0	0	0	0	507	508	0	0	
15	0	0	0	0	511	508	0	0	
0	0	0	0	0	513	509	0	0	
1	0	0	0	0	512	507	0	0	
2	0	0	0	0	513	508	0	0	
3	0	0	0	0	511	506	0	0	
4	0	0	0	0	511	508	0	0	
5	0	0	0	0	510	509	0	0	
6	0	0	0	0	513	507	0	0	
7	0	0	0	0	510	505	0	0	
8	0	0	0	0	510	506	0	0	
9	0	0	0	0	509	508	0	0	
10	0	0	0	0	509	508	0	0	
11	0	0	0	0	511	508	0	0	
12	0	0	0	0	511	509	0	0	
13	0	0	0	0	510	509	0	0	
14	0	0	0	0	512	507	0	0	
15	0	0	0	0	515	507	0	0	
0	0	0	0	0	511	507	1	0	
1	0	0	0	0	511	509	0	0	
2	0	0	0	0	511	509	0	0	
3	0	0	0	0	511	509	0	0	
4	0	0	0	0	509	508	0	0	
5	0	0	0	0	513	508	0	0	
6	0	0	0	0	513	510	0	0	
7	0	0	0	0	512	507	0	0	
8	0	0	0	0	514	508	0	0	
9	0	0	0	0	514	510	0	0	
10	0	0	0	0	515	508	0	0	
11	0	0	0	0	509	507	0	0	
12	0	0	0	0	503	506	0	0	
13	0	0	0	0	495	506	0	0	
14	0	0	0	0	511	510	0	0	
15	0	0	0	0	513	507	0	0	
0	0	0	0	0	511	507	0	0	
1	0	0	0	0	509	508	0	0	
2	0	0	0	0	510	506	0	0	
3	0	0	0	0	512	508	0	0	
4	0	0	0	0	512	506	0	0	
5	0	0	0	0	514	509	0	0	
6	0	0	0	0	506	506	0	0	
7	0	0	0	0	510	510	0	0	
8	0	0	0	0	515	507	0	0	
9	0	0	0	0	511	507	0	0	
10	0	0	0	0	519	511	0	0	
11	0	0	0	0	513	510	0	0	
12	0	0	0	0	515	508	0	0	
13	0	0	0	0	510	508	0	0	
14	0	0	0	0	506	508	0	0	
15	0	0	0	0	510	508	0	0	
0	0	0	0	0	508	509	0	0	
1	0	0	0	0	505	507	0	0	
2	0	0	0	0	509	507	0	0	
3	0	0	0	0	510	511	0	0	
4	0	0	0	0	512	508	0	0	
5	0	0	0	0	515	508	0	0	
6	0	0	0	0	517	509	0	0	
7	0	0	0	0	515	508	0	0	
8	0	0	0	0	515	508	0	0	
9	0	0	0	0	518	508	0	0	
10	0	0	0	0	516	505	0	0	
11	0	0	0	0	511	507	0	0	
12	0	0	0	0	499	508	0	0	
13	0	0	0	0	502	509	0	0	
14	0	0	0	0	507	508	0	0	
15	0	0	0	0	511	505	0	0	
0	0	0	0	0	513	508	0	0	
1	0	0	0	0	515	508	0	0	
2	0	0	0	0	513	509	0	0	
3	0	0	0	0	512	507	0	0	
4	0	0	0	0	516	507	0	0	
5	0	0	0	0	516	509	0	0	
6	0	0	0	0	505	509	0	0	
7	0	0	0	0	506	507	0	0	
8	0	0	0	0	515	508	0	0	
9	0	0	0	0	505	506	0	0	
10	0	0	0	0	505	509	0	0	
11	0	0	0	0	509	510	0	0	
12	0	0	0	0	504	508	0	0	
13	0	0	0	0	503	508	0	0	
14	0	0	0	0	495	510	0	0	
15	0	0	0	0	517	508	0	0	
0	0	0	0	0	523	508	0	0	
1	0	0	0	0	526	508	0	0	
2	0	0	0	0	519	507	0	0	
3	0	0	0	0	512	509	0	0	
4	0	0	0	0	511	508	0	0	
5	0	0	0	0	498	508	0	0	
6	0	0	0	0	510	507	0	0	
7	0	0	0	0	513	508	0	0	
8	0	0	0	0	511	506	0	0	
9	0	0	0	0	513	508	0	0	
10	0	0	0	0	512	508	0	0	
11	0	0	0	0	508	509	0	0	
12	0	0	0	0	512	509	0	0	
13	0	0	0	0	515	507	0	0	
14	0	0	0	0	512	508	0	0	
15	0	0	0	0	512	508	0	0	
0	0	0	0	0	512	508	0	0	
1	0	0	0	0	514	508	0	0	
2	0	0	0	0	510	507	0	0	
3	0	0	0	0	512	508	0	0	
4	0	0	0	0	515	508	0	0	
5	0	0	0	0	512	508	0	0	
6	0	0	0	0	512	508	0	0	
7	0	0	0	0	508	507	0	0	
8	0	0	0	0	508	508	0	0	
9	0	0	0	0	509	509	0	0	
10	0	0	0	0	506	509	0	0	
11	0	0	0	0	505	510	0	0	
12	0	0	0	0	506	508	0	0	
13	0	0	0	0	509	507	0	0	
14	0	0	0	0	511	509	0	0	
15	0	0	0	0	514	508	0	0	
0	0	0	0	0	521	508	0	0	
1	0	0	0	0	519	509	0	0	
2	0	0	0	0	515	506	0	0	
3	0	0	0	0	511	508	0	0	
4	0	0	0	0	511	507	0	0	
5	0	0	0	0	512	509	0	0	
6	0	0	0	0	511	508	0	0	
7	0	0	0	0	513	509	0	0	
8	0	0	0	0	511	507	0	0	
9	0	0	0	0	508	505	0	0	
10	0	0	0	0	510	508	0	0	
11	0	0	0	0	507	505	0	0	
12	0	0	0	0	515	510	0	0	
13	0	0	0	0	511	511	0	0	
14	0	0	0	0	504	506	0	0	
15	0	0	0	0	506	508	0	0	
0	0	0	0	0	492	508	0	0	
1	0	0	0	0	507	508	0	0	
2	0	0	0	0	513	508	0	0	
3	0	0	0	0	512	510	0	0	
4	0	0	0	0	512	510	0	0	
5	0	0	0	0	513	505	0	0	
6	0	0	0	0	514	510	0	0	
7	0	0	0	0	517	509	0	0	
8	0	0	0	0	515	507	0	0	
9	0	0	0	0	513	508	0	0	
10	0	0	0	0	510	509	0	0	
11	0	0	0	0	493	508	0	0	
12	0	0	0	0	504	504	0	0	
13	0	0	0	0	511	508	0	0	
14	0	0	0	0	512	505	0	0	
15	0	0	0	0	514	506	0	0	
0	0	0	0	0	515	508	0	0	
1	0	0	0	0	513	509	0	0	
2	0	0	0	0	510	509	0	0	
3	0	0	0	0	513	510	0	0	
4	0	0	0	0	511	508	0	0	
5	0	0	0	0	511	507	0	0	
6	0	0	0	0	512	508	0	0	
7	0	0	0	0	511	507	0	0	
8	0	0	0	0	511	510	0	0	
9	0	0	0	0	518	509	0	0	
10	0	0	0	0	513	506	0	0	
11	0	0	0	0	515	508	0	0	
12	0	0	0	0	511	508	0	0	
13	0	0	0	0	511	508	0	0	
14	0	0	0	0	511	507	0	0	
15	0	0	0	0	510	507	0	0	
0	0	0	0	0	507	508	0	0	
1	0	0	0	0	512	509	0	0	
2	0	0	0	0	511	508	0	0	
3	0	0	0	0	512	509	0	0	
4	0	0	0	0	511	505	0	0	
5	0	0	0	0	510	508	0	0	
6	0	0	0	0	512	509	0	0	
7	0	0	0	0	511	508	0	0	
8	0	0	0	0	508	510	0	0	
9	0	0	0	0	507	509	0	0	
10	0	0	0	0	511	509	0	0	
11	0	0	0	0	509	511	0	0	
12	0	0	0	0	511	507	0	0	
13	0	0	0	0	519	505	0	0	
14	0	0	0	0	513	505	0	0	
15	0	0	0	0	512	507	0	0	
0	0	0	0	0	496	510	0	0	
1	0	0	0	0	508	510	0	0	
2	0	0	0	0	514	506	0	0	
3	0	0	0	0	514	506	0	0	
4	0	0	0	0	516	508	0	0	
5	0	0	0	0	513	508	0	0	
6	0	0	0	0	518	505	0	0	
7	0	0	0	0	519	506	0	0	
8	0	0	0	0	510	508	0	0	
9	0	0	0	0	508	508	0	0	
10	0	0	0	0	503	510	0	0	
11	0	0	0	0	506	508	0	0	
12	0	0	0	0	506	508	0	0	
13	0	0	0	0	507	509	0	0	
14	0	0	0	0	510	507	0	0	
15	0	0	0	0	514	507	0	0	
0	0	0	0	0	518	508	0	0	
1	0	0	0	0	513	510	0	0	
2	0	0	0	0	509	507	0	0	
3	0	0	0	0	510	509	0	0	
4	0	0	0	0	508	507	0	0	
5	0	0	0	0	511	509	0	0	
6	0	0	0	0	511	507	0	0	
7	0	0	0	0	514	506	0	0	
8	0	0	0	0	517	510	0	0	
9	0	0	0	0	510	508	0	0	
10	0	0	0	0	502	508	0	0	
11	0	0	0	0	504	508	0	0	
12	0	0	0	0	511	512	0	0	
13	0	0	0	0	513	509	0	0	
14	0	0	0	0	514	508	0	0	
15	0	0	0	0	516	509	0	0	
0	0	0	0	0	512	509	0	0	
1	0	0	0	0	515	509	0	0	
2	0	0	0	0	507	508	0	0	
3	0	0	0	0	507	508	0	0	
4	0	0	0	0	503	508	0	0	
5	0	0	0	0	505	507	0	0	
6	0	0	0	0	509	507	0	0	
7	0	0	0	0	512	506	0	0	
8	0	0	0	0	515	508	0	0	
9	0	0	0	0	519	509	0	0	
10	0	0	0	0	522	508	0	0	
11	0	0	0	0	529	508	0	0	
12	0	0	0	0	522	509	0	0	
13	0	0	0	0	512	508	0	0	
14	0	0	0	0	500	506	0	0	
15	0	0	0	0	477	505	0	0	
0	0	0	0	0	495	508	0	0	
1	0	0	0	0	505	508	0	0	
2	0	0	0	0	512	509	0	0	
3	0	0	0	0	510	510	0	0	
4	0	0	0	0	513	508	0	0	
5	0	0	0	0	511	508	0	0	
6	0	0	0	0	514	508	0	0	
7	0	0	0	0	520	510	0	0	
8	0	0	0	0	513	508	0	0	
9	0	0	0	0	512	509	0	0	
10	0	0	0	0	514	509	0	0	
11	0	0	0	0	514	511	0	0	
12	0	0	0	0	513	507	0	0	
13	0	0	0	0	512	510	0	0	
14	0	0	0	0	508	507	0	0	
15	0	0	0	0	507	507	0	0	
0	0	0	0	0	507	507	0	0	
1	0	0	0	0	508	511	0	0	
2	0	0	0	0	510	508	0	0	
3	0	0	0	0	511	507	0	0	
4	0	0	0	0	510	508	0	0	
5	0	0	0	0	511	507	0	0	
6	0	0	0	0	519	507	0	0	
7	0	0	0	0	520	508	0	0	
8	0	0	0	0	514	507	0	0	
9	0	0	0	0	509	506	0	0	
10	0	0	0	0	507	508	0	0	
11	0	0	0	0	509	507	0	0	
12	0	0	0	0	505	508	0	0	
13	0	0	0	0	503	508	0	0	
14	0	0	0	0	502	509	0	0	
15	0	0	0	0	505	510	0	0	
0	0	0	0	0	512	507	0	0	
1	0	0	0	0	513	508	0	0	
2	0	0	0	0	515	509	0	0	
3	0	0	0	0	516	508	0	0	
4	0	0	0	0	521	509	0	0	
5	0	0	0	0	523	505	0	0	
6	0	0	0	0	524	508	0	0	
7	0	0	0	0	516	508	0	0	
8	0	0	0	0	509	507	0	0	
9	0	0	0	0	508	509	0	0	
10	0	0	0	0	512	510	0	0	
11	0	0	0	0	509	507	0	0	
12	0	0	0	0	504	508	0	0	
13	0	0	0	0	507	508	0	0	
14	0	0	0	0	510	507	0	0	
15	0	0	0	0	511	509	0	0	
0	0	0	0	0	509	507	0	0	
1	0	0	0	0	508	508	0	0	
2	0	0	0	0	515	509	0	0	
3	0	0	0	0	522	509	0	0	
4	0	0	0	0	526	509	0	0	
5	0	0	0	0	517	507	0	0	
6	0	0	0	0	510	509	0	0	
7	0	0	0	0	496	505	0	0	
8	0	0	0	0	481	510	0	0	
9	0	0	0	0	488	511	0	0	
10	0	0	0	0	508	508	0	0	
11	0	0	0	0	511	506	0	0	
12	0	0	0	0	515	508	0	0	
13	0	0	0	0	518	511	0	0	
14	0	0	0	0	517	505	0	0	
15	0	0	0	0	516	508	0	0	
0	0	0	0	0	512	507	0	0	
1	0	0	0	0	513	509	0	0	
2	0	0	0	0	511	508	0	0	
3	0	0	0	0	513	507	0	0	
4	0	0	0	0	510	506	0	0	
5	0	0	0	0	512	507	0	0	
6	0	0	0	0	511	508	0	0	
7	0	0	0	0	512	508	0	0	
8	0	0	0	0	512	511	0	0	
9	0	0	0	0	512	508	0	0	
10	0	0	0	0	511	507	0	0	
11	0	0	0	0	512	505	0	0	
12	0	0	0	0	507	506	0	0	
13	0	0	0	0	505	510	0	0	
14	0	0	0	0	511	508	0	0	
15	0	0	0	0	509	508	0	0	
0	0	0	0	0	515	510	0	0	
1	0	0	0	0	513	507	0	0	
2	0	0	0	0	513	506	0	0	
3	0	0	0	0	524	507	0	0	
4	0	0	0	0	519	505	0	0	
5	0	0	0	0	516	509	0	0	
6	0	0	0	0	512	509	0	0	
7	0	0	0	0	511	507	0	0	
8	0	0	0	0	509	510	0	0	
9	0	0	0	0	508	508	0	0	
10	0	0	0	0	506	507	0	0	
11	0	0	0	0	510	509	0	0	
12	0	0	0	0	507	509	0	0	
13	0	0	0	0	510	507	0	0	
14	0	0	0	0	511	508	0	0	
15	0	0	0	0	515	508	0	0	
0	0	0	0	0	511	510	0	0	
1	0	0	0	0	512	508	0	0	
2	0	0	0	0	519	506	0	0	
3	0	0	0	0	516	508	0	0	
4	0	0	0	0	508	508	0	0	
5	0	0	0	0	510	508	0	0	
6	0	0	0	0	495	510	0	0	
7	0	0	0	0	505	507	0	0	
8	0	0	0	0	506	507	0	0	
9	0	0	0	0	513	507	0	0	
10	0	0	0	0	513	509	0	0	
11	0	0	0	0	510	508	0	0	
12	0	0	0	0	508	509	0	0	
13	0	0	0	0	505	507	0	0	
14	0	0	0	0	513	508	0	0	
15	0	0	0	0	513	508	0	0	
0	0	0	0	0	515	508	0	0	
1	0	0	0	0	514	507	0	0	
2	0	0	0	0	508	506	0	0	
3	0	0	0	0	507	506	0	0	
4	0	0	0	0	509	510	0	0	
5	0	0	0	0	508	510	0	0	
6	0	0	0	0	517	507	0	0	
7	0	0	0	0	513	508	0	0	
8	0	0	0	0	510	508	0	0	
9	0	0	0	0	512	509	0	0	
10	0	0	0	0	512	507	0	0	
11	0	0	0	0	511	508	0	0	
12	0	0	0	0	510	505	0	0	
13	0	0	0	0	510	506	0	0	
14	0	0	0	0	511	509	0	0	
15	0	0	0	0	509	510	0	0	
0	0	0	0	0	510	506	0	0	
1	0	0	0	0	509	505	0	0	
2	0	0	0	0	515	508	0	0	
3	0	0	0	0	519	510	0	0	
4	0	0	0	0	513	510	0	0	
5	0	0	0	0	513	510	0	0	
6	0	0	0	0	512	509	0	0	
7	0	0	0	0	510	508	0	0	
8	0	0	0	0	508	508	0	0	
9	0	0	0	0	498	507	0	0	
10	0	0	0	0	507	510	0	0	
11	0	0	0	0	513	510	0	0	
12	0	0	0	0	519	507	0	0	
13	0	0	0	0	519	507	0	0	
14	0	0	0	0	516	507	0	0	
15	0	0	0	0	512	507	0	0	
0	0	0	0	0	508	507	0	0	
1	0	0	0	0	506	506	0	0	
2	0	0	0	0	505	508	0	0	
3	0	0	0	0	507	509	0	0	
4	0	0	0	0	508	508	0	0	
5	0	0	0	0	508	508	0	0	
6	0	0	0	0	511	507	0	0	
7	0	0	0	0	516	508	0	0	
8	0	0	0	0	521	509	0	0	
9	0	0	0	0	520	508	0	0	
10	0	0	0	0	521	509	0	0	
11	0	0	0	0	516	508	0	0	
12	0	0	0	0	511	508	0	0	
13	0	0	0	0	508	508	0	0	
14	0	0	0	0	490	508	0	0	
15	0	0	0	0	497	509	0	0	
0	0	0	0	0	508	509	0	0	
1	0	0	0	0	511	510	0	0	
2	0	0	0	0	512	508	0	0	
3	0	0	0	0	515	507	0	0	
4	0	0	0	0	512	508	0	0	
5	0	0	0	0	513	508	0	0	
6	0	0	0	0	514	509	0	0	
7	0	0	0	0	508	509	0	0	
8	0	0	0	0	508	510	0	0	
9	0	0	0	0	510	506	0	0	
10	0	0	0	0	508	508	0	0	
11	0	0	0	0	512	509	0	0	
12	0	0	0	0	508	508	0	0	
13	0	0	0	0	510	506	0	0	
14	0	0	0	0	510	505	0	0	
15	0	0	0	0	508	507	0	0	
0	0	0	0	0	509	510	0	0	
1	0	0	0	0	525	510	0	0	
2	0	0	0	0	516	508	0	0	
3	0	0	0	0	514	508	0	0	
4	0	0	0	0	517	507	0	0	
5	0	0	0	0	521	508	0	0	
6	0	0	0	0	524	511	0	0	
7	0	0	0	0	519	508	0	0	
8	0	0	0	0	507	509	0	0	
9	0	0	0	0	502	509	0	0	
10	0	0	0	0	487	511	0	0	
11	0	0	0	0	501	509	0	0	
12	0	0	0	0	508	508	0	0	
13	0	0	0	0	512	508	0	0	
14	0	0	0	0	514	506	0	0	
15	0	0	0	0	515	505	0	0	
0	0	0	0	0	511	508	0	0	
1	0	0	0	0	509	509	0	0	
2	0	0	0	0	509	508	0	0	
3	0	0	0	0	511	508	0	0	
4	0	0	0	0	512	508	0	0	
5	0	0	0	0	514	508	0	0	
6	0	0	0	0	511	508	0	0	
7	0	0	0	0	507	505	0	0	
8	0	0	0	0	508	508	0	0	
9	0	0	0	0	510	511	0	0	
10	0	0	0	0	510	512	0	0	
11	0	0	0	0	511	507	0	0	
12	0	0	0	0	518	508	0	0	
13	0	0	0	0	520	509	0	0	
14	0	0	0	0	514	507	0	0	
15	0	0	0	0	521	508	0	0	
0	0	0	0	0	518	509	0	0	
1	0	0	0	0	508	508	0	0	
2	0	0	0	0	499	511	0	0	
3	0	0	0	0	506	508	0	0	
4	0	0	0	0	509	508	0	0	
5	0	0	0	0	512	507	0	0	
6	0	0	0	0	507	507	0	0	
7	0	0	0	0	505	508	0	0	
8	0	0	0	0	507	509	0	0	
9	0	0	0	0	507	508	0	0	
10	0	0	0	0	511	509	0	0	
11	0	0	0	0	512	506	0	0	
12	0	0	0	0	516	508	0	0	
13	0	0	0	0	521	508	0	0	
14	0	0	0	0	522	509	0	0	
15	0	0	0	0	515	508	0	0	
0	0	0	0	0	510	508	0	0	
1	0	0	0	0	510	509	0	0	
2	0	0	0	0	509	507	0	0	
3	0	0	0	0	507	509	0	0	
4	0	0	0	0	505	508	0	0	
5	0	0	0	0	510	508	0	0	
6	0	0	0	0	510	507	0	0	
7	0	0	0	0	509	507	0	0	
8	0	0	0	0	516	511	0	0	
9	0	0	0	0	518	507	0	0	
10	0	0	0	0	517	508	0	0	
11	0	0	0	0	519	507	0	0	
12	0	0	0	0	517	508	0	0	
13	0	0	0	0	501	508	0	0	
14	0	0	0	0	497	509	0	0	
15	0	0	0	0	491	510	0	0	
0	0	0	0	0	507	505	0	0	
1	0	0	0	0	517	509	0	0	
2	0	0	0	0	520	508	0	0	
3	0	0	0	0	519	507	0	0	
4	0	0	0	0	512	508	0	0	
5	0	0	0	0	513	508	0	0	
6	0	0	0	0	510	510	0	0	
7	0	0	0	0	510	506	0	0	
8	0	0	0	0	512	508	0	0	
9	0	0	0	0	511	506	0	0	
10	0	0	0	0	511	507	0	0	
11	0	0	0	0	511	508	0	0	
12	0	0	0	0	509	505	0	0	
13	0	0	0	0	508	507	0	0	
14	0	0	0	0	513	508	0	0	
15	0	0	0	0	510	508	0	0	
0	0	0	0	0	508	508	0	0	
1	0	0	0	0	505	510	0	0	
2	0	0	0	0	507	508	0	0	
3	0	0	0	0	515	511	0	0	
4	0	0	0	0	517	508	0	0	
5	0	0	0	0	512	509	0	0	
6	0	0	0	0	518	509	0	0	
7	0	0	0	0	512	507	0	0	
8	0	0	0	0	506	507	0	0	
9	0	0	0	0	510	508	0	0	
10	0	0	0	0	511	509	0	0	
11	0	0	0	0	512	510	0	0	
12	0	0	0	0	515	508	0	0	
13	0	0	0	0	519	506	0	0	
14	0	0	0	0	516	507	0	0	
15	0	0	0	0	517	508	0	0	
0	0	0	0	0	512	508	0	0	
1	0	0	0	0	511	508	0	0	
2	0	0	0	0	506	507	0	0	
3	0	0	0	0	508	508	0	0	
4	0	0	0	0	507	508	0	0	
5	0	0	0	0	508	509	0	0	
6	0	0	0	0	513	505	0	0	
7	0	0	0	0	513	507	0	0	
8	0	0	0	0	511	510	0	0	
9	0	0	0	0	510	507	0	0	
10	0	0	0	0	510	510	0	0	
11	0	0	0	0	505	509	0	0	
12	0	0	0	0	501	508	0	0	
13	0	0	0	0	516	510	0	0	
14	0	0	0	0	519	509	0	0	
15	0	0	0	0	515	510	0	0	
0	0	0	0	0	510	509	0	0	
1	0	0	0	0	510	508	0	0	
2	0	0	0	0	493	508	0	0	
3	0	0	0	0	502	511	0	0	
4	0	0	0	0	511	508	0	0	
5	0	0	0	0	512	508	0	0	
6	0	0	0	0	510	506	0	0	
7	0	0	0	0	505	506	0	0	
8	0	0	0	0	511	510	0	0	
9	0	0	0	0	518	510	0	0	
10	0	0	0	0	522	508	0	0	
11	0	0	0	0	519	508	0	0	
12	0	0	0	0	518	509	0	0	
13	0	0	0	0	513	509	0	0	
14	0	0	0	0	515	510	0	0	
15	0	0	0	0	509	509	0	0	
0	0	0	0	0	507	508	0	0	
1	0	0	0	0	509	507	0	0	
2	0	0	0	0	510	508	0	0	
3	0	0	0	0	512	507	0	0	
4	0	0	0	0	515	508	0	0	
5	0	0	0	0	511	508	0	0	
6	0	0	0	0	510	509	0	0	
7	0	0	0	0	504	508	0	0	
8	0	0	0	0	510	508	0	0	
9	0	0	0	0	513	507	0	0	
10	0	0	0	0	510	508	0	0	
11	0	0	0	0	511	509	0	0	
12	0	0	0	0	511	509	0	0	
13	0	0	0	0	517	508	0	0	
14	0	0	0	0	515	508	0	0	
15	0	0	0	0	511	507	0	0	
0	0	0	0	0	508	508	0	0	
1	0	0	0	0	511	508	0	0	
2	0	0	0	0	507	508	0	0	
3	0	0	0	0	507	508	0	0	
4	0	0	0	0	506	506	0	0	
5	0	0	0	0	504	507	0	0	
6	0	0	0	0	504	508	0	0	
7	0	0	0	0	508	508	0	0	
8	0	0	0	0	511	508	0	0	
9	0	0	0	0	514	508	0	0	
10	0	0	0	0	518	508	0	0	
11	0	0	0	0	518	509	0	0	
12	0	0	0	0	516	508	0	0	
13	0	0	0	0	511	508	0	0	
14	0	0	0	0	507	504	0	0	
15	0	0	0	0	512	507	0	0	
0	0	0	0	0	516	509	0	0	
1	0	0	0	0	515	508	0	0	
2	0	0	0	0	514	509	0	0	
3	0	0	0	0	511	507	0	0	
4	0	0	0	0	507	509	0	0	
5	0	0	0	0	489	510	0	0	
6	0	0	0	0	500	508	0	0	
7	0	0	0	0	511	509	0	0	
8	0	0	0	0	512	506	0	0	
9	0	0	0	0	517	509	0	0	
10	0	0	0	0	519	510	0	0	
11	0	0	0	0	512	508	0	0	
12	0	0	0	0	512	508	0	0	
13	0	0	0	0	510	507	0	0	
14	0	0	0	0	514	506	0	0	
15	0	0	0	0	516	508	0	0	
0	0	0	0	0	513	508	0	0	
1	0	0	0	0	511	510	0	0	
2	0	0	0	0	512	509	0	0	
3	0	0	0	0	515	510	0	0	
4	0	0	0	0	515	508	0	0	
5	0	0	0	0	506	508	0	0	
6	0	0	0	0	503	508	0	0	
7	0	0	0	0	503	507	0	0	
8	0	0	0	0	510	506	0	0	
9	0	0	0	0	511	508	0	0	
10	0	0	0	0	510	508	0	0	
11	0	0	0	0	510	506	0	0	
12	0	0	0	0	506	508	0	0	
13	0	0	0	0	508	506	0	0	
14	0	0	0	0	509	508	0	0	
15	0	0	0	0	511	508	0	0	
0	0	0	0	0	514	508	0	0	
1	0	0	0	0	513	508	0	0	
2	0	0	0	0	512	507	0	0	
3	0	0	0	0	511	509	0	0	
4	0	0	0	0	511	508	0	0	
5	0	0	0	0	508	508	0	0	
6	0	0	0	0	516	510	0	0	
7	0	0	0	0	515	509	0	0	
8	0	0	0	0	515	511	0	0	
9	0	0	0	0	511	509	0	0	
10	0	0	0	0	516	508	0	0	
11	0	0	0	0	515	507	0	0	
12	0	0	0	0	511	506	0	0	
13	0	0	0	0	511	509	0	0	
14	0	0	0	0	513	508	0	0	
15	0	0	0	0	512	507	0	0	
0	0	0	0	0	511	508	0	0	
1	0	0	0	0	508	509	0	0	
2	0	0	0	0	510	509	0	0	
3	0	0	0	0	512	509	0	0	
4	0	0	0	0	515	507	0	0	
5	0	0	0	0	512	508	0	0	
6	0	0	0	0	513	508	0	0	
7	0	0	0	0	511	506	0	0	
8	0	0	0	0	503	509	0	0	
9	0	0	0	0	492	506	0	0	
10	0	0	0	0	495	508	0	0	
11	0	0	0	0	512	509	0	0	
12	0	0	0	0	515	508	0	0	
13	0	0	0	0	516	509	0	0	
14	0	0	0	0	519	508	0	0	
15	0	0	0	0	516	507	0	0	
0	0	0	0	0	512	509	0	0	
1	0	0	0	0	510	511	0	0	
2	0	0	0	0	508	505	0	0	
3	0	0	0	0	512	508	0	0	
4	0	0	0	0	511	509	0	0	
5	0	0	0	0	515	508	0	0	
6	0	0	0	0	513	509	0	0	
7	0	0	0	0	506	506	0	0	
8	0	0	0	0	505	508	0	0	
9	0	0	0	0	507	508	0	0	
10	0	0	0	0	509	504	0	0	
11	0	0	0	0	508	510	0	0	
12	0	0	0	0	512	510	0	0	
13	0	0	0	0	512	510	0	0	
14	0	0	0	0	512	508	0	0	
15	0	0	0	0	518	506	0	0	
0	0	0	0	0	518	506	0	0	
1	0	0	0	0	514	507	0	0	
2	0	0	0	0	515	507	0	0	
3	0	0	0	0	513	508	0	0	
4	0	0	0	0	513	510	0	0	
5	0	0	0	0	510	510	0	0	
6	0	0	0	0	509	510	0	0	
7	0	0	0	0	510	508	0	0	
8	0	0	0	0	509	508	0	0	
9	0	0	0	0	508	507	0	0	
10	0	0	0	0	514	509	0	0	
11	0	0	0	0	518	508	0	0	
12	0	0	0	0	515	508	0	0	
13	0	0	0	0	505	510	0	0	
14	0	0	0	0	494	508	0	0	
15	0	0	0	0	510	506	0	0	
0	0	0	0	0	512	508	0	0	
1	0	0	0	0	511	509	0	0	
2	0	0	0	0	511	511	0	0	
3	0	0	0	0	506	509	0	0	
4	0	0	0	0	503	507	0	0	
5	0	0	0	0	494	509	0	0	
6	0	0	0	0	508	508	0	0	
7	0	0	0	0	515	508	0	0	
8	0	0	0	0	521	509	0	0	
9	0	0	0	0	523	510	0	0	
10	0	0	0	0	521	508	0	0	
11	0	0	0	0	519	508	0	0	
12	0	0	0	0	519	509	0	0	
13	0	0	0	0	516	505	0	0	
14	0	0	0	0	513	508	0	0	
15	0	0	0	0	510	508	0	0	
0	0	0	0	0	509	508	0	0	
1	0	0	0	0	505	508	0	0	
2	0	0	0	0	510	507	0	0	
3	0	0	0	0	514	508	0	0	
4	0	0	0	0	509	508	0	0	
5	0	0	0	0	511	509	0	0	
6	0	0	0	0	515	507	0	0	
7	0	0	0	0	515	507	0	0	
8	0	0	0	0	510	509	0	0	
9	0	0	0	0	505	508	0	0	
10	0	0	0	0	505	510	0	0	
11	0	0	0	0	507	509	0	0	
12	0	0	0	0	511	507	0	0	
13	0	0	0	0	510	508	0	0	
14	0	0	0	0	511	509	0	0	
15	0	0	0	0	508	507	0	0	
0	0	0	0	0	508	508	0	0	
1	0	0	0	0	512	507	0	0	
2	0	0	0	0	516	509	0	0	
3	0	0	0	0	515	509	0	0	
4	0	0	0	0	512	511	0	0	
5	0	0	0	0	509	510	0	0	
6	0	0	0	0	507	508	0	0	
7	0	0	0	0	512	507	0	0	
8	0	0	0	0	510	508	0	0	
9	0	0	0	0	510	508	0	0	
10	0	0	0	0	512	507	0	0	
11	0	0	0	0	515	507	0	0	
12	0	0	0	0	515	509	0	0	
13	0	0	0	0	509	509	0	0	
14	0	0	0	0	515	508	0	0	
15	0	0	0	0	509	508	0	0	
0	0	0	0	0	510	509	0	0	
1	0	0	0	0	512	508	0	0	
2	0	0	0	0	514	507	0	0	
3	0	0	0	0	512	507	0	0	
4	0	0	0	0	515	508	0	0	
5	0	0	0	0	512	508	0	0	
6	0	0	0	0	511	508	0	0	
7	0	0	0	0	511	510	0	0	
8	0	0	0	0	496	510	0	0	
9	0	0	0	0	497	507	0	0	
10	0	0	0	0	511	508	0	0	
11	0	0	0	0	511	510	0	0	
12	0	0	0	0	510	505	0	0	
13	0	0	0	0	514	507	0	0	
14	0	0	0	0	511	509	0	0	
15	0	0	0	0	509	510	0	0	
0	0	0	0	0	504	510	0	0	
1	0	0	0	0	506	509	0	0	
2	0	0	0	0	508	509	0	0	
3	0	0	0	0	508	507	0	0	
4	0	0	0	0	512	508	0	0	
5	0	0	0	0	522	510	0	0	
6	0	0	0	0	526	506	0	0	
7	0	0	0	0	526	507	0	0	
8	0	0	0	0	516	505	0	0	
9	0	0	0	0	509	509	0	0	
10	0	0	0	0	505	509	0	0	
11	0	0	0	0	508	509	0	0	
12	0	0	0	0	511	506	0	0	
13	0	0	0	0	513	507	0	0	
14	0	0	0	0	517	510	0	0	
15	0	0	0	0	517	509	0	0	
0	0	0	0	0	514	506	0	0	
1	0	0	0	0	515	507	0	0	
2	0	0	0	0	496	508	0	0	
3	0	0	0	0	502	509	0	0	
4	0	0	0	0	515	508	0	0	
5	0	0	0	0	515	507	0	0	
6	0	0	0	0	516	510	0	0	
7	0	0	0	0	513	508	0	0	
8	0	0	0	0	510	507	0	0	
9	0	0	0	0	506	509	0	0	
10	0	0	0	0	505	509	0	0	
11	0	0	0	0	506	508	0	0	
12	0	0	0	0	511	508	0	0	
13	0	0	0	0	511	508	0	0	
14	0	0	0	0	512	509	0	0	
15	0	0	0	0	514	508	0	0	
0	0	0	0	0	512	509	0	0	
1	0	0	0	0	512	509	0	0	
2	0	0	0	0	508	508	0	0	
3	0	0	0	0	511	508	0	0	
4	0	0	0	0	510	507	0	0	
5	0	0	0	0	512	507	0	0	
6	0	0	0	0	508	505	0	0	
7	0	0	0	0	509	510	0	0	
8	0	0	0	0	511	510	0	0	
9	0	0	0	0	511	506	0	0	
10	0	0	0	0	511	507	0	0	
11	0	0	0	0	509	509	0	0	
12	0	0	0	0	513	509	0	0	
13	0	0	0	0	514	508	0	0	
14	0	0	0	0	514	508	0	0	
15	0	0	0	0	518	510	0	0	
0	0	0	0	0	516	504	0	0	
1	0	0	0	0	515	506	0	0	
2	0	0	0	0	510	508	0	0	
3	0	0	0	0	488	513	0	0	
4	0	0	0	0	500	507	0	0	
5	0	0	0	0	507	509	0	0	
6	0	0	0	0	512	507	0	0	
7	0	0	0	0	518	510	0	0	
8	0	0	0	0	519	509	0	0	
9	0	0	0	0	514	506	0	0	
10	0	0	0	0	512	510	0	0	
11	0	0	0	0	510	508	0	0	
12	0	0	0	0	512	507	0	0	
13	0	0	0	0	511	508	0	0	
14	0	0	0	0	511	508	0	0	
15	0	0	0	0	512	507	0	0	
0	0	0	0	0	514	507	0	0	
1	0	0	0	0	511	507	0	0	
2	0	0	0	0	509	509	0	0	
3	0	0	0	0	507	511	0	0	
4	0	0	0	0	507	508	0	0	
5	0	0	0	0	508	508	0	0	
6	0	0	0	0	516	509	0	0	
7	0	0	0	0	515	509	0	0	
8	0	0	0	0	516	508	0	0	
9	0	0	0	0	523	508	0	0	
10	0	0	0	0	514	508	0	0	
11	0	0	0	0	503	510	0	0	
12	0	0	0	0	503	507	0	0	
13	0	0	0	0	507	508	0	0	
14	0	0	0	0	513	506	0	0	
15	0	0	0	0	515	507	0	0	
0	0	0	0	0	521	506	0	0	
1	0	0	0	0	520	507	0	0	
2	0	0	0	0	512	509	0	0	
3	0	0	0	0	508	508	0	0	
4	0	0	0	0	508	508	0	0	
5	0	0	0	0	510	508	0	0	
6	0	0	0	0	504	509	0	0	
7	0	0	0	0	504	508	0	0	
8	0	0	0	0	505	506	0	0	
9	0	0	0	0	507	507	0	0	
10	0	0	0	0	510	509	0	0	
11	0	0	0	0	514	508	0	0	
12	0	0	0	0	516	507	0	0	
13	0	0	0	0	512	507	0	0	
14	0	0	0	0	512	509	0	0	
15	0	0	0	0	511	507	0	0	
0	0	0	0	0	509	508	0	0	
1	0	0	0	0	507	508	0	0	
2	0	0	0	0	511	508	0	0	
3	0	0	0	0	512	508	0	0	
4	0	0	0	0	513	507	0	0	
5	0	0	0	0	512	509	0	0	
6	0	0	0	0	514	508	0	0	
7	0	0	0	0	514	508	0	0	
8	0	0	0	0	511	508	0	0	
9	0	0	0	0	508	507	0	0	
10	0	0	0	0	500	508	0	0	
11	0	0	0	0	500	510	0	0	
12	0	0	0	0	507	508	0	0	
13	0	0	0	0	511	506	0	0	
14	0	0	0	0	512	506	0	0	
15	0	0	0	0	511	509	0	0	
0	0	0	0	0	512	508	0	0	
1	0	0	0	0	508	506	0	0	
2	0	0	0	0	513	510	0	0	
3	0	0	0	0	515	509	0	0	
4	0	0	0	0	516	507	0	0	
5	0	0	0	0	517	511	0	0	
6	0	0	0	0	514	507	0	0	
7	0	0	0	0	508	507	0	0	
8	0	0	0	0	508	509	0	0	
9	0	0	0	0	510	510	0	0	
10	0	0	0	0	512	508	0	0	
11	0	0	0	0	512	508	0	0	
12	0	0	0	0	512	510	0	0	
13	0	0	0	0	510	510	0	0	
14	0	0	0	0	515	510	0	0	
15	0	0	0	0	513	510	0	0	
0	0	0	0	0	510	505	0	0	
1	0	0	0	0	510	510	0	0	
2	0	0	0	0	509	506	0	0	
3	0	0	0	0	508	509	0	0	
4	0	0	0	0	509	507	0	0	
5	0	0	0	0	509	508	0	0	
6	0	0	0	0	505	510	0	0	
7	0	0	0	0	510	507	0	0	
8	0	0	0	0	511	510	0	0	
9	0	0	0	0	516	508	0	0	
10	0	0	0	0	512	503	0	0	
11	0	0	0	0	515	507	0	0	
12	0	0	0	0	521	507	0	0	
13	0	0	0	0	518	508	0	0	
14	0	0	0	0	515	509	0	0	
15	0	0	0	0	512	508	0	0	
0	0	0	0	0	512	509	0	0	
1	0	0	0	0	503	509	0	0	
2	0	0	0	0	505	510	0	0	
3	0	0	0	0	513	507	0	0	
4	0	0	0	0	515	505	0	0	
5	0	0	0	0	512	508	0	0	
6	0	0	0	0	508	508	0	0	
7	0	0	0	0	504	508	0	0	
8	0	0	0	0	490	508	0	0	
9	0	0	0	0	495	508	0	0	
10	0	0	0	0	505	508	0	0	
11	0	0	0	0	511	508	0	0	
12	0	0	0	0	513	509	0	0	
13	0	0	0	0	512	509	0	0	
14	0	0	0	0	512	508	0	0	
15	0	0	0	0	520	508	0	0	
0	0	0	0	0	522	510	0	0	
1	0	0	0	0	521	508	0	0	
2	0	0	0	0	515	507	0	0	
3	0	0	0	0	510	510	0	0	
4	0	0	0	0	510	507	0	0	
5	0	0	0	0	511	508	0	0	
6	0	0	0	0	510	508	0	0	
7	0	0	0	0	511	508	0	0	
8	0	0	0	0	510	509	0	0	
9	0	0	0	0	512	509	0	0	
10	0	0	0	0	510	510	0	0	
11	0	0	0	0	510	508	0	0	
12	0	0	0	0	515	510	0	0	
13	0	0	0	0	510	506	0	0	
14	0	0	0	0	512	508	0	0	
15	0	0	0	0	512	509	0	0	
0	0	0	0	0	511	508	0	0	
1	0	0	0	0	509	507	0	0	
2	0	0	0	0	503	507	0	0	
3	0	0	0	0	510	509	0	0	
4	0	0	0	0	510	507	0	0	
5	0	0	0	0	508	508	0	0	
6	0	0	0	0	510	510	0	0	
7	0	0	0	0	513	506	0	0	
8	0	0	0	0	514	507	0	0	
9	0	0	0	0	511	509	0	0	
10	0	0	0	0	510	511	0	0	
11	0	0	0	0	510	506	0	0	
12	0	0	0	0	512	508	0	0	
13	0	0	0	0	513	507	0	0	
14	0	0	0	0	511	509	0	0	
15	0	0	0	0	512	510	0	0	
0	0	0	0	0	507	507	0	0	
1	0	0	0	0	507	507	0	0	
2	0	0	0	0	511	508	0	0	
3	0	0	0	0	513	508	0	0	
4	0	0	0	0	518	508	0	0	
5	0	0	0	0	517	508	0	0	
6	0	0	0	0	513	509	0	0	
7	0	0	0	0	511	507	0	0	
8	0	0	0	0	512	506	0	0	
9	0	0	0	0	512	508	0	0	
10	0	0	0	0	508	508	0	0	
11	0	0	0	0	504	507	0	0	
12	0	0	0	0	487	508	0	0	
13	0	0	0	0	502	507	0	0	
14	0	0	0	0	505	508	0	0	
15	0	0	0	0	503	508	0	0	
0	0	0	0	0	508	507	0	0	
1	0	0	0	0	510	508	0	0	
2	0	0	0	0	519	507	0	0	
3	0	0	0	0	530	507	0	0	
4	0	0	0	0	520	509	0	0	
5	0	0	0	0	513	508	0	0	
6	0	0	0	0	515	509	0	0	
7	0	0	0	0	513	508	0	0	
8	0	0	0	0	510	507	0	0	
9	0	0	0	0	508	510	0	0	
10	0	0	0	0	501	507	0	0	
11	0	0	0	0	504	508	0	0	
12	0	0	0	0	507	508	0	0	
13	0	0	0	0	508	509	0	0	
14	0	0	0	0	513	508	0	0	
15	0	0	0	0	517	507	0	0	
0	0	0	0	0	520	511	0	0	
1	0	0	0	0	522	506	0	0	
2	0	0	0	0	519	512	0	0	
3	0	0	0	0	514	510	0	0	
4	0	0	0	0	511	507	0	0	
5	0	0	0	0	510	509	0	0	
6	0	0	0	0	509	507	0	0	
7	0	0	0	0	509	508	0	0	
8	0	0	0	0	510	510	0	0	
9	0	0	0	0	509	507	0	0	
10	0	0	0	0	511	508	0	0	
11	0	0	0	0	515	509	0	0	
12	0	0	0	0	510	510	0	0	
13	0	0	0	0	497	507	0	0	
14	0	0	0	0	507	508	0	0	
15	0	0	0	0	511	508	0	0	
0	0	0	0	0	509	509	0	0	
1	0	0	0	0	511	509	0	0	
2	0	0	0	0	514	509	0	0	
3	0	0	0	0	514	509	0	0	
4	0	0	0	0	513	506	0	0	
5	0	0	0	0	513	507	0	0	
6	0	0	0	0	509	507	0	0	
7	0	0	0	0	512	510	0	0	
8	0	0	0	0	510	505	0	0	
9	0	0	0	0	511	508	0	0	
10	0	0	0	0	510	505	0	0	
11	0	0	0	0	511	509	0	0	
12	0	0	0	0	506	507	0	0	
13	0	0	0	0	507	508	0	0	
14	0	0	0	0	510	509	0	0	
15	0	0	0	0	511	510	0	0	
0	0	0	0	0	513	510	0	0	
1	0	0	0	0	515	509	0	0	
2	0	0	0	0	512	508	0	0	
3	0	0	0	0	512	508	0	0	
4	0	0	0	0	517	507	0	0	
5	0	0	0	0	519	508	0	0	
6	0	0	0	0	516	507	0	0	
7	0	0	0	0	497	507	0	0	
8	0	0	0	0	505	509	0	0	
9	0	0	0	0	514	508	0	0	
10	0	0	0	0	513	508	0	0	
11	0	0	0	0	512	508	0	0	
12	0	0	0	0	512	507	0	0	
13	0	0	0	0	514	508	0	0	
14	0	0	0	0	508	509	0	0	
15	0	0	0	0	507	508	0	0	
0	0	0	0	0	512	509	0	0	
1	0	0	0	0	510	509	0	0	
2	0	0	0	0	513	509	0	0	
3	0	0	0	0	509	509	0	0	
4	0	0	0	0	511	508	0	0	
5	0	0	0	0	510	510	0	0	
6	0	0	0	0	510	511	0	0	
7	0	0	0	0	508	508	0	0	
8	0	0	0	0	509	510	0	0	
9	0	0	0	0	508	508	0	0	
10	0	0	0	0	515	509	0	0	
11	0	0	0	0	519	507	0	0	
12	0	0	0	0	513	507	0	0	
13	0	0	0	0	510	506	0	0	
14	0	0	0	0	513	510	0	0	
15	0	0	0	0	515	508	0	0	
0	0	0	0	0	510	507	0	0	
1	0	0	0	0	511	508	0	0	
2	0	0	0	0	512	508	0	0	
3	0	0	0	0	513	508	0	0	
4	0	0	0	0	513	511	0	0	
5	0	0	0	0	508	508	0	0	
6	0	0	0	0	502	509	0	0	
7	0	0	0	0	510	508	0	0	
8	0	0	0	0	512	508	0	0	
9	0	0	0	0	512	508	0	0	
10	0	0	0	0	516	508	0	0	
11	0	0	0	0	514	508	0	0	
12	0	0	0	0	509	507	0	0	
13	0	0	0	0	513	511	0	0	
14	0	0	0	0	512	508	0	0	
15	0	0	0	0	508	507	0	0	
0	0	0	0	0	509	509	0	0	
1	0	0	0	0	510	508	0	0	
2	0	0	0	0	516	508	0	0	
3	0	0	0	0	520	508	0	0	
4	0	0	0	0	521	507	0	0	
5	0	0	0	0	516	509	0	0	
6	0	0	0	0	511	507	0	0	
7	0	0	0	0	507	510	0	0	
8	0	0	0	0	507	510	0	0	
9	0	0	0	0	488	508	0	0	
10	0	0	0	0	499	506	0	0	
11	0	0	0	0	505	510	0	0	
12	0	0	0	0	512	506	0	0	
13	0	0	0	0	515	508	0	0	
14	0	0	0	0	514	507	0	0	
15	0	0	0	0	504	506	0	0	
0	0	0	0	0	507	507	0	0	
1	0	0	0	0	515	511	0	0	
2	0	0	0	0	513	507	0	0	
3	0	0	0	0	513	509	0	0	
4	0	0	0	0	508	508	0	0	
5	0	0	0	0	510	505	0	0	
6	0	0	0	0	515	509	0	0	
7	0	0	0	0	512	509	0	0	
8	0	0	0	0	516	508	0	0	
9	0	0	0	0	518	511	0	0	
10	0	0	0	0	517	511	0	0	
11	0	0	0	0	515	509	0	0	
12	0	0	0	0	513	508	0	0	
13	0	0	0	0	508	508	0	0	
14	0	0	0	0	510	508	0	0	
15	0	0	0	0	508	508	0	0	
0	0	0	0	0	508	509	0	0	
1	0	0	0	0	508	505	0	0	
2	0	0	0	0	513	505	0	0	
3	0	0	0	0	509	508	0	0	
4	0	0	0	0	509	509	0	0	
5	0	0	0	0	511	509	0	0	
6	0	0	0	0	511	508	0	0	
7	0	0	0	0	509	507	0	0	
8	0	0	0	0	513	507	0	0	
9	0	0	0	0	512	508	0	0	
10	0	0	0	0	513	508	0	0	
11	0	0	0	0	511	509	0	0	
12	0	0	0	0	512	508	0	0	
13	0	0	0	0	511	508	0	0	
14	0	0	0	0	508	511	0	0	
15	0	0	0	0	510	511	0	0	
0	0	0	0	0	508	508	0	0	
1	0	0	0	0	505	506	0	0	
2	0	0	0	0	505	509	0	0	
3	0	0	0	0	507	509	0	0	
4	0	0	0	0	508	508	0	0	
5	0	0	0	0	512	509	0	0	
6	0	0	0	0	518	508	0	0	
7	0	0	0	0	518	507	0	0	
8	0	0	0	0	517	508	0	0	
9	0	0	0	0	517	508	0	0	
10	0	0	0	0	513	508	0	0	
11	0	0	0	0	512	506	0	0	
12	0	0	0	0	512	508	0	0	
13	0	0	0	0	512	508	0	0	
14	0	0	0	0	513	510	0	0	
15	0	0	0	0	512	507	0	0	
0	0	0	0	0	512	507	0	0	
1	0	0	0	0	501	509	0	0	
2	0	0	0	0	507	510	0	0	
3	0	0	0	0	503	508	0	0	
4	0	0	0	0	508	508	0	0	
5	0	0	0	0	508	504	0	0	
6	0	0	0	0	511	506	0	0	
7	0	0	0	0	515	510	0	0	
8	0	0	0	0	514	508	0	0	
9	0	0	0	0	513	509	0	0	
10	0	0	0	0	511	510	0	0	
11	0	0	0	0	509	508	0	0	
12	0	0	0	0	509	508	0	0	
13	0	0	0	0	504	509	0	0	
14	0	0	0	0	505	510	0	0	
15	0	0	0	0	507	508	0	0	
0	0	0	0	0	512	507	0	0	
1	0	0	0	0	513	508	0	0	
2	0	0	0	0	512	509	0	0	
3	0	0	0	0	516	508	0	0	
4	0	0	0	0	516	505	0	0	
5	0	0	0	0	515	508	0	0	
6	0	0	0	0	515	509	0	0	
7	0	0	0	0	513	509	0	0	
8	0	0	0	0	511	509	0	0	
9	0	0	0	0	510	508	0	0	
10	0	0	0	0	511	507	0	0	
11	0	0	0	0	514	508	0	0	
12	0	0	0	0	513	509	0	0	
13	0	0	0	0	512	507	0	0	
14	0	0	0	0	495	509	0	0	
15	0	0	0	0	494	508	0	0	
0	0	0	0	0	505	507	0	0	
1	0	0	0	0	514	508	0	0	
2	0	0	0	0	511	507	0	0	
3	0	0	0	0	515	508	0	0	
4	0	0	0	0	515	510	0	0	
5	0	0	0	0	518	508	0	0	
6	0	0	0	0	518	508	0	0	
7	0	0	0	0	518	508	0	0	
8	0	0	0	0	515	508	0	0	
9	0	0	0	0	510	507	0	0	
10	0	0	0	0	509	510	0	0	
11	0	0	0	0	511	508	0	0	
12	0	0	0	0	507	508	0	0	
13	0	0	0	0	508	508	0	0	
14	0	0	0	0	509	508	0	0	
15	0	0	0	0	513	509	0	0	
0	0	0	0	0	510	510	0	0	
1	0	0	0	0	510	508	0	0	
2	0	0	0	0	509	507	0	0	
3	0	0	0	0	512	505	0	0	
4	0	0	0	0	510	510	0	0	
5	0	0	0	0	514	510	0	0	
6	0	0	0	0	516	508	0	0	
7	0	0	0	0	519	508	0	0	
8	0	0	0	0	515	509	0	0	
9	0	0	0	0	515	508	0	0	
10	0	0	0	0	509	509	0	0	
11	0	0	0	0	493	510	0	0	
12	0	0	0	0	489	510	0	0	
13	0	0	0	0	506	508	0	0	
14	0	0	0	0	511	508	0	0	
15	0	0	0	0	512	508	0	0	
0	0	0	0	0	514	509	0	0	
1	0	0	0	0	520	509	0	0	
2	0	0	0	0	518	508	0	0	
3	0	0	0	0	512	508	0	0	
4	0	0	0	0	511	509	0	0	
5	0	0	0	0	511	509	0	0	
6	0	0	0	0	509	507	0	0	
7	0	0	0	0	508	507	0	0	
8	0	0	0	0	510	507	0	0	
9	0	0	0	0	511	508	0	0	
10	0	0	0	0	515	510	0	0	
11	0	0	0	0	510	508	0	0	
12	0	0	0	0	511	508	0	0	
13	0	0	0	0	515	507	0	0	
14	0	0	0	0	517	507	0	0	
15	0	0	0	0	513	508	0	0	
0	0	0	0	0	509	506	0	0	
1	0	0	0	0	511	508	0	0	
2	0	0	0	0	512	510	0	0	
3	0	0	0	0	510	508	0	0	
4	0	0	0	0	513	508	0	0	
5	0	0	0	0	508	507	0	0	
6	0	0	0	0	507	508	0	0	
7	0	0	0	0	511	509	0	0	
8	0	0	0	0	512	508	0	0	
9	0	0	0	0	514	510	0	0	
10	0	0	0	0	512	506	0	0	
11	0	0	0	0	511	507	0	0	
12	0	0	0	0	510	510	0	0	
13	0	0	0	0	510	509	0	0	
14	0	0	0	0	514	510	0	0	
15	0	0	0	0	509	508	0	0	
0	0	0	0	0	509	509	0	0	
1	0	0	0	0	511	507	0	0	
2	0	0	0	0	510	510	0	0	
3	0	0	0	0	510	508	0	0	
4	0	0	0	0	511	507	0	0	
5	0	0	0	0	513	507	0	0	
6	0	0	0	0	517	508	0	0	
7	0	0	0	0	516	508	0	0	
8	0	0	0	0	505	508	0	0	
9	0	0	0	0	503	508	0	0	
10	0	0	0	0	509	507	0	0	
11	0	0	0	0	513	508	0	0	
12	0	0	0	0	517	510	0	0	
13	0	0	0	0	517	508	0	0	
14	0	0	0	0	512	509	0	0	
15	0	0	0	0	511	508	0	0	
0	0	0	0	0	508	508	0	0	
1	0	0	0	0	510	508	0	0	
2	0	0	0	0	510	508	0	0	
3	0	0	0	0	511	507	0	0	
4	0	0	0	0	503	510	0	0	
5	0	0	0	0	505	508	0	0	
6	0	0	0	0	517	508	0	0	
7	0	0	0	0	515	509	0	0	
8	0	0	0	0	514	507	0	0	
9	0	0	0	0	512	508	0	0	
10	0	0	0	0	512	507	0	0	
11	0	0	0	0	515	506	0	0	
12	0	0	0	0	519	509	0	0	
13	0	0	0	0	519	508	0	0	
14	0	0	0	0	500	508	0	0	
15	0	0	0	0	503	510	0	0	
0	0	0	0	0	507	509	0	0	
1	0	0	0	0	509	507	0	0	
2	0	0	0	0	507	507	0	0	
3	0	0	0	0	508	508	0	0	
4	0	0	0	0	511	510	0	0	
5	0	0	0	0	515	509	0	0	
6	0	0	0	0	515	506	0	0	
7	0	0	0	0	510	507	0	0	
8	0	0	0	0	513	509	0	0	
9	0	0	0	0	512	507	0	0	
10	0	0	0	0	515	507	0	0	
11	0	0	0	0	513	510	0	0	
12	0	0	0	0	513	509	0	0	
13	0	0	0	0	516	507	0	0	
14	0	0	0	0	513	506	0	0	
15	0	0	0	0	508	508	0	0	
0	0	0	0	0	507	510	0	0	
1	0	0	0	0	509	508	0	0	
2	0	0	0	0	504	508	0	0	
3	0	0	0	0	504	508	0	0	
4	0	0	0	0	506	509	0	0	
5	0	0	0	0	512	510	0	0	
6	0	0	0	0	513	510	0	0	
7	0	0	0	0	512	508	0	0	
8	0	0	0	0	513	507	0	0	
9	0	0	0	0	515	507	0	0	
10	0	0	0	0	516	509	0	0	
11	0	0	0	0	512	508	0	0	
12	0	0	0	0	511	509	0	0	
13	0	0	0	0	511	508	0	0	
14	0	0	0	0	514	509	0	0	
15	0	0	0	0	513	508	0	0	
0	0	0	0	0	508	508	0	0	
1	0	0	0	0	511	509	0	0	
2	0	0	0	0	513	509	0	0	
3	0	0	0	0	513	505	0	0	
4	0	0	0	0	515	508	0	0	
5	0	0	0	0	515	507	0	0	
6	0	0	0	0	516	508	0	0	
7	0	0	0	0	500	506	0	0	
8	0	0	0	0	496	510	0	0	
9	0	0	0	0	490	510	0	0	
10	0	0	0	0	503	507	0	0	
11	0	0	0	0	509	509	0	0	
12	0	0	0	0	510	510	0	0	
13	0	0	0	0	515	509	0	0	
14	0	0	0	0	519	508	0	0	
15	0	0	0	0	518	508	0	0	
0	0	0	0	0	516	508	0	0	
1	0	0	0	0	521	508	0	0	
2	0	0	0	0	516	508	0	0	
3	0	0	0	0	511	508	0	0	
4	0	0	0	0	511	508	0	0	
5	0	0	0	0	513	509	0	0	
6	0	0	0	0	511	510	0	0	
7	0	0	0	0	506	506	0	0	
8	0	0	0	0	508	507	0	0	
9	0	0	0	0	505	507	0	0	
10	0	0	0	0	509	507	0	0	
11	0	0	0	0	511	508	0	0	
12	0	0	0	0	512	507	0	0	
13	0	0	0	0	515	508	0	0	
14	0	0	0	0	516	507	0	0	
15	0	0	0	0	511	508	0	0	
0	0	0	0	0	507	509	0	0	
1	0	0	0	0	509	507	0	0	
2	0	0	0	0	511	508	0	0	
3	0	0	0	0	506	508	0	0	
4	0	0	0	0	510	509	0	0	
5	0	0	0	0	518	508	0	0	
6	0	0	0	0	519	508	0	0	
7	0	0	0	0	512	508	0	0	
8	0	0	0	0	504	507	0	0	
9	0	0	0	0	504	508	0	0	
10	0	0	0	0	507	508	0	0	
11	0	0	0	0	509	508	0	0	
12	0	0	0	0	510	507	0	0	
13	0	0	0	0	508	510	0	0	
14	0	0	0	0	511	508	0	0	
15	0	0	0	0	518	507	0	0	
0	0	0	0	0	531	508	0	0	
1	0	0	0	0	521	509	0	0	
2	0	0	0	0	511	507	0	0	
3	0	0	0	0	508	509	0	0	
4	0	0	0	0	509	510	0	0	
5	0	0	0	0	505	508	0	0	
6	0	0	0	0	511	511	0	0	
7	0	0	0	0	510	509	0	0	
8	0	0	0	0	512	509	0	0	
9	0	0	0	0	515	510	0	0	
10	0	0	0	0	511	508	0	0	
11	0	0	0	0	512	508	0	0	
12	0	0	0	0	508	507	0	0	
13	0	0	0	0	506	508	0	0	
14	0	0	0	0	504	508	0	0	
15	0	0	0	0	493	508	0	0	
0	0	0	0	0	506	508	0	0	
1	0	0	0	0	510	509	0	0	
2	0	0	0	0	516	510	0	0	
3	0	0	0	0	518	508	0	0	
4	0	0	0	0	515	507	0	0	
5	0	0	0	0	518	507	0	0	
6	0	0	0	0	513	509	0	0	
7	0	0	0	0	515	508	0	0	
8	0	0	0	0	498	510	0	0	
9	0	0	0	0	508	510	0	0	
10	0	0	0	0	504	508	0	0	
11	0	0	0	0	508	507	0	0	
12	0	0	0	0	511	504	0	0	
13	0	0	0	0	515	509	0	0	
14	0	0	0	0	518	508	0	0	
15	0	0	0	0	519	510	0	0	
0	0	0	0	0	516	508	0	0	
1	0	0	0	0	512	507	0	0	
2	0	0	0	0	510	510	0	0	
3	0	0	0	0	512	508	0	0	
4	0	0	0	0	510	508	0	0	
5	0	0	0	0	507	510	0	0	
6	0	0	0	0	501	508	0	0	
7	0	0	0	0	506	507	0	0	
8	0	0	0	0	508	509	0	0	
9	0	0	0	0	510	508	0	0	
10	0	0	0	0	512	509	0	0	
11	0	0	0	0	516	508	0	0	
12	0	0	0	0	524	508	0	0	
13	0	0	0	0	519	508	0	0	
14	0	0	0	0	514	507	0	0	
15	0	0	0	0	511	508	0	0	
0	0	0	0	0	509	508	0	0	
1	0	0	0	0	508	509	0	0	
2	0	0	0	0	506	509	0	0	
3	0	0	0	0	512	508	0	0	
4	0	0	0	0	508	506	0	0	
5	0	0	0	0	512	510	0	0	
6	0	0	0	0	513	507	0	0	
7	0	0	0	0	516	506	0	0	
8	0	0	0	0	519	508	0	0	
9	0	0	0	0	516	507	0	0	
10	0	0	0	0	517	509	0	0	
11	0	0	0	0	518	508	0	0	
12	0	0	0	0	508	505	0	0	
13	0	0	0	0	500	507	0	0	
14	0	0	0	0	511	506	0	0	
15	0	0	0	0	520	509	0	0	
0	0	0	0	0	517	508	0	0	
1	0	0	0	0	515	511	0	0	
2	0	0	0	0	497	509	0	0	
3	0	0	0	0	500	508	0	0	
4	0	0	0	0	502	506	0	0	
5	0	0	0	0	493	506	0	0	
6	0	0	0	0	508	511	0	0	
7	0	0	0	0	507	508	0	0	
8	0	0	0	0	505	510	0	0	
9	0	0	0	0	507	506	0	0	
10	0	0	0	0	511	510	0	0	
11	0	0	0	0	510	509	0	0	
12	0	0	0	0	513	508	0	0	
13	0	0	0	0	513	506	0	0	
14	0	0	0	0	517	507	0	0	
15	0	0	0	0	521	508	0	0	
0	0	0	0	0	522	508	0	0	
1	0	0	0	0	513	509	0	0	
2	0	0	0	0	509	509	0	0	
3	0	0	0	0	509	510	0	0	
4	0	0	0	0	505	507	0	0	
5	0	0	0	0	509	510	0	0	
6	0	0	0	0	512	509	0	0	
7	0	0	0	0	506	508	0	0	
8	0	0	0	0	509	505	0	0	
9	0	0	0	0	507	508	0	0	
10	0	0	0	0	513	510	0	0	
11	0	0	0	0	523	506	0	0	
12	0	0	0	0	518	507	0	0	
13	0	0	0	0	512	507	0	0	
14	0	0	0	0	515	507	0	0	
15	0	0	0	0	523	512	0	0	
0	0	0	0	0	517	509	0	0	
1	0	0	0	0	509	509	0	0	
2	0	0	0	0	508	508	0	0	
3	0	0	0	0	508	509	0	0	
4	0	0	0	0	508	508	0	0	
5	0	0	0	0	508	509	0	0	
6	0	0	0	0	507	509	0	0	
7	0	0	0	0	508	510	0	0	
8	0	0	0	0	505	508	0	0	
9	0	0	0	0	508	508	0	0	
10	0	0	0	0	507	507	0	0	
11	0	0	0	0	505	505	0	0	
12	0	0	0	0	510	506	0	0	
13	0	0	0	0	516	508	0	0	
14	0	0	0	0	521	508	0	0	
15	0	0	0	0	524	508	0	0	
0	0	0	0	0	514	508	0	0	
1	0	0	0	0	506	508	0	0	
2	0	0	0	0	504	509	0	0	
3	0	0	0	0	502	511	0	0	
4	0	0	0	0	494	508	0	0	
5	0	0	0	0	514	509	0	0	
6	0	0	0	0	527	508	0	0	
7	0	0	0	0	532	508	0	0	
8	0	0	0	0	526	505	0	0	
9	0	0	0	0	519	508	0	0	
10	0	0	0	0	508	508	0	0	
11	0	0	0	0	503	509	0	0	
12	0	0	0	0	507	508	0	0	
13	0	0	0	0	504	509	0	0	
14	0	0	0	0	500	508	0	0	
15	0	0	0	0	494	508	0	0	
0	0	0	0	0	509	507	0	0	
1	0	0	0	0	519	510	0	0	
2	0	0	0	0	517	508	0	0	
3	0	0	0	0	519	508	0	0	
4	0	0	0	0	517	507	0	0	
5	0	0	0	0	511	508	0	0	
6	0	0	0	0	509	507	0	0	
7	0	0	0	0	511	508	0	0	
8	0	0	0	0	511	509	0	0	
9	0	0	0	0	511	507	0	0	
10	0	0	0	0	508	508	0	0	
11	0	0	0	0	512	510	0	0	
12	0	0	0	0	516	510	0	0	
13	0	0	0	0	512	507	0	0	
14	0	0	0	0	507	509	0	0	
15	0	0	0	0	504	508	0	0	
0	0	0	0	0	504	510	0	0	
1	0	0	0	0	508	508	0	0	
2	0	0	0	0	511	510	0	0	
3	0	0	0	0	516	508	0	0	
4	0	0	0	0	519	507	0	0	
5	0	0	0	0	516	507	0	0	
6	0	0	0	0	515	508	0	0	
7	0	0	0	0	516	508	0	0	
8	0	0	0	0	519	509	0	0	
9	0	0	0	0	511	509	0	0	
10	0	0	0	0	499	508	0	0	
11	0	0	0	0	510	510	0	0	
12	0	0	0	0	517	508	0	0	
13	0	0	0	0	513	507	0	0	
14	0	0	0	0	498	507	0	0	
15	0	0	0	0	501	508	0	0	
0	0	0	0	0	509	507	0	0	
1	0	0	0	0	496	508	0	0	
2	0	0	0	0	495	510	0	0	
3	0	0	0	0	506	509	0	0	
4	0	0	0	0	511	508	0	0	
5	0	0	0	0	524	512	0	0	
6	0	0	0	0	531	508	0	0	
7	0	0	0	0	526	506	0	0	
8	0	0	0	0	522	508	0	0	
9	0	0	0	0	498	509	0	0	
10	0	0	0	0	461	510	0	0	
11	0	0	0	0	479	509	0	0	
12	0	0	0	0	519	508	0	0	
13	0	0	0	0	531	510	0	0	
14	0	0	0	0	539	506	0	0	
15	0	0	0	0	531	506	0	0	
0	0	0	0	0	507	507	0	0	
1	0	0	0	0	500	509	0	0	
2	0	0	0	0	506	507	0	0	
3	0	0	0	0	503	511	0	0	
4	0	0	0	0	516	507	0	0	
5	0	0	0	0	531	507	0	0	
6	0	0	0	0	533	505	0	0	
7	0	0	0	0	542	505	0	0	
8	0	0	0	0	536	510	0	0	
9	0	0	0	0	542	511	0	0	
10	0	0	0	0	505	509	0	0	
11	0	0	0	0	448	511	0	0	
12	0	0	0	0	483	510	0	0	
13	0	0	0	0	499	507	0	0	
14	0	0	0	0	505	505	0	0	
15	0	0	0	0	504	508	0	0	
0	0	0	0	0	505	505	0	0	
1	0	0	0	0	513	508	0	0	
2	0	0	0	0	515	509	0	0	
3	0	0	0	0	513	508	0	0	
4	0	0	0	0	508	508	0	0	
5	0	0	0	0	513	506	0	0	
6	0	0	0	0	515	512	0	0	
7	0	0	0	0	509	511	0	0	
8	0	0	0	0	510	509	0	0	
9	0	0	0	0	510	507	0	0	
10	0	0	0	0	511	506	0	0	
11	0	0	0	0	512	508	0	0	
12	0	0	0	0	511	509	0	0	
13	0	0	0	0	511	508	0	0	
14	0	0	0	0	510	508	0	0	
15	0	0	0	0	509	504	0	0	
0	0	0	0	0	512	510	0	0	
1	0	0	0	0	511	509	0	0	
2	0	0	0	0	515	505	0	0	
3	0	0	0	0	516	508	0	0	
4	0	0	0	0	510	511	0	0	
5	0	0	0	0	505	510	0	0	
6	0	0	0	0	513	509	0	0	
7	0	0	0	0	523	510	0	0	
8	0	0	0	0	523	507	0	0	
9	0	0	0	0	522	508	0	0	
10	0	0	0	0	514	508	0	0	
11	0	0	0	0	502	509	0	0	
12	0	0	0	0	503	507	0	0	
13	0	0	0	0	509	508	0	0	
14	0	0	0	0	510	507	0	0	
15	0	0	0	0	506	510	0	0	
0	0	0	0	0	505	508	0	0	
1	0	0	0	0	495	511	0	0	
2	0	0	0	0	506	507	0	0	
3	0	0	0	0	512	507	0	0	
4	0	0	0	0	518	507	0	0	
5	0	0	0	0	518	510	0	0	
6	0	0	0	0	513	509	0	0	
7	0	0	0	0	511	508	0	0	
8	0	0	0	0	511	507	0	0	
9	0	0	0	0	508	508	0	0	
10	0	0	0	0	510	508	0	0	
11	0	0	0	0	511	507	0	0	
12	0	0	0	0	510	508	0	0	
13	0	0	0	0	527	508	0	0	
14	0	0	0	0	519	507	0	0	
15	0	0	0	0	482	510	0	0	
0	0	0	0	0	480	509	0	0	
1	0	0	0	0	492	509	0	0	
2	0	0	0	0	507	510	0	0	
3	0	0	0	0	515	508	0	0	
4	0	0	0	0	527	508	0	0	
5	0	0	0	0	535	508	0	0	
6	0	0	0	0	533	510	0	0	
7	0	0	0	0	536	507	0	0	
8	0	0	0	0	532	510	0	0	
9	0	0	0	0	520	510	0	0	
10	0	0	0	0	511	511	0	0	
11	0	0	0	0	516	510	0	0	
12	0	0	0	0	502	508	0	0	
13	0	0	0	0	465	508	0	0	
14	0	0	0	0	479	508	0	0	
15	0	0	0	0	503	505	0	0	
0	0	0	0	0	513	508	0	0	
1	0	0	0	0	514	506	0	0	
2	0	0	0	0	515	507	0	0	
3	0	0	0	0	512	508	0	0	
4	0	0	0	0	511	509	0	0	
5	0	0	0	0	513	508	0	0	
6	0	0	0	0	514	510	0	0	
7	0	0	0	0	513	507	0	0	
8	0	0	0	0	519	507	0	0	
9	0	0	0	0	521	510	0	0	
10	0	0	0	0	520	509	0	0	
11	0	0	0	0	511	506	0	0	
12	0	0	0	0	511	511	0	0	
13	0	0	0	0	515	509	0	0	
14	0	0	0	0	522	508	0	0	
15	0	0	0	0	521	508	0	0	
0	0	0	0	0	519	506	0	0	
1	0	0	0	0	512	504	0	0	
2	0	0	0	0	512	505	0	0	
3	0	0	0	0	515	508	0	0	
4	0	0	0	0	515	510	0	0	
5	0	0	0	0	508	507	0	0	
6	0	0	0	0	505	511	0	0	
7	0	0	0	0	508	510	0	0	
8	0	0	0	0	510	508	0	0	
9	0	0	0	0	503	507	0	0	
10	0	0	0	0	507	507	0	0	
11	0	0	0	0	511	507	0	0	
12	0	0	0	0	505	507	0	0	
13	0	0	0	0	499	509	0	0	
14	0	0	0	0	497	510	0	0	
15	0	0	0	0	503	507	0	0	
0	0	0	0	0	511	509	0	0	
1	0	0	0	0	507	510	0	0	
2	0	0	0	0	507	508	0	0	
3	0	0	0	0	513	506	0	0	
4	0	0	0	0	519	508	0	0	
5	0	0	0	0	522	508	0	0	
6	0	0	0	0	521	508	0	0	
7	0	0	0	0	508	507	0	0	
8	0	0	0	0	505	507	0	0	
9	0	0	0	0	503	508	0	0	
10	0	0	0	0	492	507	0	0	
11	0	0	0	0	515	507	0	0	
12	0	0	0	0	514	508	0	0	
13	0	0	0	0	517	508	0	0	
14	0	0	0	0	511	507	0	0	
15	0	0	0	0	514	509	0	0	
0	0	0	0	0	519	508	0	0	
1	0	0	0	0	523	510	0	0	
2	0	0	0	0	513	504	0	0	
3	0	0	0	0	507	505	0	0	
4	0	0	0	0	496	508	0	0	
5	0	0	0	0	505	507	0	0	
6	0	0	0	0	502	508	0	0	
7	0	0	0	0	515	508	0	0	
8	0	0	0	0	513	507	0	0	
9	0	0	0	0	504	512	0	0	
10	0	0	0	0	521	511	0	0	
11	0	0	0	0	511	510	0	0	
12	0	0	0	0	504	507	0	0	
13	0	0	0	0	501	505	0	0	
14	0	0	0	0	511	510	0	0	
15	0	0	0	0	518	509	0	0	
0	0	0	0	0	521	507	0	0	
1	0	0	0	0	528	507	0	0	
2	0	0	0	0	517	507	0	0	
3	0	0	0	0	510	509	0	0	
4	0	0	0	0	511	509	0	0	
5	0	0	0	0	500	508	0	0	
6	0	0	0	0	510	508	0	0	
7	0	0	0	0	509	507	0	0	
8	0	0	0	0	520	505	0	0	
9	0	0	0	0	533	508	0	0	
10	0	0	0	0	526	508	0	0	
11	0	0	0	0	504	509	0	0	
12	0	0	0	0	491	508	0	0	
13	0	0	0	0	493	506	0	0	
14	0	0	0	0	506	508	0	0	
15	0	0	0	0	513	508	0	0	
0	0	0	0	0	520	509	0	0	
1	0	0	0	0	519	508	0	0	
2	0	0	0	0	513	508	0	0	
3	0	0	0	0	507	512	0	0	
4	0	0	0	0	507	510	0	0	
5	0	0	0	0	511	509	0	0	
6	0	0	0	0	519	508	0	0	
7	0	0	0	0	522	507	0	0	
8	0	0	0	0	515	509	0	0	
9	0	0	0	0	496	507	0	0	
10	0	0	0	0	502	508	0	0	
11	0	0	0	0	503	508	0	0	
12	0	0	0	0	506	511	0	0	
13	0	0	0	0	507	508	0	0	
14	0	0	0	0	507	507	0	0	
15	0	0	0	0	509	508	0	0	
0	0	0	0	0	517	508	0	0	
1	0	0	0	0	516	507	0	0	
2	0	0	0	0	515	509	0	0	
3	0	0	0	0	515	507	0	0	
4	0	0	0	0	518	506	0	0	
5	0	0	0	0	515	508	0	0	
6	0	0	0	0	511	508	0	0	
7	0	0	0	0	511	508	0	0	
8	0	0	0	0	513	511	0	0	
9	0	0	0	0	523	509	0	0	
10	0	0	0	0	516	505	0	0	
11	0	0	0	0	507	510	0	0	
12	0	0	0	0	493	508	0	0	
13	0	0	0	0	506	509	0	0	
14	0	0	0	0	515	508	0	0	
15	0	0	0	0	505	505	0	0	
0	0	0	0	0	483	508	0	0	
1	0	0	0	0	492	510	0	0	
2	0	0	0	0	521	508	0	0	
3	0	0	0	0	527	508	0	0	
4	0	0	0	0	520	508	0	0	
5	0	0	0	0	509	508	0	0	
6	0	0	0	0	507	512	0	0	
7	0	0	0	0	512	511	0	0	
8	0	0	0	0	523	506	0	0	
9	0	0	0	0	521	503	0	0	
10	0	0	0	0	518	507	0	0	
11	0	0	0	0	509	511	0	0	
12	0	0	0	0	513	510	0	0	
13	0	0	0	0	513	510	0	0	
14	0	0	0	0	512	509	0	0	
15	0	0	0	0	512	511	0	0	
0	0	0	0	0	520	506	0	0	
1	0	0	0	0	511	507	0	0	
2	0	0	0	0	484	508	0	0	
3	0	0	0	0	496	505	0	0	
4	0	0	0	0	514	507	0	0	
5	0	0	0	0	517	508	0	0	
6	0	0	0	0	513	510	0	0	
7	0	0	0	0	504	510	0	0	
8	0	0	0	0	505	507	0	0	
9	0	0	0	0	507	505	0	0	
10	0	0	0	0	507	507	0	0	
11	0	0	0	0	512	508	0	0	
12	0	0	0	0	522	507	0	0	
13	0	0	0	0	516	507	0	0	
14	0	0	0	0	504	508	0	0	
15	0	0	0	0	487	510	0	0	
0	0	0	0	0	509	510	0	0	
1	0	0	0	0	537	506	0	0	
2	0	0	0	0	535	509	0	0	
3	0	0	0	0	528	508	0	0	
4	0	0	0	0	519	506	0	0	
5	0	0	0	0	515	508	0	0	
6	0	0	0	0	500	508	0	0	
7	0	0	0	0	463	509	0	0	
8	0	0	0	0	490	509	0	0	
9	0	0	0	0	513	509	0	0	
10	0	0	0	0	501	510	0	0	
11	0	0	0	0	511	511	0	0	
12	0	0	0	0	535	507	0	0	
13	0	0	0	0	523	508	0	0	
14	0	0	0	0	512	509	0	0	
15	0	0	0	0	512	510	0	0	
0	0	0	0	0	519	505	0	0	
1	0	0	0	0	509	508	0	0	
2	0	0	0	0	507	507	0	0	
3	0	0	0	0	508	508	0	0	
4	0	0	0	0	514	507	0	0	
5	0	0	0	0	517	508	0	0	
6	0	0	0	0	510	507	0	0	
7	0	0	0	0	511	506	0	0	
8	0	0	0	0	512	508	0	0	
9	0	0	0	0	512	507	0	0	
10	0	0	0	0	520	507	0	0	
11	0	0	0	0	521	506	0	0	
12	0	0	0	0	510	507	0	0	
13	0	0	0	0	501	510	0	0	
14	0	0	0	0	503	505	0	0	
15	0	0	0	0	509	509	0	0	
0	0	0	0	0	504	511	0	0	
1	0	0	0	0	518	511	0	0	
2	0	0	0	0	514	508	0	0	
3	0	0	0	0	512	507	0	0	
4	0	0	0	0	513	508	0	0	
5	0	0	0	0	507	507	0	0	
6	0	0	0	0	505	507	0	0	
7	0	0	0	0	511	510	0	0	
8	0	0	0	0	508	511	0	0	
9	0	0	0	0	523	508	0	0	
10	0	0	0	0	515	509	0	0	
11	0	0	0	0	504	509	0	0	
12	0	0	0	0	511	507	0	0	
13	0	0	0	0	510	509	0	0	
14	0	0	0	0	511	508	0	0	
15	0	0	0	0	500	507	0	0	
0	0	0	0	0	509	508	0	0	
1	0	0	0	0	513	509	0	0	
2	0	0	0	0	513	507	0	0	
3	0	0	0	0	512	508	0	0	
4	0	0	0	0	508	508	0	0	
5	0	0	0	0	504	508	0	0	
6	0	0	0	0	502	509	0	0	
7	0	0	0	0	508	508	0	0	
8	0	0	0	0	519	507	0	0	
9	0	0	0	0	522	508	0	0	
10	0	0	0	0	513	512	0	0	
11	0	0	0	0	507	509	0	0	
12	0	0	0	0	513	507	0	0	
13	0	0	0	0	516	508	0	0	
14	0	0	0	0	513	507	0	0	
15	0	0	0	0	513	506	0	0	
0	0	0	0	0	508	509	0	0	
1	0	0	0	0	507	510	0	0	
2	0	0	0	0	509	509	0	0	
3	0	0	0	0	508	509	0	0	
4	0	0	0	0	504	506	0	0	
5	0	0	0	0	504	508	0	0	
6	0	0	0	0	526	508	0	0	
7	0	0	0	0	523	507	0	0	
8	0	0	0	0	518	506	0	0	
9	0	0	0	0	526	509	0	0	
10	0	0	0	0	524	510	0	0	
11	0	0	0	0	510	507	0	0	
12	0	0	0	0	495	509	0	0	
13	0	0	0	0	485	508	0	0	
14	0	0	0	0	488	507	0	0	
15	0	0	0	0	507	507	0	0	
0	0	0	0	0	518	509	0	0	
1	0	0	0	0	523	509	0	0	
2	0	0	0	0	512	507	0	0	
3	0	0	0	0	522	512	0	0	
4	0	0	0	0	517	512	0	0	
5	0	0	0	0	512	506	0	0	
6	0	0	0	0	506	507	0	0	
7	0	0	0	0	509	504	0	0	
8	0	0	0	0	522	506	0	0	
9	0	0	0	0	536	508	0	0	
10	0	0	0	0	543	510	0	0	
11	0	0	0	0	540	510	0	0	
12	0	0	0	0	502	508	0	0	
13	0	0	0	0	480	511	0	0	
14	0	0	0	0	481	509	0	0	
15	0	0	0	0	489	504	0	0	
0	0	0	0	0	474	504	0	0	
1	0	0	0	0	498	506	0	0	
2	0	0	0	0	515	504	0	0	
3	0	0	0	0	519	507	0	0	
4	0	0	0	0	512	508	0	0	
5	0	0	0	0	513	511	0	0	
6	0	0	0	0	511	512	0	0	
7	0	0	0	0	506	510	0	0	
8	0	0	0	0	516	508	0	0	
9	0	0	0	0	512	505	0	0	
10	0	0	0	0	506	507	0	0	
11	0	0	0	0	513	505	0	0	
12	0	0	0	0	516	513	0	0	
13	0	0	0	0	523	509	0	0	
14	0	0	0	0	515	507	0	0	
15	0	0	0	0	505	507	0	0	
0	0	0	0	0	510	505	0	0	
1	0	0	0	0	513	504	0	0	
2	0	0	0	0	508	507	0	0	
3	0	0	0	0	488	511	0	0	
4	0	0	0	0	505	509	0	0	
5	0	0	0	0	519	510	0	0	
6	0	0	0	0	521	509	0	0	
7	0	0	0	0	527	512	0	0	
8	0	0	0	0	523	508	0	0	
9	0	0	0	0	515	508	0	0	
10	0	0	0	0	510	507	0	0	
11	0	0	0	0	498	509	0	0	
12	0	0	0	0	511	509	0	0	
13	0	0	0	0	514	508	0	0	
14	0	0	0	0	519	510	0	0	
15	0	0	0	0	519	507	0	0	
0	0	0	0	0	512	508	0	0	
1	0	0	0	0	511	509	0	0	
2	0	0	0	0	506	508	0	0	
3	0	0	0	0	506	510	0	0	
4	0	0	0	0	510	508	0	0	
5	0	0	0	0	511	509	0	0	
6	0	0	0	0	510	508	0	0	
7	0	0	0	0	510	511	0	0	
8	0	0	0	0	511	507	0	0	
9	0	0	0	0	508	507	0	0	
10	0	0	0	0	509	507	0	0	
11	0	0	0	0	511	510	0	0	
12	0	0	0	0	512	508	0	0	
13	0	0	0	0	511	506	0	0	
14	0	0	0	0	508	505	0	0	
15	0	0	0	0	510	509	0	0	
0	0	0	0	0	511	510	0	0	
1	0	0	0	0	513	508	0	0	
2	0	0	0	0	513	507	0	0	
3	0	0	0	0	512	508	0	0	
4	0	0	0	0	513	508	0	0	
5	0	0	0	0	510	511	0	0	
6	0	0	0	0	505	507	0	0	
7	0	0	0	0	504	508	0	0	
8	0	0	0	0	504	510	0	0	
9	0	0	0	0	512	506	0	0	
10	0	0	0	0	521	510	0	0	
11	0	0	0	0	513	507	0	0	
12	0	0	0	0	510	509	0	0	
13	0	0	0	0	516	507	0	0	
14	0	0	0	0	514	509	0	0	
15	0	0	0	0	513	508	0	0	
0	0	0	0	0	513	508	0	0	
1	0	0	0	0	512	507	0	0	
2	0	0	0	0	502	506	0	0	
3	0	0	0	0	505	508	0	0	
4	0	0	0	0	506	507	0	0	
5	0	0	0	0	500	509	0	0	
6	0	0	0	0	498	508	0	0	
7	0	0	0	0	509	508	0	0	
8	0	0	0	0	518	506	0	0	
9	0	0	0	0	539	509	0	0	
10	0	0	0	0	536	510	0	0	
11	0	0	0	0	514	509	0	0	
12	0	0	0	0	507	507	0	0	
13	0	0	0	0	514	510	0	0	
14	0	0	0	0	513	509	0	0	
15	0	0	0	0	516	506	0	0	
0	0	0	0	0	512	510	0	0	
1	0	0	0	0	497	508	0	0	
2	0	0	0	0	511	508	0	0	
3	0	0	0	0	514	509	0	0	
4	0	0	0	0	525	510	0	0	
5	0	0	0	0	507	508	0	0	
6	0	0	0	0	491	505	0	0	
7	0	0	0	0	484	508	0	0	
8	0	0	0	0	495	509	0	0	
9	0	0	0	0	505	509	0	0	
10	0	0	0	0	511	508	0	0	
11	0	0	0	0	519	505	0	0	
12	0	0	0	0	519	508	0	0	
13	0	0	0	0	513	510	0	0	
14	0	0	0	0	521	509	0	0	
15	0	0	0	0	519	507	0	0	
0	0	0	0	0	500	509	0	0	
1	0	0	0	0	503	506	0	0	
2	0	0	0	0	510	508	0	0	
3	0	0	0	0	511	509	0	0	
4	0	0	0	0	504	509	0	0	
5	0	0	0	0	496	508	0	0	
6	0	0	0	0	506	510	0	0	
7	0	0	0	0	524	508	0	0	
8	0	0	0	0	524	508	0	0	
9	0	0	0	0	528	510	0	0	
10	0	0	0	0	522	508	0	0	
11	0	0	0	0	511	508	0	0	
12	0	0	0	0	512	509	0	0	
13	0	0	0	0	511	505	0	0	
14	0	0	0	0	515	507	0	0	
15	0	0	0	0	512	506	0	0	
0	0	0	0	0	510	507	0	0	
1	0	0	0	0	507	507	0	0	
2	0	0	0	0	504	507	0	0	
3	0	0	0	0	499	507	0	0	
4	0	0	0	0	510	510	0	0	
5	0	0	0	0	524	509	0	0	
6	0	0	0	0	526	508	0	0	
7	0	0	0	0	515	508	0	0	
8	0	0	0	0	518	510	0	0	
9	0	0	0	0	515	509	0	0	
10	0	0	0	0	489	508	0	0	
11	0	0	0	0	501	506	0	0	
12	0	0	0	0	505	506	0	0	
13	0	0	0	0	499	509	0	0	
14	0	0	0	0	502	507	0	0	
15	0	0	0	0	510	508	0	0	
0	0	0	0	0	513	510	0	0	
1	0	0	0	0	520	511	0	0	
2	0	0	0	0	512	508	0	0	
3	0	0	0	0	511	508	0	0	
4	0	0	0	0	518	507	0	0	
5	0	0	0	0	515	507	0	0	
6	0	0	0	0	515	511	0	0	
7	0	0	0	0	511	507	0	0	
8	0	0	0	0	513	504	0	0	
9	0	0	0	0	512	509	0	0	
10	0	0	0	0	510	510	0	0	
11	0	0	0	0	512	509	0	0	
12	0	0	0	0	508	507	0	0	
13	0	0	0	0	499	508	0	0	
14	0	0	0	0	506	509	0	0	
15	0	0	0	0	510	509	0	0	
0	0	0	0	0	514	507	0	0	
1	0	0	0	0	511	507	0	0	
2	0	0	0	0	512	506	0	0	
3	0	0	0	0	512	510	0	0	
4	0	0	0	0	515	510	0	0	
5	0	0	0	0	515	510	0	0	
6	0	0	0	0	515	508	0	0	
7	0	0	0	0	501	507	0	0	
8	0	0	0	0	496	506	0	0	
9	0	0	0	0	496	509	0	0	
10	0	0	0	0	508	509	0	0	
11	0	0	0	0	524	508	0	0	
12	0	0	0	0	521	507	0	0	
13	0	0	0	0	523	506	0	0	
14	0	0	0	0	516	510	0	0	
15	0	0	0	0	519	508	0	0	
0	0	0	0	0	529	508	0	0	
1	0	0	0	0	513	509	0	0	
2	0	0	0	0	516	507	0	0	
3	0	0	0	0	515	511	0	0	
4	0	0	0	0	510	508	0	0	
5	0	0	0	0	501	508	0	0	
6	0	0	0	0	480	508	0	0	
7	0	0	0	0	494	510	0	0	
8	0	0	0	0	508	505	0	0	
9	0	0	0	0	505	507	0	0	
10	0	0	0	0	507	509	0	0	
11	0	0	0	0	512	510	0	0	
12	0	0	0	0	515	506	0	0	
13	0	0	0	0	514	507	0	0	
14	0	0	0	0	512	511	0	0	
15	0	0	0	0	512	508	0	0	
0	0	0	0	0	515	508	0	0	
1	0	0	0	0	510	508	0	0	
2	0	0	0	0	511	508	0	0	
3	0	0	0	0	510	508	0	0	
4	0	0	0	0	506	509	0	0	
5	0	0	0	0	501	508	0	0	
6	0	0	0	0	510	511	0	0	
7	0	0	0	0	520	511	0	0	
8	0	0	0	0	525	508	0	0	
9	0	0	0	0	520	510	0	0	
10	0	0	0	0	521	505	0	0	
11	0	0	0	0	516	506	0	0	
12	0	0	0	0	513	508	0	0	
13	0	0	0	0	509	508	0	0	
14	0	0	0	0	508	507	0	0	
15	0	0	0	0	504	507	0	0	
0	0	0	0	0	511	508	0	0	
1	0	0	0	0	517	508	0	0	
2	0	0	0	0	519	507	0	0	
3	0	0	0	0	515	507	0	0	
4	0	0	0	0	500	507	0	0	
5	0	0	0	0	506	507	0	0	
6	0	0	0	0	509	511	0	0	
7	0	0	0	0	512	507	0	0	
8	0	0	0	0	524	508	0	0	
9	0	0	0	0	524	508	0	0	
10	0	0	0	0	502	508	0	0	
11	0	0	0	0	489	511	0	0	
12	0	0	0	0	491	507	0	0	
13	0	0	0	0	505	507	0	0	
14	0	0	0	0	510	505	0	0	
15	0	0	0	0	520	510	0	0	
0	0	0	0	0	517	509	0	0	
1	0	0	0	0	508	506	0	0	
2	0	0	0	0	500	509	0	0	
3	0	0	0	0	504	508	0	0	
4	0	0	0	0	521	508	0	0	
5	0	0	0	0	523	510	0	0	
6	0	0	0	0	519	509	0	0	
7	0	0	0	0	515	508	0	0	
8	0	0	0	0	507	506	0	0	
9	0	0	0	0	504	507	0	0	
10	0	0	0	0	487	510	0	0	
11	0	0	0	0	497	507	0	0	
12	0	0	0	0	512	508	0	0	
13	0	0	0	0	514	508	0	0	
14	0	0	0	0	530	509	0	0	
15	0	0	0	0	549	510	0	0	
0	0	0	0	0	536	508	0	0	
1	0	0	0	0	514	508	0	0	
2	0	0	0	0	519	509	0	0	
3	0	0	0	0	513	506	0	0	
4	0	0	0	0	465	507	0	0	
5	0	0	0	0	487	509	0	0	
6	0	0	0	0	512	508	0	0	
7	0	0	0	0	510	508	0	0	
8	0	0	0	0	512	505	0	0	
9	0	0	0	0	520	508	0	0	
10	0	0	0	0	515	508	0	0	
11	0	0	0	0	506	508	0	0	
12	0	0	0	0	477	507	0	0	
13	0	0	0	0	494	507	0	0	
14	0	0	0	0	503	508	0	0	
15	0	0	0	0	514	508	0	0	
0	0	0	0	0	515	507	0	0	
1	0	0	0	0	513	507	0	0	
2	0	0	0	0	517	509	0	0	
3	0	0	0	0	524	508	0	0	
4	0	0	0	0	536	507	0	0	
5	0	0	0	0	527	507	0	0	
6	0	0	0	0	518	508	0	0	
7	0	0	0	0	511	510	0	0	
8	0	0	0	0	511	508	0	0	
9	0	0	0	0	516	509	0	0	
10	0	0	0	0	506	511	0	0	
11	0	0	0	0	516	508	0	0	
12	0	0	0	0	513	506	0	0	
13	0	0	0	0	515	506	0	0	
14	0	0	0	0	510	508	0	0	
15	0	0	0	0	492	508	0	0	
0	0	0	0	0	496	508	0	0	
1	0	0	0	0	511	510	0	0	
2	0	0	0	0	515	507	0	0	
3	0	0	0	0	525	509	0	0	
4	0	0	0	0	518	510	0	0	
5	0	0	0	0	508	508	0	0	
6	0	0	0	0	508	508	0	0	
7	0	0	0	0	501	508	0	0	
8	0	0	0	0	506	510	0	0	
9	0	0	0	0	512	508	0	0	
10	0	0	0	0	505	507	0	0	
11	0	0	0	0	510	508	0	0	
12	0	0	0	0	513	508	0	0	
13	0	0	0	0	511	509	0	0	
14	0	0	0	0	512	509	0	0	
15	0	0	0	0	512	508	0	0	
0	0	0	0	0	512	508	0	0	
1	0	0	0	0	509	509	0	0	
2	0	0	0	0	516	510	0	0	
3	0	0	0	0	515	509	0	0	
4	0	0	0	0	506	507	0	0	
5	0	0	0	0	511	508	0	0	
6	0	0	0	0	510	507	0	0	
7	0	0	0	0	516	507	0	0	
8	0	0	0	0	512	508	0	0	
9	0	0	0	0	515	508	0	0	
10	0	0	0	0	513	508	0	0	
11	0	0	0	0	514	509	0	0	
12	0	0	0	0	520	510	0	0	
13	0	0	0	0	512	509	0	0	
14	0	0	0	0	515	506	0	0	
15	0	0	0	0	510	507	0	0	
0	0	0	0	0	488	508	0	0	
1	0	0	0	0	498	509	0	0	
2	0	0	0	0	520	510	0	0	
3	0	0	0	0	514	510	0	0	
4	0	0	0	0	512	509	0	0	
5	0	0	0	0	511	509	0	0	
6	0	0	0	0	507	505	0	0	
7	0	0	0	0	501	504	0	0	
8	0	0	0	0	506	505	0	0	
9	0	0	0	0	519	506	0	0	
10	0	0	0	0	531	507	0	0	
11	0	0	0	0	528	510	0	0	
12	0	0	0	0	510	509	0	0	
13	0	0	0	0	486	509	0	0	
14	0	0	0	0	492	508	0	0	
15	0	0	0	0	493	507	0	0	
0	0	0	0	0	514	508	0	0	
1	0	0	0	0	508	509	0	0	
2	0	0	0	0	496	507	0	0	
3	0	0	0	0	494	508	0	0	
4	0	0	0	0	508	508	0	0	
5	0	0	0	0	527	507	0	0	
6	0	0	0	0	552	508	0	0	
7	0	0	0	0	543	508	0	0	
8	0	0	0	0	515	510	0	0	
9	0	0	0	0	507	510	0	0	
10	0	0	0	0	517	507	0	0	
11	0	0	0	0	515	510	0	0	
12	0	0	0	0	499	508	0	0	
13	0	0	0	0	502	510	0	0	
14	0	0	0	0	503	505	0	0	
15	0	0	0	0	505	508	0	0	
0	0	0	0	0	512	508	0	0	
1	0	0	0	0	508	507	0	0	
2	0	0	0	0	511	508	0	0	
3	0	0	0	0	515	510	0	0	
4	0	0	0	0	517	509	0	0	
5	0	0	0	0	515	510	0	0	
6	0	0	0	0	511	508	0	0	
7	0	0	0	0	509	506	0	0	
8	0	0	0	0	507	508	0	0	
9	0	0	0	0	509	507	0	0	
10	0	0	0	0	505	508	0	0	
11	0	0	0	0	506	507	0	0	
12	0	0	0	0	516	510	0	0	
13	0	0	0	0	520	511	0	0	
14	0	0	0	0	517	505	0	0	
15	0	0	0	0	519	508	0	0	
0	0	0	0	0	514	507	0	0	
1	0	0	0	0	504	507	0	0	
2	0	0	0	0	496	508	0	0	
3	0	0	0	0	511	508	0	0	
4	0	0	0	0	519	510	0	0	
5	0	0	0	0	518	509	0	0	
6	0	0	0	0	518	508	0	0	
7	0	0	0	0	505	509	0	0	
8	0	0	0	0	504	507	0	0	
9	0	0	0	0	504	509	0	0	
10	0	0	0	0	491	506	0	0	
11	0	0	0	0	503	507	0	0	
12	0	0	0	0	513	511	0	0	
13	0	0	0	0	516	509	0	0	
14	0	0	0	0	511	506	0	0	
15	0	0	0	0	511	508	0	0	
0	0	0	0	0	510	509	0	0	
1	0	0	0	0	506	509	0	0	
2	0	0	0	0	507	509	0	0	
3	0	0	0	0	516	506	0	0	
4	0	0	0	0	520	507	0	0	
5	0	0	0	0	525	509	0	0	
6	0	0	0	0	527	508	0	0	
7	0	0	0	0	519	508	0	0	
8	0	0	0	0	511	509	0	0	
9	0	0	0	0	505	506	0	0	
10	0	0	0	0	484	510	0	0	
11	0	0	0	0	499	509	0	0	
12	0	0	0	0	520	507	0	0	
13	0	0	0	0	511	509	0	0	
14	0	0	0	0	502	507	0	0	
15	0	0	0	0	511	507	0	0	
0	0	0	0	0	514	507	0	0	
1	0	0	0	0	514	507	0	0	
2	0	0	0	0	515	508	0	0	
3	0	0	0	0	510	508	0	0	
4	0	0	0	0	514	509	0	0	
5	0	0	0	0	514	508	0	0	
6	0	0	0	0	511	508	0	0	
7	0	0	0	0	509	508	0	0	
8	0	0	0	0	504	506	0	0	
9	0	0	0	0	504	507	0	0	
10	0	0	0	0	511	508	0	0	
11	0	0	0	0	519	506	0	0	
12	0	0	0	0	526	509	0	0	
13	0	0	0	0	525	507	0	0	
14	0	0	0	0	517	509	0	0	
15	0	0	0	0	499	508	0	0	
0	0	0	0	0	495	509	0	0	
1	0	0	0	0	501	508	0	0	
2	0	0	0	0	502	504	0	0	
3	0	0	0	0	511	510	0	0	
4	0	0	0	0	505	511	0	0	
5	0	0	0	0	521	510	0	0	
6	0	0	0	0	523	510	0	0	
7	0	0	0	0	511	508	0	0	
8	0	0	0	0	512	508	0	0	
9	0	0	0	0	519	508	0	0	
10	0	0	0	0	522	510	0	0	
11	0	0	0	0	518	505	0	0	
12	0	0	0	0	519	506	0	0	
13	0	0	0	0	518	507	0	0	
14	0	0	0	0	508	510	0	0	
15	0	0	0	0	501	510	0	0	
0	0	0	0	0	500	507	0	0	
1	0	0	0	0	505	507	0	0	
2	0	0	0	0	506	508	0	0	
3	0	0	0	0	492	506	0	0	
4	0	0	0	0	502	506	0	0	
5	0	0	0	0	517	510	0	0	
6	0	0	0	0	521	506	0	0	
7	0	0	0	0	489	511	0	0	
8	0	0	0	0	505	512	0	0	
9	0	0	0	0	520	507	0	0	
10	0	0	0	0	525	506	0	0	
11	0	0	0	0	523	504	0	0	
12	0	0	0	0	524	507	0	0	
13	0	0	0	0	518	508	0	0	
14	0	0	0	0	499	511	0	0	
15	0	0	0	0	500	506	0	0	
0	0	0	0	0	503	506	0	0	
1	0	0	0	0	513	510	0	0	
2	0	0	0	0	513	511	0	0	
3	0	0	0	0	510	508	0	0	
4	0	0	0	0	515	508	0	0	
5	0	0	0	0	518	509	0	0	
6	0	0	0	0	510	508	0	0	
7	0	0	0	0	516	509	0	0	
8	0	0	0	0	519	508	0	0	
9	0	0	0	0	515	507	0	0	
10	0	0	0	0	521	508	0	0	
11	0	0	0	0	508	509	0	0	
12	0	0	0	0	502	509	0	0	
13	0	0	0	0	498	506	0	0	
14	0	0	0	0	504	510	0	0	
15	0	0	0	0	507	506	0	0	
0	0	0	0	0	512	509	0	0	
1	0	0	0	0	511	509	0	0	
2	0	0	0	0	511	509	0	0	
3	0	0	0	0	515	508	0	0	
4	0	0	0	0	514	506	0	0	
5	0	0	0	0	515	509	0	0	
6	0	0	0	0	513	507	0	0	
7	0	0	0	0	509	507	0	0	
8	0	0	0	0	510	507	0	0	
9	0	0	0	0	508	508	0	0	
10	0	0	0	0	511	508	0	0	
11	0	0	0	0	513	512	0	0	
12	0	0	0	0	516	510	0	0	
13	0	0	0	0	515	510	0	0	
14	0	0	0	0	508	505	0	0	
15	0	0	0	0	508	507	0	0	
0	0	0	0	0	512	508	0	0	
1	0	0	0	0	515	505	0	0	
2	0	0	0	0	513	508	0	0	
3	0	0	0	0	515	507	0	0	
4	0	0	0	0	514	509	0	0	
5	0	0	0	0	510	507	0	0	
6	0	0	0	0	493	510	0	0	
7	0	0	0	0	486	510	0	0	
8	0	0	0	0	505	511	0	0	
9	0	0	0	0	521	508	0	0	
10	0	0	0	0	522	510	0	0	
11	0	0	0	0	522	512	0	0	
12	0	0	0	0	507	507	0	0	
13	0	0	0	0	506	507	0	0	
14	0	0	0	0	506	508	0	0	
15	0	0	0	0	507	509	0	0	
0	0	0	0	0	513	511	0	0	
1	0	0	0	0	513	508	0	0	
2	0	0	0	0	512	507	0	0	
3	0	0	0	0	516	510	0	0	
4	0	0	0	0	510	510	0	0	
5	0	0	0	0	513	509	0	0	
6	0	0	0	0	515	508	0	0	
7	0	0	0	0	511	506	0	0	
8	0	0	0	0	516	508	0	0	
9	0	0	0	0	519	510	0	0	
10	0	0	0	0	515	508	0	0	
11	0	0	0	0	509	507	0	0	
12	0	0	0	0	508	506	0	0	
13	0	0	0	0	511	506	0	0	
14	0	0	0	0	506	507	0	0	
15	0	0	0	0	506	507	0	0	
0	0	0	0	0	503	508	0	0	
1	0	0	0	0	511	509	0	0	
2	0	0	0	0	512	509	0	0	
3	0	0	0	0	509	508	0	0	
4	0	0	0	0	513	509	0	0	
5	0	0	0	0	509	511	0	0	
6	0	0	0	0	505	510	0	0	
7	0	0	0	0	506	508	0	0	
8	0	0	0	0	505	510	0	0	
9	0	0	0	0	509	510	0	0	
10	0	0	0	0	514	508	0	0	
11	0	0	0	0	517	505	0	0	
12	0	0	0	0	514	506	0	0	
13	0	0	0	0	513	507	0	0	
14	0	0	0	0	516	507	0	0	
15	0	0	0	0	517	507	0	0	
0	0	0	0	0	518	507	0	0	
1	0	0	0	0	519	508	0	0	
2	0	0	0	0	527	509	0	0	
3	0	0	0	0	522	508	0	0	
4	0	0	0	0	511	505	0	0	
5	0	0	0	0	505	508	0	0	
6	0	0	0	0	495	510	0	0	
7	0	0	0	0	495	508	0	0	
8	0	0	0	0	497	511	0	0	
9	0	0	0	0	511	510	0	0	
10	0	0	0	0	531	508	0	0	
11	0	0	0	0	529	508	0	0	
12	0	0	0	0	505	505	0	0	
13	0	0	0	0	490	508	0	0	
14	0	0	0	0	505	507	0	0	
15	0	0	0	0	511	510	0	0	
0	0	0	0	0	516	510	0	0	
1	0	0	0	0	513	509	0	0	
2	0	0	0	0	513	508	0	0	
3	0	0	0	0	507	509	0	0	
4	0	0	0	0	504	506	0	0	
5	0	0	0	0	506	507	0	0	
6	0	0	0	0	504	509	0	0	
7	0	0	0	0	507	506	0	0	
8	0	0	0	0	505	506	0	0	
9	0	0	0	0	508	507	0	0	
10	0	0	0	0	519	511	0	0	
11	0	0	0	0	524	507	0	0	
12	0	0	0	0	519	510	0	0	
13	0	0	0	0	508	508	0	0	
14	0	0	0	0	494	507	0	0	
15	0	0	0	0	495	508	0	0	
0	0	0	0	0	510	508	0	0	
1	0	0	0	0	527	510	0	0	
2	0	0	0	0	515	504	0	0	
3	0	0	0	0	502	509	0	0	
4	0	0	0	0	502	509	0	0	
5	0	0	0	0	511	509	0	0	
6	0	0	0	0	520	508	0	0	
7	0	0	0	0	526	510	0	0	
8	0	0	0	0	531	510	0	0	
9	0	0	0	0	531	508	0	0	
10	0	0	0	0	518	508	0	0	
11	0	0	0	0	506	508	0	0	
12	0	0	0	0	504	507	0	0	
13	0	0	0	0	512	508	0	0	
14	0	0	0	0	508	509	0	0	
15	0	0	0	0	514	508	0	0	
0	0	0	0	0	510	508	0	0	
1	0	0	0	0	509	507	0	0	
2	0	0	0	0	505	507	0	0	
3	0	0	0	0	507	508	0	0	
4	0	0	0	0	513	509	0	0	
5	0	0	0	0	518	508	0	0	
6	0	0	0	0	519	510	0	0	
7	0	0	0	0	520	508	0	0	
8	0	0	0	0	515	505	0	0	
9	0	0	0	0	499	508	0	0	
10	0	0	0	0	504	511	0	0	
11	0	0	0	0	503	509	0	0	
12	0	0	0	0	505	508	0	0	
13	0	0	0	0	507	508	0	0	
14	0	0	0	0	494	508	0	0	
15	0	0	0	0	508	510	0	0	
0	0	0	0	0	516	510	0	0	
1	0	0	0	0	512	509	0	0	
2	0	0	0	0	512	507	0	0	
3	0	0	0	0	514	509	0	0	
4	0	0	0	0	516	507	0	0	
5	0	0	0	0	515	508	0	0	
6	0	0	0	0	505	508	0	0	
7	0	0	0	0	499	507	0	0	
8	0	0	0	0	504	508	0	0	
9	0	0	0	0	512	507	0	0	
10	0	0	0	0	519	510	0	0	
11	0	0	0	0	515	505	0	0	
12	0	0	0	0	517	508	0	0	
13	0	0	0	0	512	512	0	0	
14	0	0	0	0	508	511	0	0	
15	0	0	0	0	502	508	0	0	
0	0	0	0	0	502	508	0	0	
1	0	0	0	0	511	508	0	0	
2	0	0	0	0	517	507	0	0	
3	0	0	0	0	524	510	0	0	
4	0	0	0	0	526	508	0	0	
5	0	0	0	0	519	508	0	0	
6	0	0	0	0	517	509	0	0	
7	0	0	0	0	511	509	0	0	
8	0	0	0	0	499	509	0	0	
9	0	0	0	0	512	509	0	0	
10	0	0	0	0	513	507	0	0	
11	0	0	0	0	509	507	0	0	
12	0	0	0	0	510	509	0	0	
13	0	0	0	0	513	508	0	0	
14	0	0	0	0	502	509	0	0	
15	0	0	0	0	505	508	0	0	
0	0	0	0	0	510	507	0	0	
1	0	0	0	0	513	508	0	0	
2	0	0	0	0	514	507	0	0	
3	0	0	0	0	514	508	0	0	
4	0	0	0	0	525	507	0	0	
5	0	0	0	0	521	508	0	0	
6	0	0	0	0	511	508	0	0	
7	0	0	0	0	505	509	0	0	
8	0	0	0	0	493	508	0	0	
9	0	0	0	0	487	506	0	0	
10	0	0	0	0	506	508	0	0	
11	0	0	0	0	514	508	0	0	
12	0	0	0	0	519	504	0	0	
13	0	0	0	0	527	508	0	0	
14	0	0	0	0	506	508	0	0	
15	0	0	0	0	503	508	0	0	
0	0	0	0	0	506	509	0	0	
1	0	0	0	0	504	510	0	0	
2	0	0	0	0	505	508	0	0	
3	0	0	0	0	512	509	0	0	
4	0	0	0	0	520	509	0	0	
5	0	0	0	0	529	506	0	0	
6	0	0	0	0	526	507	0	0	
7	0	0	0	0	507	509	0	0	
8	0	0	0	0	512	508	0	0	
9	0	0	0	0	516	508	0	0	
10	0	0	0	0	512	511	0	0	
11	0	0	0	0	502	506	0	0	
12	0	0	0	0	507	508	0	0	
13	0	0	0	0	508	505	0	0	
14	0	0	0	0	511	509	0	0	
15	0	0	0	0	510	509	0	0	
0	0	0	0	0	508	508	0	0	
1	0	0	0	0	509	511	0	0	
2	0	0	0	0	508	507	0	0	
3	0	0	0	0	512	506	0	0	
4	0	0	0	0	513	508	0	0	
5	0	0	0	0	520	509	0	0	
6	0	0	0	0	519	510	0	0	
7	0	0	0	0	512	508	0	0	
8	0	0	0	0	518	510	0	0	
9	0	0	0	0	517	506	0	0	
10	0	0	0	0	506	508	0	0	
11	0	0	0	0	509	505	0	0	
12	0	0	0	0	497	507	0	0	
13	0	0	0	0	491	507	0	0	
14	0	0	0	0	482	507	0	0	
15	0	0	0	0	505	510	0	0	
0	0	0	0	0	525	509	0	0	
1	0	0	0	0	530	508	0	0	
2	0	0	0	0	529	510	0	0	
3	0	0	0	0	526	509	0	0	
4	0	0	0	0	526	509	0	0	
5	0	0	0	0	511	508	0	0	
6	0	0	0	0	493	506	0	0	
7	0	0	0	0	479	508	0	0	
8	0	0	0	0	503	508	0	0	
9	0	0	0	0	499	509	0	0	
10	0	0	0	0	522	509	0	0	
11	0	0	0	0	518	510	0	0	
12	0	0	0	0	520	510	0	0	
13	0	0	0	0	510	509	0	0	
14	0	0	0	0	522	511	0	0	
15	0	0	0	0	516	510	0	0	
0	0	0	0	0	510	508	0	0	
1	0	0	0	0	503	507	0	0	
2	0	0	0	0	503	507	0	0	
3	0	0	0	0	503	507	0	0	
4	0	0	0	0	508	505	0	0	
5	0	0	0	0	511	505	0	0	
6	0	0	0	0	513	509	0	0	
7	0	0	0	0	517	509	0	0	
8	0	0	0	0	523	507	0	0	
9	0	0	0	0	513	508	0	0	
10	0	0	0	0	510	508	0	0	
11	0	0	0	0	504	509	0	0	
12	0	0	0	0	507	508	0	0	
13	0	0	0	0	508	509	0	0	
14	0	0	0	0	504	509	0	0	
15	0	0	0	0	511	509	0	0	
0	0	0	0	0	507	507	0	0	
1	0	0	0	0	530	505	0	0	
2	0	0	0	0	531	512	0	0	
3	0	0	0	0	504	510	0	0	
4	0	0	0	0	508	507	0	0	
5	0	0	0	0	519	509	0	0	
6	0	0	0	0	531	511	0	0	
7	0	0	0	0	529	508	0	0	
8	0	0	0	0	526	508	0	0	
9	0	0	0	0	513	507	0	0	
10	0	0	0	0	511	511	0	0	
11	0	0	0	0	501	511	0	0	
12	0	0	0	0	499	505	0	0	
13	0	0	0	0	505	507	0	0	
14	0	0	0	0	509	507	0	0	
15	0	0	0	0	508	508	0	0	
0	0	0	0	0	487	511	0	0	
1	0	0	0	0	491	509	0	0	
2	0	0	0	0	512	507	0	0	
3	0	0	0	0	518	508	0	0	
4	0	0	0	0	520	508	0	0	
5	0	0	0	0	514	508	0	0	
6	0	0	0	0	517	508	0	0	
7	0	0	0	0	515	510	0	0	
8	0	0	0	0	503	508	0	0	
9	0	0	0	0	504	509	0	0	
10	0	0	0	0	508	506	0	0	
11	0	0	0	0	506	508	0	0	
12	0	0	0	0	507	508	0	0	
13	0	0	0	0	504	505	0	0	
14	0	0	0	0	513	509	0	0	
15	0	0	0	0	508	508	0	0	
0	0	0	0	0	512	509	0	0	
1	0	0	0	0	518	509	0	0	
2	0	0	0	0	527	505	0	0	
3	0	0	0	0	520	508	0	0	
4	0	0	0	0	495	510	0	0	
5	0	0	0	0	504	511	0	0	
6	0	0	0	0	514	505	0	0	
7	0	0	0	0	503	507	0	0	
8	0	0	0	0	521	510	0	0	
9	0	0	0	0	524	509	0	0	
10	0	0	0	0	512	509	0	0	
11	0	0	0	0	508	508	0	0	
12	0	0	0	0	502	505	0	0	
13	0	0	0	0	504	506	0	0	
14	0	0	0	0	511	508	0	0	
15	0	0	0	0	512	507	0	0	
0	0	0	0	0	508	511	0	0	
1	0	0	0	0	512	507	0	0	
2	0	0	0	0	510	508	0	0	
3	0	0	0	0	494	509	0	0	
4	0	0	0	0	513	505	0	0	
5	0	0	0	0	535	508	0	0	
6	0	0	0	0	523	508	0	0	
7	0	0	0	0	515	510	0	0	
8	0	0	0	0	515	512	0	0	
9	0	0	0	0	516	508	0	0	
10	0	0	0	0	503	508	0	0	
11	0	0	0	0	506	508	0	0	
12	0	0	0	0	505	507	0	0	
13	0	0	0	0	510	508	0	0	
14	0	0	0	0	514	509	0	0	
15	0	0	0	0	516	509	0	0	
0	0	0	0	0	508	509	0	0	
1	0	0	0	0	513	507	0	0	
2	0	0	0	0	515	507	0	0	
3	0	0	0	0	516	508	0	0	
4	0	0	0	0	515	508	0	0	
5	0	0	0	0	508	507	0	0	
6	0	0	0	0	504	507	0	0	
7	0	0	0	0	500	510	0	0	
8	0	0	0	0	496	507	0	0	
9	0	0	0	0	504	508	0	0	
10	0	0	0	0	507	510	0	0	
11	0	0	0	0	511	509	0	0	
12	0	0	0	0	515	508	0	0	
13	0	0	0	0	523	508	0	0	
14	0	0	0	0	520	508	0	0	
15	0	0	0	0	516	510	0	0	
0	0	0	0	0	517	508	0	0	
1	0	0	0	0	520	506	0	0	
2	0	0	0	0	512	508	0	0	
3	0	0	0	0	509	509	0	0	
4	0	0	0	0	506	505	0	0	
5	0	0	0	0	500	509	0	0	
6	0	0	0	0	500	507	0	0	
7	0	0	0	0	511	507	0	0	
8	0	0	0	0	515	509	0	0	
9	0	0	0	0	515	505	0	0	
10	0	0	0	0	512	506	0	0	
11	0	0	0	0	505	511	0	0	
12	0	0	0	0	518	511	0	0	
13	0	0	0	0	522	508	0	0	
14	0	0	0	0	502	510	0	0	
15	0	0	0	0	503	509	0	0	
0	0	0	0	0	507	507	0	0	
1	0	0	0	0	512	507	0	0	
2	0	0	0	0	515	508	0	0	
3	0	0	0	0	512	507	0	0	
4	0	0	0	0	518	508	0	0	
5	0	0	0	0	514	511	0	0	
6	0	0	0	0	510	507	0	0	
7	0	0	0	0	509	508	0	0	
8	0	0	0	0	509	507	0	0	
9	0	0	0	0	503	508	0	0	
10	0	0	0	0	505	507	0	0	
11	0	0	0	0	512	511	0	0	
12	0	0	0	0	506	508	0	0	
13	0	0	0	0	500	509	0	0	
14	0	0	0	0	498	509	0	0	
15	0	0	0	0	504	508	0	0	
0	0	0	0	0	507	506	0	0	
1	0	0	0	0	521	509	0	0	
2	0	0	0	0	560	507	0	0	
3	0	0	0	0	541	509	0	0	
4	0	0	0	0	512	508	0	0	
5	0	0	0	0	504	509	0	0	
6	0	0	0	0	513	509	0	0	
7	0	0	0	0	512	507	0	0	
8	0	0	0	0	512	508	0	0	
9	0	0	0	0	511	507	0	0	
10	0	0	0	0	516	508	0	0	
11	0	0	0	0	512	507	0	0	
12	0	0	0	0	491	507	0	0	
13	0	0	0	0	508	510	0	0	
14	0	0	0	0	521	512	0	0	
15	0	0	0	0	505	508	0	0	
0	0	0	0	0	510	508	0	0	
1	0	0	0	0	494	506	0	0	
2	0	0	0	0	499	507	0	0	
3	0	0	0	0	511	508	0	0	
4	0	0	0	0	511	508	0	0	
5	0	0	0	0	507	508	0	0	
6	0	0	0	0	507	509	0	0	
7	0	0	0	0	511	510	0	0	
8	0	0	0	0	507	510	0	0	
9	0	0	0	0	509	509	0	0	
10	0	0	0	0	509	506	0	0	
11	0	0	0	0	519	505	0	0	
12	0	0	0	0	521	509	0	0	
13	0	0	0	0	513	506	0	0	
14	0	0	0	0	508	507	0	0	
15	0	0	0	0	512	507	0	0	
0	0	0	0	0	504	510	0	0	
1	0	0	0	0	504	510	0	0	
2	0	0	0	0	511	508	0	0	
3	0	0	0	0	504	509	0	0	
4	0	0	0	0	489	507	0	0	
5	0	0	0	0	507	509	0	0	
6	0	0	0	0	520	509	0	0	
7	0	0	0	0	516	512	0	0	
8	0	0	0	0	505	508	0	0	
9	0	0	0	0	509	506	0	0	
10	0	0	0	0	544	508	0	0	
11	0	0	0	0	526	509	0	0	
12	0	0	0	0	527	508	0	0	
13	0	0	0	0	521	507	0	0	
14	0	0	0	0	523	508	0	0	
15	0	0	0	0	517	505	0	0	
0	0	0	0	0	511	507	0	0	
1	0	0	0	0	512	509	0	0	
2	0	0	0	0	509	506	0	0	
3	0	0	0	0	514	508	0	0	
4	0	0	0	0	515	507	0	0	
5	0	0	0	0	510	510	0	0	
6	0	0	0	0	505	508	0	0	
7	0	0	0	0	503	508	0	0	
8	0	0	0	0	508	511	0	0	
9	0	0	0	0	507	508	0	0	
10	0	0	0	0	508	508	0	0	
11	0	0	0	0	510	506	0	0	
12	0	0	0	0	508	508	0	0	
13	0	0	0	0	496	507	0	0	
14	0	0	0	0	492	506	0	0	
15	0	0	0	0	503	510	0	0	
0	0	0	0	0	515	509	0	0	
1	0	0	0	0	517	507	0	0	
2	0	0	0	0	513	508	0	0	
3	0	0	0	0	505	508	0	0	
4	0	0	0	0	491	508	0	0	
5	0	0	0	0	503	508	0	0	
6	0	0	0	0	499	508	0	0	
7	0	0	0	0	509	509	0	0	
8	0	0	0	0	520	507	0	0	
9	0	0	0	0	529	508	0	0	
10	0	0	0	0	536	508	0	0	
11	0	0	0	0	512	508	0	0	
12	0	0	0	0	508	507	0	0	
13	0	0	0	0	516	507	0	0	
14	0	0	0	0	522	509	0	0	
15	0	0	0	0	521	510	0	0	
0	0	0	0	0	489	508	0	0	
1	0	0	0	0	506	509	0	0	
2	0	0	0	0	515	509	0	0	
3	0	0	0	0	512	509	0	0	
4	0	0	0	0	512	507	0	0	
5	0	0	0	0	515	507	0	0	
6	0	0	0	0	513	508	0	0	
7	0	0	0	0	506	507	0	0	
8	0	0	0	0	508	506	0	0	
9	0	0	0	0	510	507	0	0	
10	0	0	0	0	511	509	0	0	
11	0	0	0	0	512	508	0	0	
12	0	0	0	0	511	508	0	0	
13	0	0	0	0	508	510	0	0	
14	0	0	0	0	500	508	0	0	
15	0	0	0	0	496	507	0	0	
0	0	0	0	0	499	508	0	0	
1	0	0	0	0	504	510	0	0	
2	0	0	0	0	511	508	0	0	
3	0	0	0	0	519	508	0	0	
4	0	0	0	0	531	509	0	0	
5	0	0	0	0	531	508	0	0	
6	0	0	0	0	519	510	0	0	
7	0	0	0	0	513	508	0	0	
8	0	0	0	0	494	512	0	0	
9	0	0	0	0	489	510	0	0	
10	0	0	0	0	493	509	1	0	
11	0	0	0	0	500	505	0	0	
12	0	0	0	0	511	509	0	0	
13	0	0	0	0	527	508	0	0	
14	0	0	0	0	536	510	0	0	
15	0	0	0	0	541	507	0	0	
0	0	0	0	0	525	508	0	0	
1	0	0	0	0	502	509	0	0	
2	0	0	0	0	500	508	0	0	
3	0	0	0	0	506	510	0	0	
4	0	0	0	0	510	509	0	0	
5	0	0	0	0	513	505	0	0	
6	0	0	0	0	515	506	0	0	
7	0	0	0	0	510	505	0	0	
8	0	0	0	0	509	508	0	0	
9	0	0	0	0	513	508	0	0	
10	0	0	0	0	523	509	0	0	
11	0	0	0	0	519	507	0	0	
12	0	0	0	0	512	508	0	0	
13	0	0	0	0	513	509	0	0	
14	0	0	0	0	509	508	0	0	
15	0	0	0	0	506	508	0	0	
0	0	0	0	0	507	508	0	0	
1	0	0	0	0	507	509	0	0	
2	0	0	0	0	509	510	0	0	
3	0	0	0	0	504	510	0	0	
4	0	0	0	0	500	509	0	0	
5	0	0	0	0	502	508	0	0	
6	0	0	0	0	509	509	0	0	
7	0	0	0	0	508	508	0	0	
8	0	0	0	0	506	510	0	0	
9	0	0	0	0	509	506	0	0	
10	0	0	0	0	521	506	0	0	
11	0	0	0	0	527	508	0	0	
12	0	0	0	0	520	510	0	0	
13	0	0	0	0	514	510	0	0	
14	0	0	0	0	519	508	0	0	
15	0	0	0	0	512	507	0	0	
0	0	0	0	0	511	509	0	0	
1	0	0	0	0	512	506	0	0	
2	0	0	0	0	513	508	0	0	
3	0	0	0	0	510	508	0	0	
4	0	0	0	0	508	509	0	0	
5	0	0	0	0	511	507	0	0	
6	0	0	0	0	511	510	0	0	
7	0	0	0	0	508	508	0	0	
8	0	0	0	0	508	509	0	0	
9	0	0	0	0	507	508	0	0	
10	0	0	0	0	508	507	0	0	
11	0	0	0	0	509	507	0	0	
12	0	0	0	0	507	509	0	0	
13	0	0	0	0	505	509	0	0	
14	0	0	0	0	508	508	0	0	
15	0	0	0	0	508	507	0	0	
0	0	0	0	0	510	507	0	0	
1	0	0	0	0	509	508	0	0	
2	0	0	0	0	509	507	0	0	
3	0	0	0	0	512	508	0	0	
4	0	0	0	0	512	509	0	0	
5	0	0	0	0	512	509	0	0	
6	0	0	0	0	511	508	0	0	
7	0	0	0	0	510	507	0	0	
8	0	0	0	0	519	506	0	0	
9	0	0	0	0	518	508	0	0	
10	0	0	0	0	525	508	0	0	
11	0	0	0	0	530	507	0	0	
12	0	0	0	0	523	507	0	0	
13	0	0	0	0	519	510	0	0	
14	0	0	0	0	515	508	0	0	
15	0	0	0	0	511	509	0	0	
0	0	0	0	0	502	510	0	0	
1	0	0	0	0	502	506	0	0	
2	0	0	0	0	505	507	0	0	
3	0	0	0	0	506	510	0	0	
4	0	0	0	0	503	507	0	0	
5	0	0	0	0	502	507	0	0	
6	0	0	0	0	504	507	0	0	
7	0	0	0	0	511	510	0	0	
8	0	0	0	0	515	510	0	0	
9	0	0	0	0	517	505	0	0	
10	0	0	0	0	509	510	0	0	
11	0	0	0	0	509	504	0	0	
12	0	0	0	0	515	506	0	0	
13	0	0	0	0	515	508	0	0	
14	0	0	0	0	512	508	0	0	
15	0	0	0	0	510	509	0	0	
0	0	0	0	0	509	510	0	0	
1	0	0	0	0	511	508	0	0	
2	0	0	0	0	511	510	0	0	
3	0	0	0	0	509	507	0	0	
4	0	0	0	0	508	507	0	0	
5	0	0	0	0	507	506	0	0	
6	0	0	0	0	508	510	0	0	
7	0	0	0	0	512	508	0	0	
8	0	0	0	0	510	511	0	0	
9	0	0	0	0	512	510	0	0	
10	0	0	0	0	511	505	0	0	
11	0	0	0	0	509	509	0	0	
12	0	0	0	0	512	508	0	0	
13	0	0	0	0	512	507	0	0	
14	0	0	0	0	512	509	0	0	
15	0	0	0	0	512	509	0	0	
0	0	0	0	0	504	510	0	0	
1	0	0	0	0	503	509	0	0	
2	0	0	0	0	509	507	0	0	
3	0	0	0	0	512	509	0	0	
4	0	0	0	0	513	508	0	0	
5	0	0	0	0	509	508	0	0	
6	0	0	0	0	512	509	0	0	
7	0	0	0	0	512	508	0	0	
8	0	0	0	0	509	509	0	0	
9	0	0	0	0	508	508	0	0	
10	0	0	0	0	509	508	0	0	
11	0	0	0	0	508	507	0	0	
12	0	0	0	0	520	508	0	0	
13	0	0	0	0	527	508	0	0	
14	0	0	0	0	524	505	0	0	
15	0	0	0	0	518	508	0	0	
0	0	0	0	0	510	507	0	0	
1	0	0	0	0	519	509	0	0	
2	0	0	0	0	524	508	0	0	
3	0	0	0	0	524	508	0	0	
4	0	0	0	0	516	509	0	0	
5	0	0	0	0	491	510	0	0	
6	0	0	0	0	505	509	0	0	
7	0	0	0	0	512	505	0	0	
8	0	0	0	0	509	510	0	0	
9	0	0	0	0	509	508	0	0	
10	0	0	0	0	509	508	0	0	
11	0	0	0	0	506	508	0	0	
12	0	0	0	0	491	510	0	0	
13	0	0	0	0	500	506	0	0	
14	0	0	0	0	506	509	0	0	
15	0	0	0	0	504	511	0	0	
0	0	0	0	0	508	509	0	0	
1	0	0	0	0	512	508	0	0	
2	0	0	0	0	520	508	0	0	
3	0	0	0	0	518	508	0	0	
4	0	0	0	0	518	510	0	0	
5	0	0	0	0	515	508	0	0	
6	0	0	0	0	518	508	0	0	
7	0	0	0	0	518	507	0	0	
8	0	0	0	0	515	507	0	0	
9	0	0	0	0	508	507	0	0	
10	0	0	0	0	508	508	0	0	
11	0	0	0	0	506	509	0	0	
12	0	0	0	0	508	510	0	0	
13	0	0	0	0	504	507	0	0	
14	0	0	0	0	512	509	0	0	
15	0	0	0	0	521	512	0	0	
0	0	0	0	0	515	508	0	0	
1	0	0	0	0	511	506	0	0	
2	0	0	0	0	511	505	0	0	
3	0	0	0	0	506	510	0	0	
4	0	0	0	0	498	508	0	0	
5	0	0	0	0	499	508	0	0	
6	0	0	0	0	504	509	0	0	
7	0	0	0	0	511	507	0	0	
8	0	0	0	0	511	509	0	0	
9	0	0	0	0	519	508	0	0	
10	0	0	0	0	532	508	0	0	
11	0	0	0	0	526	508	0	0	
12	0	0	0	0	518	507	0	0	
13	0	0	0	0	511	509	0	0	
14	0	0	0	0	499	507	0	0	
15	0	0	0	0	496	508	0	0	
0	0	0	0	0	498	508	0	0	
1	0	0	0	0	508	508	0	0	
2	0	0	0	0	509	507	0	0	
3	0	0	0	0	515	511	0	0	
4	0	0	0	0	525	507	0	0	
5	0	0	0	0	536	507	0	0	
6	0	0	0	0	526	510	0	0	
7	0	0	0	0	509	507	0	0	
8	0	0	0	0	511	508	0	0	
9	0	0	0	0	503	508	0	0	
10	0	0	0	0	494	507	0	0	
11	0	0	0	0	504	508	0	0	
12	0	0	0	0	503	509	0	0	
13	0	0	0	0	507	509	0	0	
14	0	0	0	0	513	509	0	0	
15	0	0	0	0	513	506	0	0	
0	0	0	0	0	511	508	0	0	
1	0	0	0	0	513	507	0	0	
2	0	0	0	0	514	510	0	0	
3	0	0	0	0	513	508	0	0	
4	0	0	0	0	508	508	0	0	
5	0	0	0	0	504	508	0	0	
6	0	0	0	0	508	508	0	0	
7	0	0	0	0	511	509	0	0	
8	0	0	0	0	515	508	0	0	
9	0	0	0	0	510	506	0	0	
10	0	0	0	0	515	505	0	0	
11	0	0	0	0	515	508	0	0	
12	0	0	0	0	515	511	0	0	
13	0	0	0	0	507	507	0	0	
14	0	0	0	0	508	509	0	0	
15	0	0	0	0	511	508	0	0	
0	0	0	0	0	508	509	0	0	
1	0	0	0	0	509	508	0	0	
2	0	0	0	0	510	509	0	0	
3	0	0	0	0	507	508	0	0	
4	0	0	0	0	511	509	0	0	
5	0	0	0	0	512	507	0	0	
6	0	0	0	0	519	508	0	0	
7	0	0	0	0	520	507	0	0	
8	0	0	0	0	513	508	0	0	
9	0	0	0	0	509	509	0	0	
10	0	0	0	0	511	509	0	0	
11	0	0	0	0	512	507	0	0	
12	0	0	0	0	511	508	0	0	
13	0	0	0	0	514	507	0	0	
14	0	0	0	0	518	510	0	0	
15	0	0	0	0	516	509	0	0	
0	0	0	0	0	503	510	0	0	
1	0	0	0	0	493	508	0	0	
2	0	0	0	0	500	507	0	0	
3	0	0	0	0	514	508	0	0	
4	0	0	0	0	517	508	0	0	
5	0	0	0	0	513	509	0	0	
6	0	0	0	0	516	508	0	0	
7	0	0	0	0	515	504	0	0	
8	0	0	0	0	518	508	0	0	
9	0	0	0	0	514	508	0	0	
10	0	0	0	0	511	507	0	0	
11	0	0	0	0	507	508	0	0	
12	0	0	0	0	505	508	0	0	
13	0	0	0	0	509	508	0	0	
14	0	0	0	0	508	509	0	0	
15	0	0	0	0	513	508	0	0	
0	0	0	0	0	505	509	0	0	
1	0	0	0	0	497	508	0	0	
2	0	0	0	0	507	508	0	0	
3	0	0	0	0	513	510	0	0	
4	0	0	0	0	518	508	0	0	
5	0	0	0	0	513	511	0	0	
6	0	0	0	0	509	507	0	0	
7	0	0	0	0	500	510	0	0	
8	0	0	0	0	501	508	0	0	
9	0	0	0	0	508	508	0	0	
10	0	0	0	0	514	508	0	0	
11	0	0	0	0	518	508	0	0	
12	0	0	0	0	531	508	0	0	
13	0	0	0	0	543	509	0	0	
14	0	0	0	0	527	509	0	0	
15	0	0	0	0	521	508	0	0	
0	0	0	0	0	509	508	0	0	
1	0	0	0	0	499	507	0	0	
2	0	0	0	0	500	503	0	0	
3	0	0	0	0	508	510	0	0	
4	0	0	0	0	512	511	0	0	
5	0	0	0	0	512	507	0	0	
6	0	0	0	0	509	508	0	0	
7	0	0	0	0	507	508	0	0	
8	0	0	0	0	504	509	0	0	
9	0	0	0	0	495	507	0	0	
10	0	0	0	0	498	508	0	0	
11	0	0	0	0	507	509	0	0	
12	0	0	0	0	516	510	0	0	
13	0	0	0	0	524	508	0	0	
14	0	0	0	0	526	508	0	0	
15	0	0	0	0	532	508	0	0	
0	0	0	0	0	527	507	0	0	
1	0	0	0	0	515	507	0	0	
2	0	0	0	0	481	511	0	0	
3	0	0	0	0	492	510	0	0	
4	0	0	0	0	483	506	0	0	
5	0	0	0	0	514	506	0	0	
6	0	0	0	0	520	504	0	0	
7	0	0	0	0	518	509	0	0	
8	0	0	0	0	513	508	0	0	
9	0	0	0	0	510	509	0	0	
10	0	0	0	0	509	510	0	0	
11	0	0	0	0	509	511	0	0	
12	0	0	0	0	512	507	0	0	
13	0	0	0	0	514	508	0	0	
14	0	0	0	0	510	508	0	0	
15	0	0	0	0	511	508	0	0	
0	0	0	0	0	512	510	0	0	
1	0	0	0	0	515	510	0	0	
2	0	0	0	0	513	508	0	0	
3	0	0	0	0	502	507	0	0	
4	0	0	0	0	504	508	0	0	
5	0	0	0	0	508	510	0	0	
6	0	0	0	0	508	505	0	0	
7	0	0	0	0	504	505	0	0	
8	0	0	0	0	503	508	0	0	
9	0	0	0	0	509	508	0	0	
10	0	0	0	0	508	509	0	0	
11	0	0	0	0	512	507	0	0	
12	0	0	0	0	519	510	0	0	
13	0	0	0	0	517	510	0	0	
14	0	0	0	0	535	509	0	0	
15	0	0	0	0	533	508	0	0	
0	0	0	0	0	526	508	0	0	
1	0	0	0	0	524	507	0	0	
2	0	0	0	0	510	506	0	0	
3	0	0	0	0	502	508	0	0	
4	0	0	0	0	504	509	0	0	
5	0	0	0	0	505	509	0	0	
6	0	0	0	0	505	510	0	0	
7	0	0	0	0	501	508	0	0	
8	0	0	0	0	501	509	0	0	
9	0	0	0	0	504	508	0	0	
10	0	0	0	0	508	508	0	0	
11	0	0	0	0	504	510	0	0	
12	0	0	0	0	504	505	0	0	
13	0	0	0	0	511	508	0	0	
14	0	0	0	0	518	510	0	0	
15	0	0	0	0	521	508	0	0	
0	0	0	0	0	517	510	0	0	
1	0	0	0	0	508	508	0	0	
2	0	0	0	0	519	508	0	0	
3	0	0	0	0	515	509	0	0	
4	0	0	0	0	508	509	0	0	
5	0	0	0	0	510	509	0	0	
6	0	0	0	0	509	508	0	0	
7	0	0	0	0	518	506	0	0	
8	0	0	0	0	523	505	0	0	
9	0	0	0	0	512	505	0	0	
10	0	0	0	0	508	507	0	0	
11	0	0	0	0	505	509	0	0	
12	0	0	0	0	508	510	0	0	
13	0	0	0	0	518	511	0	0	
14	0	0	0	0	519	507	0	0	
15	0	0	0	0	515	508	0	0	
0	0	0	0	0	518	507	0	0	
1	0	0	0	0	503	510	0	0	
2	0	0	0	0	501	508	0	0	
3	0	0	0	0	484	508	0	0	
4	0	0	0	0	481	510	0	0	
5	0	0	0	0	503	507	0	0	
6	0	0	0	0	502	509	0	0	
7	0	0	0	0	513	508	0	0	
8	0	0	0	0	515	510	0	0	
9	0	0	0	0	533	506	0	0	
10	0	0	0	0	533	507	0	0	
11	0	0	0	0	524	510	0	0	
12	0	0	0	0	520	508	0	0	
13	0	0	0	0	514	508	0	0	
14	0	0	0	0	506	506	0	0	
15	0	0	0	0	499	507	0	0	
0	0	0	0	0	507	508	0	0	
1	0	0	0	0	510	510	0	0	
2	0	0	0	0	510	507	0	0	
3	0	0	0	0	512	509	0	0	
4	0	0	0	0	511	505	0	0	
5	0	0	0	0	511	508	0	0	
6	0	0	0	0	511	506	0	0	
7	0	0	0	0	508	506	0	0	
8	0	0	0	0	511	508	0	0	
9	0	0	0	0	506	508	0	0	
10	0	0	0	0	505	510	0	0	
11	0	0	0	0	497	508	0	0	
12	0	0	0	0	499	508	0	0	
13	0	0	0	0	512	507	0	0	
14	0	0	0	0	518	506	0	0	
15	0	0	0	0	521	507	0	0	
0	0	0	0	0	524	510	0	0	
1	0	0	0	0	524	512	0	0	
2	0	0	0	0	523	508	0	0	
3	0	0	0	0	511	505	0	0	
4	0	0	0	0	508	507	0	0	
5	0	0	0	0	511	508	0	0	
6	0	0	0	0	516	507	0	0	
7	0	0	0	0	514	510	0	0	
8	0	0	0	0	516	507	0	0	
9	0	0	0	0	519	506	0	0	
10	0	0	0	0	508	510	0	0	
11	0	0	0	0	500	508	0	0	
12	0	0	0	0	502	509	0	0	
13	0	0	0	0	505	507	0	0	
14	0	0	0	0	505	507	0	0	
15	0	0	0	0	505	508	0	0	
0	0	0	0	0	513	510	0	0	
1	0	0	0	0	518	508	0	0	
2	0	0	0	0	512	505	0	0	
3	0	0	0	0	517	511	0	0	
4	0	0	0	0	516	508	0	0	
5	0	0	0	0	518	509	0	0	
6	0	0	0	0	516	509	0	0	
7	0	0	0	0	509	508	0	0	
8	0	0	0	0	509	508	0	0	
9	0	0	0	0	508	508	0	0	
10	0	0	0	0	508	508	0	0	
11	0	0	0	0	510	506	0	0	
12	0	0	0	0	508	507	0	0	
13	0	0	0	0	506	507	0	0	
14	0	0	0	0	508	507	0	0	
15	0	0	0	0	508	509	0	0	
0	0	0	0	0	509	509	0	0	
1	0	0	0	0	506	508	0	0	
2	0	0	0	0	504	507	0	0	
3	0	0	0	0	514	508	0	0	
4	0	0	0	0	511	511	0	0	
5	0	0	0	0	510	508	0	0	
6	0	0	0	0	512	507	0	0	
7	0	0	0	0	516	510	0	0	
8	0	0	0	0	515	507	0	0	
9	0	0	0	0	517	507	0	0	
10	0	0	0	0	527	509	0	0	
11	0	0	0	0	509	505	0	0	
12	0	0	0	0	500	508	0	0	
13	0	0	0	0	519	510	0	0	
14	0	0	0	0	522	508	0	0	
15	0	0	0	0	517	509	0	0	
0	0	0	0	0	506	507	0	0	
1	0	0	0	0	493	510	0	0	
2	0	0	0	0	496	510	0	0	
3	0	0	0	0	494	507	0	0	
4	0	0	0	0	497	508	0	0	
5	0	0	0	0	508	507	0	0	
6	0	0	0	0	520	507	0	0	
7	0	0	0	0	514	509	0	0	
8	0	0	0	0	516	508	0	0	
9	0	0	0	0	515	507	0	0	
10	0	0	0	0	509	506	0	0	
11	0	0	0	0	519	509	0	0	
12	0	0	0	0	519	507	0	0	
13	0	0	0	0	522	508	0	0	
14	0	0	0	0	521	507	0	0	
15	0	0	0	0	513	507	0	0	
0	0	0	0	0	509	507	0	0	
1	0	0	0	0	510	508	0	0	
2	0	0	0	0	509	510	0	0	
3	0	0	0	0	510	508	0	0	
4	0	0	0	0	510	509	0	0	
5	0	0	0	0	508	508	0	0	
6	0	0	0	0	509	506	0	0	
7	0	0	0	0	510	508	0	0	
8	0	0	0	0	505	510	0	0	
9	0	0	0	0	505	510	0	0	
10	0	0	0	0	510	508	0	0	
11	0	0	0	0	513	507	0	0	
12	0	0	0	0	510	507	0	0	
13	0	0	0	0	511	508	0	0	
14	0	0	0	0	510	508	0	0	
15	0	0	0	0	514	510	0	0	
0	0	0	0	0	514	508	0	0	
1	0	0	0	0	514	509	0	0	
2	0	0	0	0	511	508	0	0	
3	0	0	0	0	509	508	0	0	
4	0	0	0	0	508	507	0	0	
5	0	0	0	0	501	508	0	0	
6	0	0	0	0	504	508	0	0	
7	0	0	0	0	507	507	0	0	
8	0	0	0	0	506	508	0	0	
9	0	0	0	0	512	508	0	0	
10	0	0	0	0	525	508	0	0	
11	0	0	0	0	537	507	0	0	
12	0	0	0	0	527	508	0	0	
13	0	0	0	0	508	505	0	0	
14	0	0	0	0	505	505	0	0	
15	0	0	0	0	503	510	0	0	
0	0	0	0	0	490	508	0	0	
1	0	0	0	0	501	510	0	0	
2	0	0	0	0	517	507	0	0	
3	0	0	0	0	516	508	0	0	
4	0	0	0	0	521	509	0	0	
5	0	0	0	0	520	506	0	0	
6	0	0	0	0	518	511	0	0	
7	0	0	0	0	511	507	0	0	
8	0	0	0	0	510	509	0	0	
9	0	0	0	0	512	508	0	0	
10	0	0	0	0	514	506	0	0	
11	0	0	0	0	507	509	0	0	
12	0	0	0	0	503	506	0	0	
13	0	0	0	0	503	508	0	0	
14	0	0	0	0	501	509	0	0	
15	0	0	0	0	502	510	0	0	
0	0	0	0	0	508	507	0	0	
1	0	0	0	0	508	509	0	0	
2	0	0	0	0	515	508	0	0	
3	0	0	0	0	520	508	0	0	
4	0	0	0	0	525	508	0	0	
5	0	0	0	0	527	507	0	0	
6	0	0	0	0	502	509	0	0	
7	0	0	0	0	509	507	0	0	
8	0	0	0	0	513	509	0	0	
9	0	0	0	0	511	509	0	0	
10	0	0	0	0	511	508	0	0	
11	0	0	0	0	504	504	0	0	
12	0	0	0	0	503	507	0	0	
13	0	0	0	0	508	508	0	0	
14	0	0	0	0	515	507	0	0	
15	0	0	0	0	521	508	0	0	
0	0	0	0	0	519	508	0	0	
1	0	0	0	0	519	507	0	0	
2	0	0	0	0	511	508	0	0	
3	0	0	0	0	505	507	0	0	
4	0	0	0	0	508	509	0	0	
5	0	0	0	0	508	508	0	0	
6	0	0	0	0	509	509	0	0	
7	0	0	0	0	510	510	0	0	
8	0	0	0	0	513	509	0	0	
9	0	0	0	0	510	508	0	0	
10	0	0	0	0	505	507	0	0	
11	0	0	0	0	511	507	0	0	
12	0	0	0	0	510	508	0	0	
13	0	0	0	0	511	509	0	0	
14	0	0	0	0	511	511	0	0	
15	0	0	0	0	506	505	0	0	
0	0	0	0	0	511	506	0	0	
1	0	0	0	0	513	508	0	0	
2	0	0	0	0	512	507	0	0	
3	0	0	0	0	512	509	0	0	
4	0	0	0	0	513	508	0	0	
5	0	0	0	0	511	507	0	0	
6	0	0	0	0	511	508	0	0	
7	0	0	0	0	507	506	0	0	
8	0	0	0	0	508	511	0	0	
9	0	0	0	0	508	507	0	0	
10	0	0	0	0	515	509	0	0	
11	0	0	0	0	513	508	0	0	
12	0	0	0	0	510	509	0	0	
13	0	0	0	0	511	511	0	0	
14	0	0	0	0	508	510	0	0	
15	0	0	0	0	512	508	0	0	
0	0	0	0	0	512	508	0	0	
1	0	0	0	0	512	509	0	0	
2	0	0	0	0	513	504	0	0	
3	0	0	0	0	513	506	0	0	
4	0	0	0	0	511	508	0	0	
5	0	0	0	0	507	508	0	0	
6	0	0	0	0	504	509	0	0	
7	0	0	0	0	507	508	0	0	
8	0	0	0	0	508	510	0	0	
9	0	0	0	0	512	507	0	0	
10	0	0	0	0	514	508	0	0	
11	0	0	0	0	518	506	0	0	
12	0	0	0	0	524	509	0	0	
13	0	0	0	0	520	507	0	0	
14	0	0	0	0	499	507	0	0	
15	0	0	0	0	513	508	0	0	
0	0	0	0	0	516	509	0	0	
1	0	0	0	0	520	510	0	0	
2	0	0	0	0	515	510	0	0	
3	0	0	0	0	505	509	0	0	
4	0	0	0	0	501	510	0	0	
5	0	0	0	0	510	508	0	0	
6	0	0	0	0	509	507	0	0	
7	0	0	0	0	509	509	0	0	
8	0	0	0	0	511	506	0	0	
9	0	0	0	0	519	509	0	0	
10	0	0	0	0	519	508	0	0	
11	0	0	0	0	515	510	0	0	
12	0	0	0	0	514	509	0	0	
13	0	0	0	0	511	508	0	0	
14	0	0	0	0	508	507	0	0	
15	0	0	0	0	508	509	0	0	
0	0	0	0	0	513	511	0	0	
1	0	0	0	0	509	509	0	0	
2	0	0	0	0	509	508	0	0	
3	0	0	0	0	512	508	0	0	
4	0	0	0	0	511	507	0	0	
5	0	0	0	0	512	508	0	0	
6	0	0	0	0	506	505	0	0	
7	0	0	0	0	496	508	0	0	
8	0	0	0	0	505	508	0	0	
9	0	0	0	0	510	508	0	0	
10	0	0	0	0	511	505	0	0	
11	0	0	0	0	511	505	0	0	
12	0	0	0	0	514	509	0	0	
13	0	0	0	0	517	509	0	0	
14	0	0	0	0	513	507	0	0	
15	0	0	0	0	514	511	0	0	
0	0	0	0	0	512	507	0	0	
1	0	0	0	0	511	508	0	0	
2	0	0	0	0	510	509	0	0	
3	0	0	0	0	505	507	0	0	
4	0	0	0	0	507	508	0	0	
5	0	0	0	0	506	507	0	0	
6	0	0	0	0	510	507	0	0	
7	0	0	0	0	512	509	0	0	
8	0	0	0	0	515	509	0	0	
9	0	0	0	0	519	509	0	0	
10	0	0	0	0	519	506	0	0	
11	0	0	0	0	514	507	0	0	
12	0	0	0	0	510	508	0	0	
13	0	0	0	0	509	508	0	0	
14	0	0	0	0	511	509	0	0	
15	0	0	0	0	514	507	0	0	
0	0	0	0	0	513	509	0	0	
1	0	0	0	0	512	506	0	0	
2	0	0	0	0	513	507	0	0	
3	0	0	0	0	513	507	0	0	
4	0	0	0	0	509	506	0	0	
5	0	0	0	0	510	509	0	0	
6	0	0	0	0	510	511	0	0	
7	0	0	0	0	508	509	0	0	
8	0	0	0	0	511	509	0	0	
9	0	0	0	0	508	506	0	0	
10	0	0	0	0	510	505	0	0	
11	0	0	0	0	511	511	0	0	
12	0	0	0	0	510	507	0	0	
13	0	0	0	0	509	510	0	0	
14	0	0	0	0	513	508	0	0	
15	0	0	0	0	515	510	0	0	
0	0	0	0	0	516	506	0	0	
1	0	0	0	0	511	510	0	0	
2	0	0	0	0	514	510	0	0	
3	0	0	0	0	511	508	0	0	
4	0	0	0	0	506	508	0	0	
5	0	0	0	0	505	508	0	0	
6	0	0	0	0	513	507	0	0	
7	0	0	0	0	516	508	0	0	
8	0	0	0	0	517	507	0	0	
9	0	0	0	0	513	509	0	0	
10	0	0	0	0	510	511	0	0	
11	0	0	0	0	506	510	0	0	
12	0	0	0	0	508	507	0	0	
13	0	0	0	0	505	504	0	0	
14	0	0	0	0	506	507	0	0	
15	0	0	0	0	514	510	0	0	
0	0	0	0	0	519	504	0	0	
1	0	0	0	0	521	509	0	0	
2	0	0	0	0	513	506	0	0	
3	0	0	0	0	515	510	0	0	
4	0	0	0	0	510	510	0	0	
5	0	0	0	0	509	508	0	0	
6	0	0	0	0	511	507	0	0	
7	0	0	0	0	509	506	0	0	
8	0	0	0	0	511	510	0	0	
9	0	0	0	0	512	509	0	0	
10	0	0	0	0	512	508	0	0	
11	0	0	0	0	511	510	0	0	
12	0	0	0	0	510	507	0	0	
13	0	0	0	0	508	508	0	0	
14	0	0	0	0	510	509	0	0	
15	0	0	0	0	510	508	0	0	
0	0	0	0	0	508	505	0	0	
1	0	0	0	0	506	505	0	0	
2	0	0	0	0	507	509	0	0	
3	0	0	0	0	513	509	0	0	
4	0	0	0	0	514	507	0	0	
5	0	0	0	0	511	506	0	0	
6	0	0	0	0	510	507	0	0	
7	0	0	0	0	513	508	0	0	
8	0	0	0	0	519	511	0	0	
9	0	0	0	0	513	507	0	0	
10	0	0	0	0	514	510	0	0	
11	0	0	0	0	514	507	0	0	
12	0	0	0	0	510	508	0	0	
13	0	0	0	0	511	509	0	0	
14	0	0	0	0	510	509	0	0	
15	0	0	0	0	508	510	0	0	
0	0	0	0	0	506	506	0	0	
1	0	0	0	0	506	506	0	0	
2	0	0	0	0	511	508	0	0	
3	0	0	0	0	511	509	0	0	
4	0	0	0	0	513	508	0	0	
5	0	0	0	0	507	507	0	0	
6	0	0	0	0	509	506	0	0	
7	0	0	0	0	512	507	0	0	
8	0	0	0	0	513	508	0	0	
9	0	0	0	0	518	508	0	0	
10	0	0	0	0	524	508	0	0	
11	0	0	0	0	519	508	0	0	
12	0	0	0	0	504	510	0	0	
13	0	0	0	0	494	510	0	0	
14	0	0	0	0	512	507	0	0	
15	0	0	0	0	518	506	0	0	
0	0	0	0	0	515	507	0	0	
1	0	0	0	0	505	508	0	0	
2	0	0	0	0	499	510	0	0	
3	0	0	0	0	510	509	0	0	
4	0	0	0	0	512	507	0	0	
5	0	0	0	0	511	508	0	0	
6	0	0	0	0	509	508	0	0	
7	0	0	0	0	510	509	0	0	
8	0	0	0	0	511	508	0	0	
9	0	0	0	0	509	507	0	0	
10	0	0	0	0	511	510	0	0	
11	0	0	0	0	509	508	0	0	
12	0	0	0	0	513	509	0	0	
13	0	0	0	0	513	505	0	0	
14	0	0	0	0	514	507	0	0	
15	0	0	0	0	513	508	0	0	
0	0	0	0	0	512	511	0	0	
1	0	0	0	0	513	509	0	0	
2	0	0	0	0	511	507	0	0	
3	0	0	0	0	509	505	0	0	
4	0	0	0	0	512	508	0	0	
5	0	0	0	0	510	506	0	0	
6	0	0	0	0	510	508	0	0	
7	0	0	0	0	508	507	0	0	
8	0	0	0	0	505	506	0	0	
9	0	0	0	0	509	511	0	0	
10	0	0	0	0	512	509	0	0	
11	0	0	0	0	516	509	0	0	
12	0	0	0	0	525	508	0	0	
13	0	0	0	0	518	507	0	0	
14	0	0	0	0	512	508	0	0	
15	0	0	0	0	518	508	0	0	
0	0	0	0	0	516	510	0	0	
1	0	0	0	0	508	508	0	0	
2	0	0	0	0	508	508	0	0	
3	0	0	0	0	514	509	0	0	
4	0	0	0	0	512	508	0	0	
5	0	0	0	0	513	508	0	0	
6	0	0	0	0	509	507	0	0	
7	0	0	0	0	502	507	0	0	
8	0	0	0	0	505	509	0	0	
9	0	0	0	0	506	508	0	0	
10	0	0	0	0	509	509	0	0	
11	0	0	0	0	508	507	0	0	
12	0	0	0	0	511	509	0	0	
13	0	0	0	0	524	508	0	0	
14	0	0	0	0	521	507	0	0	
15	0	0	0	0	513	506	0	0	
0	0	0	0	0	510	508	0	0	
1	0	0	0	0	508	506	0	0	
2	0	0	0	0	506	508	0	0	
3	0	0	0	0	508	509	0	0	
4	0	0	0	0	511	508	0	0	
5	0	0	0	0	511	510	0	0	
6	0	0	0	0	511	510	0	0	
7	0	0	0	0	508	508	0	0	
8	0	0	0	0	510	508	0	0	
9	0	0	0	0	510	509	0	0	
10	0	0	0	0	512	509	0	0	
11	0	0	0	0	508	508	0	0	
12	0	0	0	0	508	510	0	0	
13	0	0	0	0	510	507	0	0	
14	0	0	0	0	510	510	0	0	
15	0	0	0	0	514	510	0	0	
0	0	0	0	0	515	507	0	0	
1	0	0	0	0	511	507	0	0	
2	0	0	0	0	509	507	0	0	
3	0	0	0	0	511	507	0	0	
4	0	0	0	0	512	508	0	0	
5	0	0	0	0	508	509	0	0	
6	0	0	0	0	511	509	0	0	
7	0	0	0	0	510	507	0	0	
8	0	0	0	0	511	507	0	0	
9	0	0	0	0	502	508	0	0	
10	0	0	0	0	513	508	0	0	
11	0	0	0	0	508	509	0	0	
12	0	0	0	0	504	508	0	0	
13	0	0	0	0	502	508	0	0	
14	0	0	0	0	510	510	0	0	
15	0	0	0	0	508	504	0	0	
0	0	0	0	0	508	507	0	0	
1	0	0	0	0	518	509	0	0	
2	0	0	0	0	523	507	0	0	
3	0	0	0	0	521	509	0	0	
4	0	0	0	0	516	508	0	0	
5	0	0	0	0	513	508	0	0	
6	0	0	0	0	512	508	0	0	
7	0	0	0	0	510	510	0	0	
8	0	0	0	0	512	508	0	0	
9	0	0	0	0	511	504	0	0	
10	0	0	0	0	502	507	0	0	
11	0	0	0	0	512	509	0	0	
12	0	0	0	0	520	508	0	0	
13	0	0	0	0	515	508	0	0	
14	0	0	0	0	504	505	0	0	
15	0	0	0	0	515	508	0	0	
0	0	0	0	0	522	508	0	0	
1	0	0	0	0	514	509	0	0	
2	0	0	0	0	513	507	0	0	
3	0	0	0	0	512	508	0	0	
4	0	0	0	0	512	509	0	0	
5	0	0	0	0	505	509	0	0	
6	0	0	0	0	501	507	0	0	
7	0	0	0	0	508	508	0	0	
8	0	0	0	0	508	506	0	0	
9	0	0	0	0	509	510	0	0	
10	0	0	0	0	512	509	0	0	
11	0	0	0	0	511	508	0	0	
12	0	0	0	0	510	510	0	0	
13	0	0	0	0	510	505	0	0	
14	0	0	0	0	509	508	0	0	
15	0	0	0	0	510	509	0	0	
0	0	0	0	0	510	508	0	0	
1	0	0	0	0	511	510	0	0	
2	0	0	0	0	502	508	0	0	
3	0	0	0	0	508	510	0	0	
4	0	0	0	0	518	507	0	0	
5	0	0	0	0	519	506	0	0	
6	0	0	0	0	514	505	0	0	
7	0	0	0	0	496	508	0	0	
8	0	0	0	0	511	508	0	0	
9	0	0	0	0	514	507	0	0	
10	0	0	0	0	512	510	0	0	
11	0	0	0	0	513	508	0	0	
12	0	0	0	0	510	507	0	0	
13	0	0	0	0	512	508	0	0	
14	0	0	0	0	513	508	0	0	
15	0	0	0	0	511	508	0	0	
0	0	0	0	0	511	507	0	0	
1	0	0	0	0	511	507	0	0	
2	0	0	0	0	510	508	0	0	
3	0	0	0	0	508	510	0	0	
4	0	0	0	0	508	508	0	0	
5	0	0	0	0	510	510	0	0	
6	0	0	0	0	511	508	0	0	
7	0	0	0	0	513	509	0	0	
8	0	0	0	0	515	507	0	0	
9	0	0	0	0	513	507	0	0	
10	0	0	0	0	511	506	0	0	
11	0	0	0	0	509	507	0	0	
12	0	0	0	0	511	508	0	0	
13	0	0	0	0	511	508	0	0	
14	0	0	0	0	513	511	0	0	
15	0	0	0	0	515	509	0	0	
0	0	0	0	0	509	507	0	0	
1	0	0	0	0	510	508	0	0	
2	0	0	0	0	505	506	0	0	
3	0	0	0	0	506	507	0	0	
4	0	0	0	0	510	508	0	0	
5	0	0	0	0	508	507	0	0	
6	0	0	0	0	509	508	0	0	
7	0	0	0	0	510	510	0	0	
8	0	0	0	0	517	510	0	0	
9	0	0	0	0	516	510	0	0	
10	0	0	0	0	519	507	0	0	
11	0	0	0	0	519	505	0	0	
12	0	0	0	0	523	507	0	0	
13	0	0	0	0	523	510	0	0	
14	0	0	0	0	505	509	0	0	
15	0	0	0	0	504	507	0	0	
0	0	0	0	0	510	508	0	0	
1	0	0	0	0	503	510	0	0	
2	0	0	0	0	504	508	0	0	
3	0	0	0	0	508	510	0	0	
4	0	0	0	0	509	505	0	0	
5	0	0	0	0	508	507	0	0	
6	0	0	0	0	511	509	0	0	
7	0	0	0	0	509	508	0	0	
8	0	0	0	0	508	511	0	0	
9	0	0	0	0	508	507	0	0	
10	0	0	0	0	512	508	0	0	
11	0	0	0	0	513	510	0	0	
12	0	0	0	0	510	508	0	0	
13	0	0	0	0	511	508	0	0	
14	0	0	0	0	508	507	0	0	
15	0	0	0	0	513	507	0	0	
0	0	0	0	0	513	509	0	0	
1	0	0	0	0	514	509	0	0	
2	0	0	0	0	519	508	0	0	
3	0	0	0	0	518	507	0	0	
4	0	0	0	0	516	508	0	0	
5	0	0	0	0	515	509	0	0	
6	0	0	0	0	512	507	0	0	
7	0	0	0	0	511	508	0	0	
8	0	0	0	0	493	507	0	0	
9	0	0	0	0	501	509	0	0	
10	0	0	0	0	509	509	0	0	
11	0	0	0	0	514	508	0	0	
12	0	0	0	0	513	509	0	0	
13	0	0	0	0	506	506	0	0	
14	0	0	0	0	507	508	0	0	
15	0	0	0	0	511	506	0	0	
0	0	0	0	0	517	509	0	0	
1	0	0	0	0	516	507	0	0	
2	0	0	0	0	516	509	0	0	
3	0	0	0	0	518	507	0	0	
4	0	0	0	0	517	509	0	0	
5	0	0	0	0	518	510	0	0	
6	0	0	0	0	511	509	0	0	
7	0	0	0	0	507	509	0	0	
8	0	0	0	0	510	508	0	0	
9	0	0	0	0	511	507	0	0	
10	0	0	0	0	508	507	0	0	
11	0	0	0	0	508	510	0	0	
12	0	0	0	0	510	506	0	0	
13	0	0	0	0	512	508	0	0	
14	0	0	0	0	508	510	0	0	
15	0	0	0	0	505	508	0	0	
0	0	0	0	0	501	510	0	0	
1	0	0	0	0	499	507	0	0	
2	0	0	0	0	502	508	0	0	
3	0	0	0	0	505	506	0	0	
4	0	0	0	0	514	511	0	0	
5	0	0	0	0	522	508	0	0	
6	0	0	0	0	519	507	0	0	
7	0	0	0	0	515	507	0	0	
8	0	0	0	0	519	508	0	0	
9	0	0	0	0	518	511	0	0	
10	0	0	0	0	509	506	0	0	
11	0	0	0	0	510	507	0	0	
12	0	0	0	0	515	508	0	0	
13	0	0	0	0	513	507	0	0	
14	0	0	0	0	510	506	0	0	
15	0	0	0	0	510	508	0	0	
0	0	0	0	0	507	508	0	0	
1	0	0	0	0	509	508	0	0	
2	0	0	0	0	514	508	0	0	
3	0	0	0	0	511	508	0	0	
4	0	0	0	0	513	508	0	0	
5	0	0	0	0	511	508	0	0	
6	0	0	0	0	517	508	0	0	
7	0	0	0	0	515	509	0	0	
8	0	0	0	0	514	509	0	0	
9	0	0	0	0	513	510	0	0	
10	0	0	0	0	512	504	0	0	
11	0	0	0	0	512	507	0	0	
12	0	0	0	0	506	508	0	0	
13	0	0	0	0	503	508	0	0	
14	0	0	0	0	491	510	0	0	
15	0	0	0	0	501	508	0	0	
0	0	0	0	0	512	507	0	0	
1	0	0	0	0	517	508	0	0	
2	0	0	0	0	515	510	0	0	
3	0	0	0	0	513	508	0	0	
4	0	0	0	0	511	506	0	0	
5	0	0	0	0	509	508	0	0	
6	0	0	0	0	511	509	0	0	
7	0	0	0	0	508	506	0	0	
8	0	0	0	0	510	510	0	0	
9	0	0	0	0	510	508	0	0	
10	0	0	0	0	515	507	0	0	
11	0	0	0	0	516	509	0	0	
12	0	0	0	0	518	506	0	0	
13	0	0	0	0	513	508	0	0	
14	0	0	0	0	509	506	0	0	
15	0	0	0	0	512	511	0	0	
0	0	0	0	0	512	510	0	0	
1	0	0	0	0	510	508	0	0	
2	0	0	0	0	513	508	0	0	
3	0	0	0	0	511	508	0	0	
4	0	0	0	0	515	508	0	0	
5	0	0	0	0	514	508	0	0	
6	0	0	0	0	517	510	0	0	
7	0	0	0	0	511	508	0	0	
8	0	0	0	0	507	506	0	0	
9	0	0	0	0	503	507	0	0	
10	0	0	0	0	509	511	0	0	
11	0	0	0	0	510	507	0	0	
12	0	0	0	0	511	506	0	0	
13	0	0	0	0	506	507	0	0	
14	0	0	0	0	508	508	0	0	
15	0	0	0	0	510	508	0	0	
0	0	0	0	0	513	507	0	0	
1	0	0	0	0	511	508	0	0	
2	0	0	0	0	510	507	0	0	
3	0	0	0	0	512	507	0	0	
4	0	0	0	0	517	510	0	0	
5	0	0	0	0	512	508	0	0	
6	0	0	0	0	512	512	0	0	
7	0	0	0	0	515	505	0	0	
8	0	0	0	0	517	510	0	0	
9	0	0	0	0	512	510	0	0	
10	0	0	0	0	510	506	0	0	
11	0	0	0	0	509	510	0	0	
12	0	0	0	0	508	507	0	0	
13	0	0	0	0	503	508	0	0	
14	0	0	0	0	499	509	0	0	
15	0	0	0	0	511	508	0	0	
0	0	0	0	0	514	507	0	0	
1	0	0	0	0	510	506	0	0	
2	0	0	0	0	508	509	0	0	
3	0	0	0	0	516	506	0	0	
4	0	0	0	0	521	508	0	0	
5	0	0	0	0	521	509	0	0	
6	0	0	0	0	516	506	0	0	
7	0	0	0	0	514	507	0	0	
8	0	0	0	0	510	507	0	0	
9	0	0	0	0	495	507	0	0	
10	0	0	0	0	497	508	0	0	
11	0	0	0	0	510	507	0	0	
12	0	0	0	0	511	510	0	0	
13	0	0	0	0	515	510	0	0	
14	0	0	0	0	512	509	0	0	
15	0	0	0	0	511	508	0	0	
0	0	0	0	0	511	508	0	0	
1	0	0	0	0	512	510	0	0	
2	0	0	0	0	511	508	0	0	
3	0	0	0	0	513	508	0	0	
4	0	0	0	0	513	508	0	0	
5	0	0	0	0	512	505	0	0	
6	0	0	0	0	515	508	0	0	
7	0	0	0	0	512	509	0	0	
8	0	0	0	0	512	508	0	0	
9	0	0	0	0	511	508	0	0	
10	0	0	0	0	510	508	0	0	
11	0	0	0	0	510	509	0	0	
12	0	0	0	0	509	508	0	0	
13	0	0	0	0	509	509	0	0	
14	0	0	0	0	508	507	0	0	
15	0	0	0	0	507	508	0	0	
0	0	0	0	0	511	508	0	0	
1	0	0	0	0	512	509	0	0	
2	0	0	0	0	511	505	0	0	
3	0	0	0	0	513	510	0	0	
4	0	0	0	0	513	508	0	0	
5	0	0	0	0	512	508	0	0	
6	0	0	0	0	512	511	0	0	
7	0	0	0	0	507	508	0	0	
8	0	0	0	0	509	509	0	0	
9	0	0	0	0	511	509	0	0	
10	0	0	0	0	511	509	0	0	
11	0	0	0	0	510	508	0	0	
12	0	0	0	0	512	510	0	0	
13	0	0	0	0	514	507	0	0	
14	0	0	0	0	515	507	0	0	
15	0	0	0	0	512	509	0	0	
0	0	0	0	0	511	507	0	0	
1	0	0	0	0	509	507	0	0	
2	0	0	0	0	511	508	0	0	
3	0	0	0	0	512	508	0	0	
4	0	0	0	0	513	509	0	0	
5	0	0	0	0	515	507	0	0	
6	0	0	0	0	509	510	0	0	
7	0	0	0	0	506	507	0	0	
8	0	0	0	0	505	506	0	0	
9	0	0	0	0	505	508	0	0	
10	0	0	0	0	505	507	0	0	
11	0	0	0	0	500	507	0	0	
12	0	0	0	0	500	507	0	0	
13	0	0	0	0	504	508	0	0	
14	0	0	0	0	509	509	0	0	
15	0	0	0	0	517	506	0	0	
0	0	0	0	0	527	510	0	0	
1	0	0	0	0	536	509	0	0	
2	0	0	0	0	540	511	0	0	
3	0	0	0	0	527	510	0	0	
4	0	0	0	0	512	509	0	0	
5	0	0	0	0	499	508	0	0	
6	0	0	0	0	504	507	0	0	
7	0	0	0	0	505	507	0	0	
8	0	0	0	0	510	507	0	0	
9	0	0	0	0	510	508	0	0	
10	0	0	0	0	508	510	0	0	
11	0	0	0	0	506	508	0	0	
12	0	0	0	0	499	507	0	0	
13	0	0	0	0	502	506	0	0	
14	0	0	0	0	513	508	0	0	
15	0	0	0	0	513	506	0	0	
0	0	0	0	0	517	507	0	0	
1	0	0	0	0	512	510	0	0	
2	0	0	0	0	511	508	0	0	
3	0	0	0	0	510	509	0	0	
4	0	0	0	0	513	508	0	0	
5	0	0	0	0	514	505	0	0	
6	0	0	0	0	514	509	0	0	
7	0	0	0	0	513	510	0	0	
8	0	0	0	0	508	508	0	0	
9	0	0	0	0	511	508	0	0	
10	0	0	0	0	508	508	0	0	
11	0	0	0	0	510	508	0	0	
12	0	0	0	0	512	508	0	0	
13	0	0	0	0	508	510	0	0	
14	0	0	0	0	507	508	0	0	
15	0	0	0	0	513	509	0	0	
0	0	0	0	0	512	506	0	0	
1	0	0	0	0	515	510	0	0	
