# OpenSignals Text File Format. Version 1
# {"20:18:06:13:21:78": {"position": 0, "device": "bitalino_rev", "device name": "20:18:06:13:21:78", "device connection": "BTH20:18:06:13:21:78", "sampling rate": 1000, "resolution": [4, 1, 1, 1, 1, 10, 10, 10, 10], "firmware version": 1281, "comments": "", "keywords": "", "mode": 0, "sync interval": 2, "date": "2023-5-30", "time": "20:2:8.304", "channels": [1, 2, 3, 4], "sensor": ["EMGBITREV", "EMGBITREV", "RAW", "RAW"], "label": ["A1", "A2", "A3", "A4"], "column": ["nSeq", "I1", "I2", "O1", "O2", "A1", "A2", "A3", "A4"], "special": [{}, {}, {}, {}], "digital IO": [0, 0, 1, 1]}}
# EndOfHeader
0	0	0	0	0	508	509	0	0	
1	0	0	0	0	508	508	0	0	
2	0	0	0	0	513	509	0	0	
3	0	0	0	0	515	510	0	0	
4	0	0	0	0	516	511	0	0	
5	0	0	0	0	515	509	0	0	
6	0	0	0	0	512	508	0	0	
7	0	0	0	0	510	508	0	0	
8	0	0	0	0	507	510	0	0	
9	0	0	0	0	510	508	0	0	
10	0	0	0	0	506	507	0	0	
11	0	0	0	0	503	508	0	0	
12	0	0	0	0	508	507	0	0	
13	0	0	0	0	509	507	0	0	
14	0	0	0	0	513	508	0	0	
15	0	0	0	0	511	508	0	0	
0	0	0	0	0	512	506	0	0	
1	0	0	0	0	521	508	0	0	
2	0	0	0	0	519	507	0	0	
3	0	0	0	0	517	506	0	0	
4	0	0	0	0	511	509	0	0	
5	0	0	0	0	509	510	0	0	
6	0	0	0	0	508	507	0	0	
7	0	0	0	0	506	510	0	0	
8	0	0	0	0	504	510	0	0	
9	0	0	0	0	508	508	0	0	
10	0	0	0	0	511	511	0	0	
11	0	0	0	0	511	509	0	0	
12	0	0	0	0	512	508	0	0	
13	0	0	0	0	515	508	0	0	
14	0	0	0	0	512	506	0	0	
15	0	0	0	0	511	505	0	0	
0	0	0	0	0	510	506	0	0	
1	0	0	0	0	515	506	0	0	
2	0	0	0	0	515	505	0	0	
3	0	0	0	0	511	507	0	0	
4	0	0	0	0	511	507	0	0	
5	0	0	0	0	513	507	0	0	
6	0	0	0	0	511	508	0	0	
7	0	0	0	0	509	508	0	0	
8	0	0	0	0	510	510	0	0	
9	0	0	0	0	509	509	0	0	
10	0	0	0	0	510	510	0	0	
11	0	0	0	0	509	508	0	0	
12	0	0	0	0	510	510	0	0	
13	0	0	0	0	510	510	0	0	
14	0	0	0	0	510	507	0	0	
15	0	0	0	0	510	510	0	0	
0	0	0	0	0	509	508	0	0	
1	0	0	0	0	511	510	0	0	
2	0	0	0	0	511	508	0	0	
3	0	0	0	0	510	509	0	0	
4	0	0	0	0	509	507	0	0	
5	0	0	0	0	512	508	0	0	
6	0	0	0	0	513	505	0	0	
7	0	0	0	0	511	507	0	0	
8	0	0	0	0	511	508	0	0	
9	0	0	0	0	512	507	0	0	
10	0	0	0	0	514	506	0	0	
11	0	0	0	0	510	509	0	0	
12	0	0	0	0	513	508	0	0	
13	0	0	0	0	511	509	0	0	
14	0	0	0	0	511	511	0	0	
15	0	0	0	0	508	509	0	0	
0	0	0	0	0	511	509	0	0	
1	0	0	0	0	512	508	0	0	
2	0	0	0	0	513	508	0	0	
3	0	0	0	0	511	507	0	0	
4	0	0	0	0	510	510	0	0	
5	0	0	0	0	511	509	0	0	
6	0	0	0	0	512	506	0	0	
7	0	0	0	0	512	508	0	0	
8	0	0	0	0	509	508	0	0	
9	0	0	0	0	510	506	0	0	
10	0	0	0	0	509	508	0	0	
11	0	0	0	0	508	508	0	0	
12	0	0	0	0	510	506	0	0	
13	0	0	0	0	508	507	0	0	
14	0	0	0	0	514	507	0	0	
15	0	0	0	0	511	507	0	0	
0	0	0	0	0	512	508	0	0	
1	0	0	0	0	512	509	0	0	
2	0	0	0	0	511	509	0	0	
3	0	0	0	0	510	509	0	0	
4	0	0	0	0	512	508	0	0	
5	0	0	0	0	513	508	0	0	
6	0	0	0	0	511	508	0	0	
7	0	0	0	0	514	509	0	0	
8	0	0	0	0	510	509	0	0	
9	0	0	0	0	509	509	0	0	
10	0	0	0	0	509	506	0	0	
11	0	0	0	0	510	507	0	0	
12	0	0	0	0	512	507	0	0	
13	0	0	0	0	512	505	0	0	
14	0	0	0	0	513	508	0	0	
15	0	0	0	0	514	506	0	0	
0	0	0	0	0	513	507	0	0	
1	0	0	0	0	511	508	0	0	
2	0	0	0	0	509	507	0	0	
3	0	0	0	0	509	509	0	0	
4	0	0	0	0	509	509	0	0	
5	0	0	0	0	510	510	0	0	
6	0	0	0	0	509	509	0	0	
7	0	0	0	0	510	510	0	0	
8	0	0	0	0	510	510	0	0	
9	0	0	0	0	511	507	0	0	
10	0	0	0	0	510	509	0	0	
11	0	0	0	0	507	508	0	0	
12	0	0	0	0	510	509	0	0	
13	0	0	0	0	510	507	0	0	
14	0	0	0	0	510	507	0	0	
15	0	0	0	0	515	507	0	0	
0	0	0	0	0	511	507	0	0	
1	0	0	0	0	511	506	0	0	
2	0	0	0	0	514	507	0	0	
3	0	0	0	0	510	508	0	0	
4	0	0	0	0	508	507	0	0	
5	0	0	0	0	510	505	0	0	
6	0	0	0	0	510	506	0	0	
7	0	0	0	0	513	508	0	0	
8	0	0	0	0	513	509	0	0	
9	0	0	0	0	513	510	0	0	
10	0	0	0	0	509	508	0	0	
11	0	0	0	0	506	510	0	0	
12	0	0	0	0	505	509	0	0	
13	0	0	0	0	516	508	0	0	
14	0	0	0	0	523	508	0	0	
15	0	0	0	0	515	509	0	0	
0	0	0	0	0	517	510	0	0	
1	0	0	0	0	513	507	0	0	
2	0	0	0	0	509	506	0	0	
3	0	0	0	0	508	507	0	0	
4	0	0	0	0	511	508	0	0	
5	0	0	0	0	512	508	0	0	
6	0	0	0	0	510	508	0	0	
7	0	0	0	0	514	507	0	0	
8	0	0	0	0	514	509	0	0	
9	0	0	0	0	513	505	0	0	
10	0	0	0	0	512	506	0	0	
11	0	0	0	0	508	508	0	0	
12	0	0	0	0	510	508	0	0	
13	0	0	0	0	511	510	0	0	
14	0	0	0	0	508	510	0	0	
15	0	0	0	0	502	509	0	0	
0	0	0	0	0	502	510	0	0	
1	0	0	0	0	501	509	0	0	
2	0	0	0	0	502	507	0	0	
3	0	0	0	0	505	506	0	0	
4	0	0	0	0	510	509	0	0	
5	0	0	0	0	517	509	0	0	
6	0	0	0	0	525	507	0	0	
7	0	0	0	0	520	507	0	0	
8	0	0	0	0	523	508	0	0	
9	0	0	0	0	514	505	0	0	
10	0	0	0	0	512	508	0	0	
11	0	0	0	0	508	508	0	0	
12	0	0	0	0	505	505	0	0	
13	0	0	0	0	510	507	0	0	
14	0	0	0	0	511	508	0	0	
15	0	0	0	0	511	507	0	0	
0	0	0	0	0	511	508	0	0	
1	0	0	0	0	510	508	0	0	
2	0	0	0	0	511	510	0	0	
3	0	0	0	0	511	510	0	0	
4	0	0	0	0	510	509	0	0	
5	0	0	0	0	509	510	0	0	
6	0	0	0	0	509	508	0	0	
7	0	0	0	0	511	509	0	0	
8	0	0	0	0	509	511	0	0	
9	0	0	0	0	511	509	0	0	
10	0	0	0	0	512	508	0	0	
11	0	0	0	0	510	504	0	0	
12	0	0	0	0	513	508	0	0	
13	0	0	0	0	511	508	0	0	
14	0	0	0	0	511	507	0	0	
15	0	0	0	0	513	507	0	0	
0	0	0	0	0	514	508	0	0	
1	0	0	0	0	511	508	0	0	
2	0	0	0	0	513	505	0	0	
3	0	0	0	0	512	509	0	0	
4	0	0	0	0	510	509	0	0	
5	0	0	0	0	510	509	0	0	
6	0	0	0	0	508	508	0	0	
7	0	0	0	0	510	508	0	0	
8	0	0	0	0	511	509	0	0	
9	0	0	0	0	510	508	0	0	
10	0	0	0	0	512	510	0	0	
11	0	0	0	0	508	508	0	0	
12	0	0	0	0	507	509	0	0	
13	0	0	0	0	508	508	0	0	
14	0	0	0	0	511	506	0	0	
15	0	0	0	0	511	507	0	0	
0	0	0	0	0	512	507	0	0	
1	0	0	0	0	519	508	0	0	
2	0	0	0	0	523	505	0	0	
3	0	0	0	0	508	509	0	0	
4	0	0	0	0	508	509	0	0	
5	0	0	0	0	506	508	0	0	
6	0	0	0	0	510	508	0	0	
7	0	0	0	0	511	506	0	0	
8	0	0	0	0	511	507	0	0	
9	0	0	0	0	519	508	0	0	
10	0	0	0	0	521	508	0	0	
11	0	0	0	0	513	509	0	0	
12	0	0	0	0	511	510	0	0	
13	0	0	0	0	512	508	0	0	
14	0	0	0	0	512	510	0	0	
15	0	0	0	0	509	509	0	0	
0	0	0	0	0	505	508	0	0	
1	0	0	0	0	504	506	0	0	
2	0	0	0	0	508	508	0	0	
3	0	0	0	0	511	508	0	0	
4	0	0	0	0	515	506	0	0	
5	0	0	0	0	516	505	0	0	
6	0	0	0	0	510	506	0	0	
7	0	0	0	0	514	506	0	0	
8	0	0	0	0	508	509	0	0	
9	0	0	0	0	509	506	0	0	
10	0	0	0	0	508	506	0	0	
11	0	0	0	0	508	508	0	0	
12	0	0	0	0	508	510	0	0	
13	0	0	0	0	509	510	0	0	
14	0	0	0	0	506	512	0	0	
15	0	0	0	0	513	509	0	0	
0	0	0	0	0	519	509	0	0	
1	0	0	0	0	513	509	0	0	
2	0	0	0	0	511	507	0	0	
3	0	0	0	0	508	507	0	0	
4	0	0	0	0	507	509	0	0	
5	0	0	0	0	507	507	0	0	
6	0	0	0	0	511	504	0	0	
7	0	0	0	0	512	507	0	0	
8	0	0	0	0	514	507	0	0	
9	0	0	0	0	514	508	0	0	
10	0	0	0	0	519	508	0	0	
11	0	0	0	0	517	508	0	0	
12	0	0	0	0	513	507	0	0	
13	0	0	0	0	511	508	0	0	
14	0	0	0	0	509	508	0	0	
15	0	0	0	0	509	506	0	0	
0	0	0	0	0	509	506	0	0	
1	0	0	0	0	510	510	0	0	
2	0	0	0	0	510	510	0	0	
3	0	0	0	0	510	509	0	0	
4	0	0	0	0	510	508	0	0	
5	0	0	0	0	509	509	0	0	
6	0	0	0	0	512	509	0	0	
7	0	0	0	0	508	508	0	0	
8	0	0	0	0	512	507	0	0	
9	0	0	0	0	512	509	0	0	
10	0	0	0	0	509	508	0	0	
11	0	0	0	0	510	506	0	0	
12	0	0	0	0	514	508	0	0	
13	0	0	0	0	512	508	0	0	
14	0	0	0	0	512	508	0	0	
15	0	0	0	0	508	505	0	0	
0	0	0	0	0	508	507	0	0	
1	0	0	0	0	508	507	0	0	
2	0	0	0	0	515	506	0	0	
3	0	0	0	0	519	506	0	0	
4	0	0	0	0	512	510	0	0	
5	0	0	0	0	510	509	0	0	
6	0	0	0	0	511	509	0	0	
7	0	0	0	0	504	510	0	0	
8	0	0	0	0	503	509	0	0	
9	0	0	0	0	505	510	0	0	
10	0	0	0	0	510	507	0	0	
11	0	0	0	0	511	508	0	0	
12	0	0	0	0	507	509	0	0	
13	0	0	0	0	521	510	0	0	
14	0	0	0	0	526	508	0	0	
15	0	0	0	0	515	506	0	0	
0	0	0	0	0	503	504	0	0	
1	0	0	0	0	510	508	0	0	
2	0	0	0	0	516	509	0	0	
3	0	0	0	0	520	508	0	0	
4	0	0	0	0	515	509	0	0	
5	0	0	0	0	517	507	0	0	
6	0	0	0	0	515	506	0	0	
7	0	0	0	0	514	506	0	0	
8	0	0	0	0	510	509	0	0	
9	0	0	0	0	510	510	0	0	
10	0	0	0	0	496	509	0	0	
11	0	0	0	0	500	510	0	0	
12	0	0	0	0	504	510	0	0	
13	0	0	0	0	505	508	0	0	
14	0	0	0	0	508	508	0	0	
15	0	0	0	0	509	509	0	0	
0	0	0	0	0	510	509	0	0	
1	0	0	0	0	513	508	0	0	
2	0	0	0	0	515	506	0	0	
3	0	0	0	0	515	506	0	0	
4	0	0	0	0	516	504	0	0	
5	0	0	0	0	515	506	0	0	
6	0	0	0	0	512	508	0	0	
7	0	0	0	0	511	508	0	0	
8	0	0	0	0	511	509	0	0	
9	0	0	0	0	509	507	0	0	
10	0	0	0	0	510	507	0	0	
11	0	0	0	0	511	509	0	0	
12	0	0	0	0	510	509	0	0	
13	0	0	0	0	513	508	0	0	
14	0	0	0	0	513	509	0	0	
15	0	0	0	0	515	508	0	0	
0	0	0	0	0	513	511	0	0	
1	0	0	0	0	511	509	0	0	
2	0	0	0	0	508	509	0	0	
3	0	0	0	0	508	509	0	0	
4	0	0	0	0	505	509	0	0	
5	0	0	0	0	516	509	0	0	
6	0	0	0	0	515	507	0	0	
7	0	0	0	0	500	507	0	0	
8	0	0	0	0	502	507	0	0	
9	0	0	0	0	510	506	0	0	
10	0	0	0	0	513	507	0	0	
11	0	0	0	0	510	506	0	0	
12	0	0	0	0	512	507	0	0	
13	0	0	0	0	513	508	0	0	
14	0	0	0	0	512	507	0	0	
15	0	0	0	0	513	508	0	0	
0	0	0	0	0	511	510	0	0	
1	0	0	0	0	505	507	0	0	
2	0	0	0	0	504	508	0	0	
3	0	0	0	0	505	510	0	0	
4	0	0	0	0	509	510	0	0	
5	0	0	0	0	515	509	0	0	
6	0	0	0	0	519	509	0	0	
7	0	0	0	0	511	510	0	0	
8	0	0	0	0	510	511	0	0	
9	0	0	0	0	515	508	0	0	
10	0	0	0	0	525	507	0	0	
11	0	0	0	0	522	507	0	0	
12	0	0	0	0	517	506	0	0	
13	0	0	0	0	519	506	0	0	
14	0	0	0	0	517	506	0	0	
15	0	0	0	0	495	507	0	0	
0	0	0	0	0	491	506	0	0	
1	0	0	0	0	503	508	0	0	
2	0	0	0	0	507	505	0	0	
3	0	0	0	0	504	508	0	0	
4	0	0	0	0	508	508	0	0	
5	0	0	0	0	517	508	0	0	
6	0	0	0	0	528	511	0	0	
7	0	0	0	0	529	511	0	0	
8	0	0	0	0	527	509	0	0	
9	0	0	0	0	518	510	0	0	
10	0	0	0	0	503	509	0	0	
11	0	0	0	0	496	509	0	0	
12	0	0	0	0	493	509	0	0	
13	0	0	0	0	489	509	0	0	
14	0	0	0	0	504	506	0	0	
15	0	0	0	0	515	507	0	0	
0	0	0	0	0	515	506	0	0	
1	0	0	0	0	511	506	0	0	
2	0	0	0	0	507	507	0	0	
3	0	0	0	0	512	506	0	0	
4	0	0	0	0	515	508	0	0	
5	0	0	0	0	515	507	0	0	
6	0	0	0	0	516	508	0	0	
7	0	0	0	0	519	508	0	0	
8	0	0	0	0	510	510	0	0	
9	0	0	0	0	505	508	0	0	
10	0	0	0	0	509	508	0	0	
11	0	0	0	0	510	511	0	0	
12	0	0	0	0	512	511	0	0	
13	0	0	0	0	508	506	0	0	
14	0	0	0	0	509	510	0	0	
15	0	0	0	0	505	508	0	0	
0	0	0	0	0	507	509	0	0	
1	0	0	0	0	513	508	0	0	
2	0	0	0	0	520	507	0	0	
3	0	0	0	0	516	506	0	0	
4	0	0	0	0	513	508	0	0	
5	0	0	0	0	523	508	0	0	
6	0	0	0	0	516	506	0	0	
7	0	0	0	0	509	504	0	0	
8	0	0	0	0	503	508	0	0	
9	0	0	0	0	506	505	0	0	
10	0	0	0	0	500	507	0	0	
11	0	0	0	0	507	510	0	0	
12	0	0	0	0	508	510	0	0	
13	0	0	0	0	508	509	0	0	
14	0	0	0	0	512	510	0	0	
15	0	0	0	0	515	510	0	0	
0	0	0	0	0	525	512	0	0	
1	0	0	0	0	519	509	0	0	
2	0	0	0	0	513	509	0	0	
3	0	0	0	0	513	507	0	0	
4	0	0	0	0	508	506	0	0	
5	0	0	0	0	508	509	0	0	
6	0	0	0	0	510	507	0	0	
7	0	0	0	0	512	507	0	0	
8	0	0	0	0	512	508	0	0	
9	0	0	0	0	511	507	0	0	
10	0	0	0	0	511	508	0	0	
11	0	0	0	0	508	508	0	0	
12	0	0	0	0	503	509	0	0	
13	0	0	0	0	503	508	0	0	
14	0	0	0	0	508	508	0	0	
15	0	0	0	0	506	509	0	0	
0	0	0	0	0	510	508	0	0	
1	0	0	0	0	514	508	0	0	
2	0	0	0	0	512	510	0	0	
3	0	0	0	0	512	508	0	0	
4	0	0	0	0	515	509	0	0	
5	0	0	0	0	510	508	0	0	
6	0	0	0	0	519	508	0	0	
7	0	0	0	0	519	508	0	0	
8	0	0	0	0	511	508	0	0	
9	0	0	0	0	508	508	0	0	
10	0	0	0	0	509	508	0	0	
11	0	0	0	0	508	508	0	0	
12	0	0	0	0	512	506	0	0	
13	0	0	0	0	511	508	0	0	
14	0	0	0	0	518	508	0	0	
15	0	0	0	0	523	507	0	0	
0	0	0	0	0	517	508	0	0	
1	0	0	0	0	514	505	0	0	
2	0	0	0	0	508	506	0	0	
3	0	0	0	0	508	508	0	0	
4	0	0	0	0	508	509	0	0	
5	0	0	0	0	494	509	0	0	
6	0	0	0	0	501	509	0	0	
7	0	0	0	0	508	511	0	0	
8	0	0	0	0	511	510	0	0	
9	0	0	0	0	510	509	0	0	
10	0	0	0	0	508	509	0	0	
11	0	0	0	0	509	508	0	0	
12	0	0	0	0	507	509	0	0	
13	0	0	0	0	510	509	0	0	
14	0	0	0	0	513	507	0	0	
15	0	0	0	0	514	504	0	0	
0	0	0	0	0	516	507	0	0	
1	0	0	0	0	518	507	0	0	
2	0	0	0	0	512	505	0	0	
3	0	0	0	0	507	509	0	0	
4	0	0	0	0	509	508	0	0	
5	0	0	0	0	512	507	0	0	
6	0	0	0	0	511	508	0	0	
7	0	0	0	0	509	508	0	0	
8	0	0	0	0	510	508	0	0	
9	0	0	0	0	512	509	0	0	
10	0	0	0	0	507	508	0	0	
11	0	0	0	0	510	511	0	0	
12	0	0	0	0	516	508	0	0	
13	0	0	0	0	518	508	0	0	
14	0	0	0	0	517	510	0	0	
15	0	0	0	0	510	511	0	0	
0	0	0	0	0	513	509	0	0	
1	0	0	0	0	510	507	0	0	
2	0	0	0	0	506	507	0	0	
3	0	0	0	0	507	507	0	0	
4	0	0	0	0	507	506	0	0	
5	0	0	0	0	508	506	0	0	
6	0	0	0	0	510	507	0	0	
7	0	0	0	0	508	507	0	0	
8	0	0	0	0	508	507	0	0	
9	0	0	0	0	509	507	0	0	
10	0	0	0	0	521	506	0	0	
11	0	0	0	0	517	507	0	0	
12	0	0	0	0	509	509	0	0	
13	0	0	0	0	513	508	0	0	
14	0	0	0	0	516	508	0	0	
15	0	0	0	0	514	508	0	0	
0	0	0	0	0	509	510	0	0	
1	0	0	0	0	508	510	0	0	
2	0	0	0	0	510	508	0	0	
3	0	0	0	0	510	509	0	0	
4	0	0	0	0	509	509	0	0	
5	0	0	0	0	508	510	0	0	
6	0	0	0	0	512	509	0	0	
7	0	0	0	0	512	507	0	0	
8	0	0	0	0	513	508	0	0	
9	0	0	0	0	513	505	0	0	
10	0	0	0	0	511	508	0	0	
11	0	0	0	0	510	508	0	0	
12	0	0	0	0	511	507	0	0	
13	0	0	0	0	509	505	0	0	
14	0	0	0	0	509	506	0	0	
15	0	0	0	0	511	508	0	0	
0	0	0	0	0	508	506	0	0	
1	0	0	0	0	510	508	0	0	
2	0	0	0	0	511	508	0	0	
3	0	0	0	0	511	508	0	0	
4	0	0	0	0	508	509	0	0	
5	0	0	0	0	508	509	0	0	
6	0	0	0	0	511	511	0	0	
7	0	0	0	0	512	509	0	0	
8	0	0	0	0	508	507	0	0	
9	0	0	0	0	508	507	0	0	
10	0	0	0	0	512	508	0	0	
11	0	0	0	0	512	507	0	0	
12	0	0	0	0	510	507	0	0	
13	0	0	0	0	512	508	0	0	
14	0	0	0	0	513	507	0	0	
15	0	0	0	0	511	508	0	0	
0	0	0	0	0	512	507	0	0	
1	0	0	0	0	514	508	0	0	
2	0	0	0	0	515	506	0	0	
3	0	0	0	0	508	508	0	0	
4	0	0	0	0	510	508	0	0	
5	0	0	0	0	510	508	0	0	
6	0	0	0	0	512	508	0	0	
7	0	0	0	0	508	509	0	0	
8	0	0	0	0	509	509	0	0	
9	0	0	0	0	514	509	0	0	
10	0	0	0	0	517	510	0	0	
11	0	0	0	0	511	509	0	0	
12	0	0	0	0	508	509	0	0	
13	0	0	0	0	508	510	0	0	
14	0	0	0	0	510	506	0	0	
15	0	0	0	0	509	507	0	0	
0	0	0	0	0	507	508	0	0	
1	0	0	0	0	511	506	0	0	
2	0	0	0	0	512	507	0	0	
3	0	0	0	0	513	507	0	0	
4	0	0	0	0	514	507	0	0	
5	0	0	0	0	515	510	0	0	
6	0	0	0	0	515	505	0	0	
7	0	0	0	0	512	507	0	0	
8	0	0	0	0	510	508	0	0	
9	0	0	0	0	510	509	0	0	
10	0	0	0	0	511	511	0	0	
11	0	0	0	0	509	511	0	0	
12	0	0	0	0	507	510	0	0	
13	0	0	0	0	509	508	0	0	
14	0	0	0	0	510	508	0	0	
15	0	0	0	0	510	507	0	0	
0	0	0	0	0	506	508	0	0	
1	0	0	0	0	508	508	0	0	
2	0	0	0	0	510	508	0	0	
3	0	0	0	0	511	507	0	0	
4	0	0	0	0	508	508	0	0	
5	0	0	0	0	512	509	0	0	
6	0	0	0	0	516	508	0	0	
7	0	0	0	0	516	507	0	0	
8	0	0	0	0	516	508	0	0	
9	0	0	0	0	512	506	0	0	
10	0	0	0	0	512	505	0	0	
11	0	0	0	0	511	508	0	0	
12	0	0	0	0	512	508	0	0	
13	0	0	0	0	512	511	0	0	
14	0	0	0	0	511	507	0	0	
15	0	0	0	0	511	510	0	0	
0	0	0	0	0	515	509	0	0	
1	0	0	0	0	513	509	0	0	
2	0	0	0	0	509	509	0	0	
3	0	0	0	0	506	511	0	0	
4	0	0	0	0	509	508	0	0	
5	0	0	0	0	510	508	0	0	
6	0	0	0	0	510	506	0	0	
7	0	0	0	0	510	506	0	0	
8	0	0	0	0	509	509	0	0	
9	0	0	0	0	509	504	0	0	
10	0	0	0	0	510	511	0	0	
11	0	0	0	0	509	507	0	0	
12	0	0	0	0	510	506	0	0	
13	0	0	0	0	512	508	0	0	
14	0	0	0	0	510	507	0	0	
15	0	0	0	0	511	510	0	0	
0	0	0	0	0	513	508	0	0	
1	0	0	0	0	513	507	0	0	
2	0	0	0	0	513	511	0	0	
3	0	0	0	0	513	508	0	0	
4	0	0	0	0	512	509	0	0	
5	0	0	0	0	512	511	0	0	
6	0	0	0	0	510	510	0	0	
7	0	0	0	0	509	509	0	0	
8	0	0	0	0	509	509	0	0	
9	0	0	0	0	510	510	0	0	
10	0	0	0	0	509	506	0	0	
11	0	0	0	0	511	506	0	0	
12	0	0	0	0	508	507	0	0	
13	0	0	0	0	508	508	0	0	
14	0	0	0	0	513	506	0	0	
15	0	0	0	0	510	505	0	0	
0	0	0	0	0	509	508	0	0	
1	0	0	0	0	510	507	0	0	
2	0	0	0	0	510	507	0	0	
3	0	0	0	0	510	508	0	0	
4	0	0	0	0	512	507	0	0	
5	0	0	0	0	509	508	0	0	
6	0	0	0	0	508	510	0	0	
7	0	0	0	0	508	510	0	0	
8	0	0	0	0	512	510	0	0	
9	0	0	0	0	507	507	0	0	
10	0	0	0	0	511	509	0	0	
11	0	0	0	0	516	508	0	0	
12	0	0	0	0	515	509	0	0	
13	0	0	0	0	517	508	0	0	
14	0	0	0	0	515	505	0	0	
15	0	0	0	0	512	509	0	0	
0	0	0	0	0	510	510	0	0	
1	0	0	0	0	515	507	0	0	
2	0	0	0	0	511	507	0	0	
3	0	0	0	0	514	505	0	0	
4	0	0	0	0	513	509	0	0	
5	0	0	0	0	512	507	0	0	
6	0	0	0	0	512	508	0	0	
7	0	0	0	0	512	508	0	0	
8	0	0	0	0	506	505	0	0	
9	0	0	0	0	506	508	0	0	
10	0	0	0	0	505	508	0	0	
11	0	0	0	0	506	510	0	0	
12	0	0	0	0	507	512	0	0	
13	0	0	0	0	508	510	0	0	
14	0	0	0	0	508	509	0	0	
15	0	0	0	0	510	508	0	0	
0	0	0	0	0	517	508	0	0	
1	0	0	0	0	524	508	0	0	
2	0	0	0	0	520	505	0	0	
3	0	0	0	0	515	505	0	0	
4	0	0	0	0	511	508	0	0	
5	0	0	0	0	510	508	0	0	
6	0	0	0	0	509	506	0	0	
7	0	0	0	0	511	506	0	0	
8	0	0	0	0	512	508	0	0	
9	0	0	0	0	510	508	0	0	
10	0	0	0	0	508	507	0	0	
11	0	0	0	0	508	508	0	0	
12	0	0	0	0	508	508	0	0	
13	0	0	0	0	510	509	0	0	
14	0	0	0	0	513	508	0	0	
15	0	0	0	0	512	510	0	0	
0	0	0	0	0	515	511	0	0	
1	0	0	0	0	511	509	0	0	
2	0	0	0	0	505	509	0	0	
3	0	0	0	0	503	509	0	0	
4	0	0	0	0	505	509	0	0	
5	0	0	0	0	508	510	0	0	
6	0	0	0	0	511	507	0	0	
7	0	0	0	0	512	510	0	0	
8	0	0	0	0	515	505	0	0	
9	0	0	0	0	514	508	0	0	
10	0	0	0	0	511	507	0	0	
11	0	0	0	0	510	507	0	0	
12	0	0	0	0	510	507	0	0	
13	0	0	0	0	511	507	0	0	
14	0	0	0	0	515	504	0	0	
15	0	0	0	0	511	508	0	0	
0	0	0	0	0	507	507	0	0	
1	0	0	0	0	508	508	0	0	
2	0	0	0	0	510	511	0	0	
3	0	0	0	0	509	511	0	0	
4	0	0	0	0	509	509	0	0	
5	0	0	0	0	510	508	0	0	
6	0	0	0	0	511	509	0	0	
7	0	0	0	0	511	508	0	0	
8	0	0	0	0	508	508	0	0	
9	0	0	0	0	510	508	0	0	
10	0	0	0	0	511	507	0	0	
11	0	0	0	0	512	507	0	0	
12	0	0	0	0	511	506	0	0	
13	0	0	0	0	513	505	0	0	
14	0	0	0	0	514	506	0	0	
15	0	0	0	0	513	507	0	0	
0	0	0	0	0	517	507	0	0	
1	0	0	0	0	516	508	0	0	
2	0	0	0	0	515	508	0	0	
3	0	0	0	0	518	507	0	0	
4	0	0	0	0	515	507	0	0	
5	0	0	0	0	510	509	0	0	
6	0	0	0	0	509	510	0	0	
7	0	0	0	0	510	510	0	0	
8	0	0	0	0	510	508	0	0	
9	0	0	0	0	509	509	0	0	
10	0	0	0	0	509	509	0	0	
11	0	0	0	0	510	508	0	0	
12	0	0	0	0	509	510	0	0	
13	0	0	0	0	507	509	0	0	
14	0	0	0	0	508	508	0	0	
15	0	0	0	0	510	509	0	0	
0	0	0	0	0	511	506	0	0	
1	0	0	0	0	513	505	0	0	
2	0	0	0	0	515	508	0	0	
3	0	0	0	0	512	505	0	0	
4	0	0	0	0	511	508	0	0	
5	0	0	0	0	511	508	0	0	
6	0	0	0	0	510	507	0	0	
7	0	0	0	0	509	508	0	0	
8	0	0	0	0	510	507	0	0	
9	0	0	0	0	510	510	0	0	
10	0	0	0	0	508	510	0	0	
11	0	0	0	0	510	510	0	0	
12	0	0	0	0	512	509	0	0	
13	0	0	0	0	512	508	0	0	
14	0	0	0	0	510	510	0	0	
15	0	0	0	0	510	509	0	0	
0	0	0	0	0	511	507	0	0	
1	0	0	0	0	510	507	0	0	
2	0	0	0	0	511	506	0	0	
3	0	0	0	0	511	508	0	0	
4	0	0	0	0	507	508	0	0	
5	0	0	0	0	511	506	0	0	
6	0	0	0	0	515	507	0	0	
7	0	0	0	0	511	507	0	0	
8	0	0	0	0	510	508	0	0	
9	0	0	0	0	513	509	0	0	
10	0	0	0	0	515	506	0	0	
11	0	0	0	0	513	505	0	0	
12	0	0	0	0	510	511	0	0	
13	0	0	0	0	509	508	0	0	
14	0	0	0	0	508	508	0	0	
15	0	0	0	0	511	509	0	0	
0	0	0	0	0	511	510	0	0	
1	0	0	0	0	511	510	0	0	
2	0	0	0	0	512	507	0	0	
3	0	0	0	0	510	509	0	0	
4	0	0	0	0	510	508	0	0	
5	0	0	0	0	512	508	0	0	
6	0	0	0	0	511	505	0	0	
7	0	0	0	0	507	505	0	0	
8	0	0	0	0	506	507	0	0	
9	0	0	0	0	512	507	0	0	
10	0	0	0	0	515	506	0	0	
11	0	0	0	0	511	508	0	0	
12	0	0	0	0	509	507	0	0	
13	0	0	0	0	508	509	0	0	
14	0	0	0	0	509	507	0	0	
15	0	0	0	0	508	507	0	0	
0	0	0	0	0	509	508	0	0	
1	0	0	0	0	513	509	0	0	
2	0	0	0	0	513	508	0	0	
3	0	0	0	0	515	508	0	0	
4	0	0	0	0	518	510	0	0	
5	0	0	0	0	516	510	0	0	
6	0	0	0	0	513	510	0	0	
7	0	0	0	0	508	509	0	0	
8	0	0	0	0	505	508	0	0	
9	0	0	0	0	510	508	0	0	
10	0	0	0	0	510	507	0	0	
11	0	0	0	0	513	504	0	0	
12	0	0	0	0	519	507	0	0	
13	0	0	0	0	520	507	0	0	
14	0	0	0	0	513	506	0	0	
15	0	0	0	0	511	508	0	0	
0	0	0	0	0	509	506	0	0	
1	0	0	0	0	511	507	0	0	
2	0	0	0	0	511	505	0	0	
3	0	0	0	0	508	509	0	0	
4	0	0	0	0	508	508	0	0	
5	0	0	0	0	508	508	0	0	
6	0	0	0	0	509	507	0	0	
7	0	0	0	0	508	511	0	0	
8	0	0	0	0	509	511	0	0	
9	0	0	0	0	507	512	0	0	
10	0	0	0	0	509	508	0	0	
11	0	0	0	0	510	508	0	0	
12	0	0	0	0	508	508	0	0	
13	0	0	0	0	510	511	0	0	
14	0	0	0	0	511	507	0	0	
15	0	0	0	0	512	506	0	0	
0	0	0	0	0	513	507	0	0	
1	0	0	0	0	515	508	0	0	
2	0	0	0	0	513	504	0	0	
3	0	0	0	0	513	509	0	0	
4	0	0	0	0	512	508	0	0	
5	0	0	0	0	507	507	0	0	
6	0	0	0	0	507	506	0	0	
7	0	0	0	0	508	507	0	0	
8	0	0	0	0	510	509	0	0	
9	0	0	0	0	510	508	0	0	
10	0	0	0	0	511	508	0	0	
11	0	0	0	0	511	508	0	0	
12	0	0	0	0	515	510	0	0	
13	0	0	0	0	516	510	0	0	
14	0	0	0	0	515	508	0	0	
15	0	0	0	0	516	507	0	0	
0	0	0	0	0	512	507	0	0	
1	0	0	0	0	510	507	0	0	
2	0	0	0	0	509	507	0	0	
3	0	0	0	0	508	507	0	0	
4	0	0	0	0	510	508	0	0	
5	0	0	0	0	511	508	0	0	
6	0	0	0	0	508	508	0	0	
7	0	0	0	0	508	507	0	0	
8	0	0	0	0	508	506	0	0	
9	0	0	0	0	509	508	0	0	
10	0	0	0	0	510	508	0	0	
11	0	0	0	0	512	508	0	0	
12	0	0	0	0	511	508	0	0	
13	0	0	0	0	515	509	0	0	
14	0	0	0	0	516	507	0	0	
15	0	0	0	0	513	508	0	0	
0	0	0	0	0	509	512	0	0	
1	0	0	0	0	511	510	0	0	
2	0	0	0	0	511	507	0	0	
3	0	0	0	0	511	508	0	0	
4	0	0	0	0	512	508	0	0	
5	0	0	0	0	512	507	0	0	
6	0	0	0	0	512	508	0	0	
7	0	0	0	0	510	508	0	0	
8	0	0	0	0	511	507	0	0	
9	0	0	0	0	509	508	0	0	
10	0	0	0	0	510	507	0	0	
11	0	0	0	0	511	505	0	0	
12	0	0	0	0	512	507	0	0	
13	0	0	0	0	511	505	0	0	
14	0	0	0	0	509	507	0	0	
15	0	0	0	0	509	508	0	0	
0	0	0	0	0	511	508	0	0	
1	0	0	0	0	513	511	0	0	
2	0	0	0	0	512	509	0	0	
3	0	0	0	0	513	508	0	0	
4	0	0	0	0	516	510	0	0	
5	0	0	0	0	513	508	0	0	
6	0	0	0	0	511	508	0	0	
7	0	0	0	0	511	511	0	0	
8	0	0	0	0	510	508	0	0	
9	0	0	0	0	510	510	0	0	
10	0	0	0	0	507	507	0	0	
11	0	0	0	0	508	507	0	0	
12	0	0	0	0	509	507	0	0	
13	0	0	0	0	510	505	0	0	
14	0	0	0	0	513	507	0	0	
15	0	0	0	0	510	507	0	0	
0	0	0	0	0	511	508	0	0	
1	0	0	0	0	515	507	0	0	
2	0	0	0	0	514	508	0	0	
3	0	0	0	0	513	507	0	0	
4	0	0	0	0	511	507	0	0	
5	0	0	0	0	511	509	0	0	
6	0	0	0	0	510	510	0	0	
7	0	0	0	0	508	508	0	0	
8	0	0	0	0	508	512	0	0	
9	0	0	0	0	510	511	0	0	
10	0	0	0	0	510	508	0	0	
11	0	0	0	0	512	509	0	0	
12	0	0	0	0	517	508	0	0	
13	0	0	0	0	512	508	0	0	
14	0	0	0	0	507	506	0	0	
15	0	0	0	0	506	505	0	0	
0	0	0	0	0	510	507	0	0	
1	0	0	0	0	510	508	0	0	
2	0	0	0	0	516	507	0	0	
3	0	0	0	0	519	507	0	0	
4	0	0	0	0	512	507	0	0	
5	0	0	0	0	512	508	0	0	
6	0	0	0	0	512	507	0	0	
7	0	0	0	0	513	509	0	0	
8	0	0	0	0	508	510	0	0	
9	0	0	0	0	505	510	0	0	
10	0	0	0	0	510	509	0	0	
11	0	0	0	0	508	510	0	0	
12	0	0	0	0	512	508	0	0	
13	0	0	0	0	514	508	0	0	
14	0	0	0	0	517	508	0	0	
15	0	0	0	0	512	509	0	0	
0	0	0	0	0	508	509	0	0	
1	0	0	0	0	503	508	0	0	
2	0	0	0	0	506	505	0	0	
3	0	0	0	0	511	507	0	0	
4	0	0	0	0	511	508	0	0	
5	0	0	0	0	513	507	0	0	
6	0	0	0	0	516	507	0	0	
7	0	0	0	0	513	507	0	0	
8	0	0	0	0	514	509	0	0	
9	0	0	0	0	514	508	0	0	
10	0	0	0	0	512	507	0	0	
11	0	0	0	0	511	505	0	0	
12	0	0	0	0	512	509	0	0	
13	0	0	0	0	508	509	0	0	
14	0	0	0	0	506	511	0	0	
15	0	0	0	0	505	509	0	0	
0	0	0	0	0	504	510	0	0	
1	0	0	0	0	508	508	0	0	
2	0	0	0	0	506	508	0	0	
3	0	0	0	0	506	509	0	0	
4	0	0	0	0	509	510	0	0	
5	0	0	0	0	514	509	0	0	
6	0	0	0	0	514	508	0	0	
7	0	0	0	0	519	503	0	0	
8	0	0	0	0	519	506	0	0	
9	0	0	0	0	516	507	0	0	
10	0	0	0	0	518	508	0	0	
11	0	0	0	0	515	505	0	0	
12	0	0	0	0	509	506	0	0	
13	0	0	0	0	511	507	0	0	
14	0	0	0	0	510	507	0	0	
15	0	0	0	0	512	508	0	0	
0	0	0	0	0	511	508	0	0	
1	0	0	0	0	509	512	0	0	
2	0	0	0	0	511	509	0	0	
3	0	0	0	0	508	509	0	0	
4	0	0	0	0	509	510	0	0	
5	0	0	0	0	510	508	0	0	
6	0	0	0	0	514	508	0	0	
7	0	0	0	0	510	508	0	0	
8	0	0	0	0	508	509	0	0	
9	0	0	0	0	510	509	0	0	
10	0	0	0	0	512	507	0	0	
11	0	0	0	0	511	507	0	0	
12	0	0	0	0	509	506	0	0	
13	0	0	0	0	509	506	0	0	
14	0	0	0	0	510	510	0	0	
15	0	0	0	0	508	507	0	0	
0	0	0	0	0	509	506	0	0	
1	0	0	0	0	510	507	0	0	
2	0	0	0	0	513	506	0	0	
3	0	0	0	0	512	507	0	0	
4	0	0	0	0	517	508	0	0	
5	0	0	0	0	516	508	0	0	
6	0	0	0	0	516	510	0	0	
7	0	0	0	0	512	509	0	0	
8	0	0	0	0	511	511	0	0	
9	0	0	0	0	504	509	0	0	
10	0	0	0	0	509	511	0	0	
11	0	0	0	0	507	508	0	0	
12	0	0	0	0	510	507	0	0	
13	0	0	0	0	512	508	0	0	
14	0	0	0	0	513	507	0	0	
15	0	0	0	0	511	507	0	0	
0	0	0	0	0	512	508	0	0	
1	0	0	0	0	512	509	0	0	
2	0	0	0	0	508	509	0	0	
3	0	0	0	0	509	507	0	0	
4	0	0	0	0	510	506	0	0	
5	0	0	0	0	514	508	0	0	
6	0	0	0	0	521	505	0	0	
7	0	0	0	0	520	506	0	0	
8	0	0	0	0	516	507	0	0	
9	0	0	0	0	513	508	0	0	
10	0	0	0	0	514	510	0	0	
11	0	0	0	0	511	510	0	0	
12	0	0	0	0	510	509	0	0	
13	0	0	0	0	508	508	0	0	
14	0	0	0	0	507	511	0	0	
15	0	0	0	0	508	508	0	0	
0	0	0	0	0	510	508	0	0	
1	0	0	0	0	508	508	0	0	
2	0	0	0	0	508	506	0	0	
3	0	0	0	0	510	507	0	0	
4	0	0	0	0	509	508	0	0	
5	0	0	0	0	508	509	0	0	
6	0	0	0	0	510	508	0	0	
7	0	0	0	0	510	508	0	0	
8	0	0	0	0	514	504	0	0	
9	0	0	0	0	511	506	0	0	
10	0	0	0	0	510	507	0	0	
11	0	0	0	0	508	508	0	0	
12	0	0	0	0	506	508	0	0	
13	0	0	0	0	509	508	0	0	
14	0	0	0	0	508	508	0	0	
15	0	0	0	0	508	511	0	0	
0	0	0	0	0	507	510	0	0	
1	0	0	0	0	511	507	0	0	
2	0	0	0	0	508	508	0	0	
3	0	0	0	0	509	510	0	0	
4	0	0	0	0	513	507	0	0	
5	0	0	0	0	515	510	0	0	
6	0	0	0	0	513	510	0	0	
7	0	0	0	0	514	508	0	0	
8	0	0	0	0	517	508	0	0	
9	0	0	0	0	517	507	0	0	
10	0	0	0	0	521	506	0	0	
11	0	0	0	0	520	506	0	0	
12	0	0	0	0	521	508	0	0	
13	0	0	0	0	516	508	0	0	
14	0	0	0	0	508	506	0	0	
15	0	0	0	0	503	508	0	0	
0	0	0	0	0	504	507	0	0	
1	0	0	0	0	502	510	0	0	
2	0	0	0	0	503	509	0	0	
3	0	0	0	0	503	510	0	0	
4	0	0	0	0	503	509	0	0	
5	0	0	0	0	513	508	0	0	
6	0	0	0	0	520	507	0	0	
7	0	0	0	0	524	510	0	0	
8	0	0	0	0	515	508	0	0	
9	0	0	0	0	513	509	0	0	
10	0	0	0	0	511	508	0	0	
11	0	0	0	0	508	505	0	0	
12	0	0	0	0	506	507	0	0	
13	0	0	0	0	508	504	0	0	
14	0	0	0	0	514	507	0	0	
15	0	0	0	0	512	509	0	0	
0	0	0	0	0	511	506	0	0	
1	0	0	0	0	508	507	0	0	
2	0	0	0	0	510	509	0	0	
3	0	0	0	0	512	507	0	0	
4	0	0	0	0	511	507	0	0	
5	0	0	0	0	512	508	0	0	
6	0	0	0	0	510	508	0	0	
7	0	0	0	0	507	509	0	0	
8	0	0	0	0	508	510	0	0	
9	0	0	0	0	511	511	0	0	
10	0	0	0	0	510	510	0	0	
11	0	0	0	0	508	509	0	0	
12	0	0	0	0	510	509	0	0	
13	0	0	0	0	508	508	0	0	
14	0	0	0	0	509	506	0	0	
15	0	0	0	0	509	506	0	0	
0	0	0	0	0	509	506	0	0	
1	0	0	0	0	512	507	0	0	
2	0	0	0	0	512	509	0	0	
3	0	0	0	0	512	509	0	0	
4	0	0	0	0	514	505	0	0	
5	0	0	0	0	511	507	0	0	
6	0	0	0	0	512	506	0	0	
7	0	0	0	0	513	508	0	0	
8	0	0	0	0	512	509	0	0	
9	0	0	0	0	511	510	0	0	
10	0	0	0	0	512	508	0	0	
11	0	0	0	0	508	510	0	0	
12	0	0	0	0	511	509	0	0	
13	0	0	0	0	511	510	0	0	
14	0	0	0	0	512	510	0	0	
15	0	0	0	0	510	509	0	0	
0	0	0	0	0	508	508	0	0	
1	0	0	0	0	509	508	0	0	
2	0	0	0	0	509	506	0	0	
3	0	0	0	0	512	508	0	0	
4	0	0	0	0	513	505	0	0	
5	0	0	0	0	515	504	0	0	
6	0	0	0	0	513	507	0	0	
7	0	0	0	0	510	508	0	0	
8	0	0	0	0	512	506	0	0	
9	0	0	0	0	510	509	0	0	
10	0	0	0	0	509	507	0	0	
11	0	0	0	0	510	506	0	0	
12	0	0	0	0	509	508	0	0	
13	0	0	0	0	515	510	0	0	
14	0	0	0	0	515	510	0	0	
15	0	0	0	0	515	509	0	0	
0	0	0	0	0	512	511	0	0	
1	0	0	0	0	510	511	0	0	
2	0	0	0	0	508	510	0	0	
3	0	0	0	0	512	508	0	0	
4	0	0	0	0	511	509	0	0	
5	0	0	0	0	513	510	0	0	
6	0	0	0	0	513	508	0	0	
7	0	0	0	0	511	507	0	0	
8	0	0	0	0	508	508	0	0	
9	0	0	0	0	511	506	0	0	
10	0	0	0	0	511	507	0	0	
11	0	0	0	0	512	508	0	0	
12	0	0	0	0	511	509	0	0	
13	0	0	0	0	512	509	0	0	
14	0	0	0	0	511	505	0	0	
15	0	0	0	0	512	509	0	0	
0	0	0	0	0	510	509	0	0	
1	0	0	0	0	509	509	0	0	
2	0	0	0	0	507	510	0	0	
3	0	0	0	0	509	508	0	0	
4	0	0	0	0	510	507	0	0	
5	0	0	0	0	508	509	0	0	
6	0	0	0	0	510	509	0	0	
7	0	0	0	0	509	509	0	0	
8	0	0	0	0	512	509	0	0	
9	0	0	0	0	514	507	0	0	
10	0	0	0	0	513	506	0	0	
11	0	0	0	0	515	506	0	0	
12	0	0	0	0	511	507	0	0	
13	0	0	0	0	513	508	0	0	
14	0	0	0	0	513	508	0	0	
15	0	0	0	0	512	508	0	0	
0	0	0	0	0	511	507	0	0	
1	0	0	0	0	509	509	0	0	
2	0	0	0	0	511	507	0	0	
3	0	0	0	0	513	508	0	0	
4	0	0	0	0	512	508	0	0	
5	0	0	0	0	508	508	0	0	
6	0	0	0	0	506	508	0	0	
7	0	0	0	0	508	509	0	0	
8	0	0	0	0	511	509	0	0	
9	0	0	0	0	512	509	0	0	
10	0	0	0	0	511	509	0	0	
11	0	0	0	0	509	509	0	0	
12	0	0	0	0	510	510	0	0	
13	0	0	0	0	511	510	0	0	
14	0	0	0	0	510	507	0	0	
15	0	0	0	0	511	506	0	0	
0	0	0	0	0	510	509	0	0	
1	0	0	0	0	517	506	0	0	
2	0	0	0	0	515	507	0	0	
3	0	0	0	0	516	509	0	0	
4	0	0	0	0	513	505	0	0	
5	0	0	0	0	513	508	0	0	
6	0	0	0	0	511	505	0	0	
7	0	0	0	0	510	510	0	0	
8	0	0	0	0	509	508	0	0	
9	0	0	0	0	509	509	0	0	
10	0	0	0	0	511	511	0	0	
11	0	0	0	0	513	510	0	0	
12	0	0	0	0	514	509	0	0	
13	0	0	0	0	511	511	0	0	
14	0	0	0	0	507	510	0	0	
15	0	0	0	0	506	508	0	0	
0	0	0	0	0	508	509	0	0	
1	0	0	0	0	509	509	0	0	
2	0	0	0	0	509	507	0	0	
3	0	0	0	0	510	509	0	0	
4	0	0	0	0	514	507	0	0	
5	0	0	0	0	515	507	0	0	
6	0	0	0	0	517	507	0	0	
7	0	0	0	0	514	508	0	0	
8	0	0	0	0	511	505	0	0	
9	0	0	0	0	510	505	0	0	
10	0	0	0	0	510	506	0	0	
11	0	0	0	0	509	509	0	0	
12	0	0	0	0	509	508	0	0	
13	0	0	0	0	507	508	0	0	
14	0	0	0	0	509	507	0	0	
15	0	0	0	0	504	508	0	0	
0	0	0	0	0	508	512	0	0	
1	0	0	0	0	509	508	0	0	
2	0	0	0	0	512	509	0	0	
3	0	0	0	0	511	510	0	0	
4	0	0	0	0	512	509	0	0	
5	0	0	0	0	512	509	0	0	
6	0	0	0	0	513	508	0	0	
7	0	0	0	0	515	506	0	0	
8	0	0	0	0	511	506	0	0	
9	0	0	0	0	510	505	0	0	
10	0	0	0	0	511	507	0	0	
11	0	0	0	0	511	509	0	0	
12	0	0	0	0	509	508	0	0	
13	0	0	0	0	512	508	0	0	
14	0	0	0	0	511	509	0	0	
15	0	0	0	0	511	507	0	0	
0	0	0	0	0	512	507	0	0	
1	0	0	0	0	515	511	0	0	
2	0	0	0	0	513	508	0	0	
3	0	0	0	0	511	509	0	0	
4	0	0	0	0	511	510	0	0	
5	0	0	0	0	509	510	0	0	
6	0	0	0	0	507	509	0	0	
7	0	0	0	0	510	507	0	0	
8	0	0	0	0	510	508	0	0	
9	0	0	0	0	513	511	0	0	
10	0	0	0	0	511	506	0	0	
11	0	0	0	0	512	508	0	0	
12	0	0	0	0	511	509	0	0	
13	0	0	0	0	516	506	0	0	
14	0	0	0	0	514	507	0	0	
15	0	0	0	0	508	508	0	0	
0	0	0	0	0	509	507	0	0	
1	0	0	0	0	511	509	0	0	
2	0	0	0	0	512	506	0	0	
3	0	0	0	0	512	507	0	0	
4	0	0	0	0	510	509	0	0	
5	0	0	0	0	506	509	0	0	
6	0	0	0	0	508	510	0	0	
7	0	0	0	0	508	508	0	0	
8	0	0	0	0	508	509	0	0	
9	0	0	0	0	508	507	0	0	
10	0	0	0	0	511	508	0	0	
11	0	0	0	0	513	509	0	0	
12	0	0	0	0	518	510	0	0	
13	0	0	0	0	519	509	0	0	
14	0	0	0	0	513	507	0	0	
15	0	0	0	0	511	508	0	0	
0	0	0	0	0	512	507	0	0	
1	0	0	0	0	513	506	0	0	
2	0	0	0	0	511	507	0	0	
3	0	0	0	0	511	506	0	0	
4	0	0	0	0	508	508	0	0	
5	0	0	0	0	508	507	0	0	
6	0	0	0	0	507	506	0	0	
7	0	0	0	0	507	508	0	0	
8	0	0	0	0	508	507	0	0	
9	0	0	0	0	509	510	0	0	
10	0	0	0	0	516	510	0	0	
11	0	0	0	0	516	510	0	0	
12	0	0	0	0	516	508	0	0	
13	0	0	0	0	513	509	0	0	
14	0	0	0	0	512	507	0	0	
15	0	0	0	0	512	506	0	0	
0	0	0	0	0	511	510	0	0	
1	0	0	0	0	513	510	0	0	
2	0	0	0	0	510	506	0	0	
3	0	0	0	0	508	508	0	0	
4	0	0	0	0	510	507	0	0	
5	0	0	0	0	510	507	0	0	
6	0	0	0	0	507	507	0	0	
7	0	0	0	0	507	508	0	0	
8	0	0	0	0	508	508	0	0	
9	0	0	0	0	510	507	0	0	
10	0	0	0	0	510	506	0	0	
11	0	0	0	0	512	508	0	0	
12	0	0	0	0	512	508	0	0	
13	0	0	0	0	512	508	0	0	
14	0	0	0	0	508	507	0	0	
15	0	0	0	0	511	511	0	0	
0	0	0	0	0	514	509	0	0	
1	0	0	0	0	512	509	0	0	
2	0	0	0	0	512	509	0	0	
3	0	0	0	0	511	509	0	0	
4	0	0	0	0	512	509	0	0	
5	0	0	0	0	514	509	0	0	
6	0	0	0	0	510	506	0	0	
7	0	0	0	0	510	506	0	0	
8	0	0	0	0	508	506	0	0	
9	0	0	0	0	509	507	0	0	
10	0	0	0	0	511	507	0	0	
11	0	0	0	0	511	505	0	0	
12	0	0	0	0	508	507	0	0	
13	0	0	0	0	509	508	0	0	
14	0	0	0	0	511	508	0	0	
15	0	0	0	0	510	507	0	0	
0	0	0	0	0	509	508	0	0	
1	0	0	0	0	509	508	0	0	
2	0	0	0	0	510	509	0	0	
3	0	0	0	0	510	508	0	0	
4	0	0	0	0	509	510	0	0	
5	0	0	0	0	509	509	0	0	
6	0	0	0	0	511	510	0	0	
7	0	0	0	0	513	508	0	0	
8	0	0	0	0	511	510	0	0	
9	0	0	0	0	508	509	0	0	
10	0	0	0	0	510	506	0	0	
11	0	0	0	0	510	505	0	0	
12	0	0	0	0	510	506	0	0	
13	0	0	0	0	509	508	0	0	
14	0	0	0	0	512	509	0	0	
15	0	0	0	0	516	505	0	0	
0	0	0	0	0	520	507	0	0	
1	0	0	0	0	518	507	0	0	
2	0	0	0	0	511	507	0	0	
3	0	0	0	0	513	507	0	0	
4	0	0	0	0	514	509	0	0	
5	0	0	0	0	510	509	0	0	
6	0	0	0	0	508	510	0	0	
7	0	0	0	0	509	509	0	0	
8	0	0	0	0	507	509	0	0	
9	0	0	0	0	511	508	0	0	
10	0	0	0	0	515	509	0	0	
11	0	0	0	0	511	510	0	0	
12	0	0	0	0	506	508	0	0	
13	0	0	0	0	508	510	0	0	
14	0	0	0	0	509	507	0	0	
15	0	0	0	0	510	507	0	0	
0	0	0	0	0	511	508	0	0	
1	0	0	0	0	513	507	0	0	
2	0	0	0	0	510	506	0	0	
3	0	0	0	0	506	506	0	0	
4	0	0	0	0	509	508	0	0	
5	0	0	0	0	513	507	0	0	
6	0	0	0	0	516	508	0	0	
7	0	0	0	0	516	507	0	0	
8	0	0	0	0	513	508	0	0	
9	0	0	0	0	512	508	0	0	
10	0	0	0	0	512	509	0	0	
11	0	0	0	0	514	508	0	0	
12	0	0	0	0	515	509	0	0	
13	0	0	0	0	513	508	0	0	
14	0	0	0	0	512	510	0	0	
15	0	0	0	0	511	509	0	0	
0	0	0	0	0	510	510	0	0	
1	0	0	0	0	508	507	0	0	
2	0	0	0	0	507	506	0	0	
3	0	0	0	0	511	507	0	0	
4	0	0	0	0	511	508	0	0	
5	0	0	0	0	512	506	0	0	
6	0	0	0	0	511	508	0	0	
7	0	0	0	0	507	510	0	0	
8	0	0	0	0	509	506	0	0	
9	0	0	0	0	508	505	0	0	
10	0	0	0	0	512	506	0	0	
11	0	0	0	0	512	508	0	0	
12	0	0	0	0	510	508	0	0	
13	0	0	0	0	509	508	0	0	
14	0	0	0	0	510	509	0	0	
15	0	0	0	0	512	511	0	0	
0	0	0	0	0	515	509	0	0	
1	0	0	0	0	512	509	0	0	
2	0	0	0	0	514	510	0	0	
3	0	0	0	0	512	504	0	0	
4	0	0	0	0	509	508	0	0	
5	0	0	0	0	510	507	0	0	
6	0	0	0	0	510	509	0	0	
7	0	0	0	0	511	507	0	0	
8	0	0	0	0	511	506	0	0	
9	0	0	0	0	508	508	0	0	
10	0	0	0	0	508	507	0	0	
11	0	0	0	0	508	507	0	0	
12	0	0	0	0	508	507	0	0	
13	0	0	0	0	510	507	0	0	
14	0	0	0	0	511	507	0	0	
15	0	0	0	0	513	507	0	0	
0	0	0	0	0	515	505	0	0	
1	0	0	0	0	514	509	0	0	
2	0	0	0	0	513	510	0	0	
3	0	0	0	0	512	510	0	0	
4	0	0	0	0	511	511	0	0	
5	0	0	0	0	511	509	0	0	
6	0	0	0	0	509	510	0	0	
7	0	0	0	0	511	507	0	0	
8	0	0	0	0	511	508	0	0	
9	0	0	0	0	510	506	0	0	
10	0	0	0	0	511	507	0	0	
11	0	0	0	0	511	507	0	0	
12	0	0	0	0	509	509	0	0	
13	0	0	0	0	511	508	0	0	
14	0	0	0	0	512	508	0	0	
15	0	0	0	0	512	508	0	0	
0	0	0	0	0	508	506	0	0	
1	0	0	0	0	512	506	0	0	
2	0	0	0	0	513	508	0	0	
3	0	0	0	0	512	509	0	0	
4	0	0	0	0	510	507	0	0	
5	0	0	0	0	511	507	0	0	
6	0	0	0	0	509	508	0	0	
7	0	0	0	0	509	508	0	0	
8	0	0	0	0	511	509	0	0	
9	0	0	0	0	508	508	0	0	
10	0	0	0	0	509	509	0	0	
11	0	0	0	0	510	510	0	0	
12	0	0	0	0	510	508	0	0	
13	0	0	0	0	510	509	0	0	
14	0	0	0	0	509	505	0	0	
15	0	0	0	0	511	506	0	0	
0	0	0	0	0	513	507	0	0	
1	0	0	0	0	513	506	0	0	
2	0	0	0	0	512	506	0	0	
3	0	0	0	0	515	506	0	0	
4	0	0	0	0	510	507	0	0	
5	0	0	0	0	508	507	0	0	
6	0	0	0	0	511	508	0	0	
7	0	0	0	0	514	508	0	0	
8	0	0	0	0	512	508	0	0	
9	0	0	0	0	511	508	0	0	
10	0	0	0	0	512	509	0	0	
11	0	0	0	0	509	510	0	0	
12	0	0	0	0	508	511	0	0	
13	0	0	0	0	511	507	0	0	
14	0	0	0	0	512	507	0	0	
15	0	0	0	0	508	508	0	0	
0	0	0	0	0	510	509	0	0	
1	0	0	0	0	512	508	0	0	
2	0	0	0	0	513	507	0	0	
3	0	0	0	0	507	507	0	0	
4	0	0	0	0	509	508	0	0	
5	0	0	0	0	511	506	0	0	
6	0	0	0	0	515	508	0	0	
7	0	0	0	0	512	507	0	0	
8	0	0	0	0	511	508	0	0	
9	0	0	0	0	508	507	0	0	
10	0	0	0	0	511	506	0	0	
11	0	0	0	0	509	507	0	0	
12	0	0	0	0	511	509	0	0	
13	0	0	0	0	508	508	0	0	
14	0	0	0	0	514	511	0	0	
15	0	0	0	0	515	510	0	0	
0	0	0	0	0	512	511	0	0	
1	0	0	0	0	511	508	0	0	
2	0	0	0	0	510	509	0	0	
3	0	0	0	0	510	509	0	0	
4	0	0	0	0	513	508	0	0	
5	0	0	0	0	514	511	0	0	
6	0	0	0	0	514	508	0	0	
7	0	0	0	0	515	507	0	0	
8	0	0	0	0	510	506	0	0	
9	0	0	0	0	508	506	0	0	
10	0	0	0	0	507	507	0	0	
11	0	0	0	0	504	506	0	0	
12	0	0	0	0	509	505	0	0	
13	0	0	0	0	505	506	0	0	
14	0	0	0	0	511	507	0	0	
15	0	0	0	0	511	509	0	0	
0	0	0	0	0	508	506	0	0	
1	0	0	0	0	512	509	0	0	
2	0	0	0	0	516	509	0	0	
3	0	0	0	0	514	508	0	0	
4	0	0	0	0	516	508	0	0	
5	0	0	0	0	515	510	0	0	
6	0	0	0	0	510	509	0	0	
7	0	0	0	0	509	508	0	0	
8	0	0	0	0	509	507	0	0	
9	0	0	0	0	510	509	0	0	
10	0	0	0	0	511	510	0	0	
11	0	0	0	0	510	507	0	0	
12	0	0	0	0	508	508	0	0	
13	0	0	0	0	507	509	0	0	
14	0	0	0	0	509	507	0	0	
15	0	0	0	0	510	506	0	0	
0	0	0	0	0	507	507	0	0	
1	0	0	0	0	508	508	0	0	
2	0	0	0	0	508	507	0	0	
3	0	0	0	0	517	506	0	0	
4	0	0	0	0	516	507	0	0	
5	0	0	0	0	512	509	0	0	
6	0	0	0	0	511	510	0	0	
7	0	0	0	0	515	512	0	0	
8	0	0	0	0	517	512	0	0	
9	0	0	0	0	512	510	0	0	
10	0	0	0	0	512	509	0	0	
11	0	0	0	0	510	508	0	0	
12	0	0	0	0	507	508	0	0	
13	0	0	0	0	509	510	0	0	
14	0	0	0	0	508	507	0	0	
15	0	0	0	0	509	506	0	0	
0	0	0	0	0	510	507	0	0	
1	0	0	0	0	510	507	0	0	
2	0	0	0	0	511	507	0	0	
3	0	0	0	0	509	506	0	0	
4	0	0	0	0	511	507	0	0	
5	0	0	0	0	511	508	0	0	
6	0	0	0	0	512	506	0	0	
7	0	0	0	0	510	508	0	0	
8	0	0	0	0	514	509	0	0	
9	0	0	0	0	512	507	0	0	
10	0	0	0	0	510	508	0	0	
11	0	0	0	0	509	510	0	0	
12	0	0	0	0	508	510	0	0	
13	0	0	0	0	505	508	0	0	
14	0	0	0	0	510	508	0	0	
15	0	0	0	0	512	509	0	0	
0	0	0	0	0	510	509	0	0	
1	0	0	0	0	511	509	0	0	
2	0	0	0	0	511	508	0	0	
3	0	0	0	0	515	510	0	0	
4	0	0	0	0	517	508	0	0	
5	0	0	0	0	517	506	0	0	
6	0	0	0	0	512	506	0	0	
7	0	0	0	0	510	508	0	0	
8	0	0	0	0	509	507	0	0	
9	0	0	0	0	511	507	0	0	
10	0	0	0	0	511	507	0	0	
11	0	0	0	0	508	507	0	0	
12	0	0	0	0	506	507	0	0	
13	0	0	0	0	508	508	0	0	
14	0	0	0	0	511	510	0	0	
15	0	0	0	0	511	510	0	0	
0	0	0	0	0	509	510	0	0	
1	0	0	0	0	510	511	0	0	
2	0	0	0	0	512	509	0	0	
3	0	0	0	0	513	507	0	0	
4	0	0	0	0	512	508	0	0	
5	0	0	0	0	512	508	0	0	
6	0	0	0	0	508	508	0	0	
7	0	0	0	0	507	509	0	0	
8	0	0	0	0	509	505	0	0	
9	0	0	0	0	511	510	0	0	
10	0	0	0	0	515	505	0	0	
11	0	0	0	0	513	506	0	0	
12	0	0	0	0	513	507	0	0	
13	0	0	0	0	513	508	0	0	
14	0	0	0	0	511	507	0	0	
15	0	0	0	0	513	506	0	0	
0	0	0	0	0	511	508	0	0	
1	0	0	0	0	508	508	0	0	
2	0	0	0	0	504	509	0	0	
3	0	0	0	0	504	511	0	0	
4	0	0	0	0	508	509	0	0	
5	0	0	0	0	507	510	0	0	
6	0	0	0	0	508	509	0	0	
7	0	0	0	0	508	510	0	0	
8	0	0	0	0	510	511	0	0	
9	0	0	0	0	513	508	0	0	
10	0	0	0	0	514	508	0	0	
11	0	0	0	0	512	507	0	0	
12	0	0	0	0	512	506	0	0	
13	0	0	0	0	513	507	0	0	
14	0	0	0	0	514	507	0	0	
15	0	0	0	0	515	509	0	0	
0	0	0	0	0	518	508	0	0	
1	0	0	0	0	511	508	0	0	
2	0	0	0	0	511	507	0	0	
3	0	0	0	0	511	508	0	0	
4	0	0	0	0	510	510	0	0	
5	0	0	0	0	509	508	0	0	
6	0	0	0	0	509	508	0	0	
7	0	0	0	0	510	509	0	0	
8	0	0	0	0	510	510	0	0	
9	0	0	0	0	508	511	0	0	
10	0	0	0	0	510	509	0	0	
11	0	0	0	0	510	509	0	0	
12	0	0	0	0	508	510	0	0	
13	0	0	0	0	510	508	0	0	
14	0	0	0	0	511	508	0	0	
15	0	0	0	0	511	507	0	0	
0	0	0	0	0	511	505	0	0	
1	0	0	0	0	509	509	0	0	
2	0	0	0	0	511	506	0	0	
3	0	0	0	0	510	505	0	0	
4	0	0	0	0	509	509	0	0	
5	0	0	0	0	511	508	0	0	
6	0	0	0	0	512	508	0	0	
7	0	0	0	0	511	508	0	0	
8	0	0	0	0	512	509	0	0	
9	0	0	0	0	514	507	0	0	
10	0	0	0	0	513	512	0	0	
11	0	0	0	0	510	509	0	0	
12	0	0	0	0	508	508	0	0	
13	0	0	0	0	509	508	0	0	
14	0	0	0	0	510	507	0	0	
15	0	0	0	0	508	510	0	0	
0	0	0	0	0	508	510	0	0	
1	0	0	0	0	508	510	0	0	
2	0	0	0	0	510	508	0	0	
3	0	0	0	0	511	506	0	0	
4	0	0	0	0	512	507	0	0	
5	0	0	0	0	515	508	0	0	
6	0	0	0	0	513	506	0	0	
7	0	0	0	0	515	509	0	0	
8	0	0	0	0	512	506	0	0	
9	0	0	0	0	513	509	0	0	
10	0	0	0	0	513	504	0	0	
11	0	0	0	0	515	506	0	0	
12	0	0	0	0	516	505	0	0	
13	0	0	0	0	518	508	0	0	
14	0	0	0	0	511	510	0	0	
15	0	0	0	0	507	509	0	0	
0	0	0	0	0	510	510	0	0	
1	0	0	0	0	509	510	0	0	
2	0	0	0	0	508	510	0	0	
3	0	0	0	0	509	507	0	0	
4	0	0	0	0	509	508	0	0	
5	0	0	0	0	507	508	0	0	
6	0	0	0	0	507	508	0	0	
7	0	0	0	0	510	509	0	0	
8	0	0	0	0	510	508	0	0	
9	0	0	0	0	511	508	0	0	
10	0	0	0	0	511	507	0	0	
11	0	0	0	0	512	506	0	0	
12	0	0	0	0	514	507	0	0	
13	0	0	0	0	514	507	0	0	
14	0	0	0	0	512	507	0	0	
15	0	0	0	0	512	508	0	0	
0	0	0	0	0	510	508	0	0	
1	0	0	0	0	508	508	0	0	
2	0	0	0	0	511	509	0	0	
3	0	0	0	0	513	510	0	0	
4	0	0	0	0	511	509	0	0	
5	0	0	0	0	510	508	0	0	
6	0	0	0	0	505	507	0	0	
7	0	0	0	0	507	507	0	0	
8	0	0	0	0	513	508	0	0	
9	0	0	0	0	513	508	0	0	
10	0	0	0	0	511	508	0	0	
11	0	0	0	0	514	508	0	0	
12	0	0	0	0	514	507	0	0	
13	0	0	0	0	513	506	0	0	
14	0	0	0	0	511	506	0	0	
15	0	0	0	0	507	507	0	0	
0	0	0	0	0	509	507	0	0	
1	0	0	0	0	508	508	0	0	
2	0	0	0	0	510	507	0	0	
3	0	0	0	0	511	507	0	0	
4	0	0	0	0	512	508	0	0	
5	0	0	0	0	515	511	0	0	
6	0	0	0	0	516	510	0	0	
7	0	0	0	0	513	508	0	0	
8	0	0	0	0	511	508	0	0	
9	0	0	0	0	513	511	0	0	
10	0	0	0	0	511	508	0	0	
11	0	0	0	0	509	506	0	0	
12	0	0	0	0	510	508	0	0	
13	0	0	0	0	508	510	0	0	
14	0	0	0	0	508	508	0	0	
15	0	0	0	0	510	507	0	0	
0	0	0	0	0	510	508	0	0	
1	0	0	0	0	511	509	0	0	
2	0	0	0	0	510	509	0	0	
3	0	0	0	0	512	508	0	0	
4	0	0	0	0	509	506	0	0	
5	0	0	0	0	510	506	0	0	
6	0	0	0	0	513	507	0	0	
7	0	0	0	0	514	507	0	0	
8	0	0	0	0	513	506	0	0	
9	0	0	0	0	513	509	0	0	
10	0	0	0	0	513	509	0	0	
11	0	0	0	0	512	510	0	0	
12	0	0	0	0	508	508	0	0	
13	0	0	0	0	507	508	0	0	
14	0	0	0	0	510	509	0	0	
15	0	0	0	0	509	508	0	0	
0	0	0	0	0	509	510	0	0	
1	0	0	0	0	505	509	0	0	
2	0	0	0	0	508	510	0	0	
3	0	0	0	0	509	507	0	0	
4	0	0	0	0	511	507	0	0	
5	0	0	0	0	513	505	0	0	
6	0	0	0	0	518	507	0	0	
7	0	0	0	0	518	505	0	0	
8	0	0	0	0	516	506	0	0	
9	0	0	0	0	513	507	0	0	
10	0	0	0	0	511	508	0	0	
11	0	0	0	0	511	508	0	0	
12	0	0	0	0	511	509	0	0	
13	0	0	0	0	511	510	0	0	
14	0	0	0	0	511	509	0	0	
15	0	0	0	0	511	510	0	0	
0	0	0	0	0	508	510	0	0	
1	0	0	0	0	510	508	0	0	
2	0	0	0	0	512	508	0	0	
3	0	0	0	0	513	509	0	0	
4	0	0	0	0	510	510	0	0	
5	0	0	0	0	508	509	0	0	
6	0	0	0	0	507	507	0	0	
7	0	0	0	0	510	507	0	0	
8	0	0	0	0	511	507	0	0	
9	0	0	0	0	512	506	0	0	
10	0	0	0	0	511	505	0	0	
11	0	0	0	0	512	506	0	0	
12	0	0	0	0	514	508	0	0	
13	0	0	0	0	515	508	0	0	
14	0	0	0	0	513	506	0	0	
15	0	0	0	0	511	507	0	0	
0	0	0	0	0	508	508	0	0	
1	0	0	0	0	506	507	0	0	
2	0	0	0	0	505	508	0	0	
3	0	0	0	0	504	508	0	0	
4	0	0	0	0	508	509	0	0	
5	0	0	0	0	515	509	0	0	
6	0	0	0	0	514	509	0	0	
7	0	0	0	0	515	508	0	0	
8	0	0	0	0	517	509	0	0	
9	0	0	0	0	511	509	0	0	
10	0	0	0	0	508	505	0	0	
11	0	0	0	0	510	504	0	0	
12	0	0	0	0	514	506	0	0	
13	0	0	0	0	514	508	0	0	
14	0	0	0	0	512	508	0	0	
15	0	0	0	0	511	506	0	0	
0	0	0	0	0	509	507	0	0	
1	0	0	0	0	508	505	0	0	
2	0	0	0	0	512	507	0	0	
3	0	0	0	0	513	507	0	0	
4	0	0	0	0	515	509	0	0	
5	0	0	0	0	511	508	0	0	
6	0	0	0	0	510	509	0	0	
7	0	0	0	0	510	511	0	0	
8	0	0	0	0	509	513	0	0	
9	0	0	0	0	508	510	0	0	
10	0	0	0	0	508	507	0	0	
11	0	0	0	0	507	508	0	0	
12	0	0	0	0	509	507	0	0	
13	0	0	0	0	511	509	0	0	
14	0	0	0	0	511	507	0	0	
15	0	0	0	0	514	507	0	0	
0	0	0	0	0	514	505	0	0	
1	0	0	0	0	516	507	0	0	
2	0	0	0	0	511	507	0	0	
3	0	0	0	0	511	508	0	0	
4	0	0	0	0	510	508	0	0	
5	0	0	0	0	510	510	0	0	
6	0	0	0	0	509	507	0	0	
7	0	0	0	0	511	507	0	0	
8	0	0	0	0	509	507	0	0	
9	0	0	0	0	510	507	0	0	
10	0	0	0	0	513	510	0	0	
11	0	0	0	0	513	507	0	0	
12	0	0	0	0	513	508	0	0	
13	0	0	0	0	512	509	0	0	
14	0	0	0	0	515	510	0	0	
15	0	0	0	0	513	509	0	0	
0	0	0	0	0	511	508	0	0	
1	0	0	0	0	508	510	0	0	
2	0	0	0	0	508	508	0	0	
3	0	0	0	0	509	508	0	0	
4	0	0	0	0	511	509	0	0	
5	0	0	0	0	511	505	0	0	
6	0	0	0	0	512	505	0	0	
7	0	0	0	0	513	505	0	0	
8	0	0	0	0	511	509	0	0	
9	0	0	0	0	511	506	0	0	
10	0	0	0	0	511	507	0	0	
11	0	0	0	0	510	506	0	0	
12	0	0	0	0	508	507	0	0	
13	0	0	0	0	510	508	0	0	
14	0	0	0	0	507	507	0	0	
15	0	0	0	0	508	508	0	0	
0	0	0	0	0	508	510	0	0	
1	0	0	0	0	510	510	0	0	
2	0	0	0	0	511	511	0	0	
3	0	0	0	0	511	511	0	0	
4	0	0	0	0	508	508	0	0	
5	0	0	0	0	507	508	0	0	
6	0	0	0	0	510	508	0	0	
7	0	0	0	0	513	503	0	0	
8	0	0	0	0	511	506	0	0	
9	0	0	0	0	510	507	0	0	
10	0	0	0	0	508	506	0	0	
11	0	0	0	0	509	504	0	0	
12	0	0	0	0	511	508	0	0	
13	0	0	0	0	516	506	0	0	
14	0	0	0	0	521	505	0	0	
15	0	0	0	0	517	508	0	0	
0	0	0	0	0	513	508	0	0	
1	0	0	0	0	510	509	0	0	
2	0	0	0	0	509	508	0	0	
3	0	0	0	0	509	508	0	0	
4	0	0	0	0	507	509	0	0	
5	0	0	0	0	505	508	0	0	
6	0	0	0	0	510	508	0	0	
7	0	0	0	0	508	507	0	0	
8	0	0	0	0	510	511	0	0	
9	0	0	0	0	512	510	0	0	
10	0	0	0	0	512	508	0	0	
11	0	0	0	0	511	508	0	0	
12	0	0	0	0	510	507	0	0	
13	0	0	0	0	511	508	0	0	
14	0	0	0	0	513	507	0	0	
15	0	0	0	0	508	506	0	0	
0	0	0	0	0	508	507	0	0	
1	0	0	0	0	510	507	0	0	
2	0	0	0	0	510	507	0	0	
3	0	0	0	0	513	505	0	0	
4	0	0	0	0	513	508	0	0	
5	0	0	0	0	512	510	0	0	
6	0	0	0	0	513	507	0	0	
7	0	0	0	0	515	512	0	0	
8	0	0	0	0	514	511	0	0	
9	0	0	0	0	514	510	0	0	
10	0	0	0	0	508	511	0	0	
11	0	0	0	0	510	507	0	0	
12	0	0	0	0	512	510	0	0	
13	0	0	0	0	511	509	0	0	
14	0	0	0	0	509	506	0	0	
15	0	0	0	0	508	510	0	0	
0	0	0	0	0	508	506	0	0	
1	0	0	0	0	510	507	0	0	
2	0	0	0	0	512	504	0	0	
3	0	0	0	0	510	505	0	0	
4	0	0	0	0	511	508	0	0	
5	0	0	0	0	512	508	0	0	
6	0	0	0	0	511	509	0	0	
7	0	0	0	0	509	507	0	0	
8	0	0	0	0	508	508	0	0	
9	0	0	0	0	510	509	0	0	
10	0	0	0	0	508	509	0	0	
11	0	0	0	0	510	508	0	0	
12	0	0	0	0	510	509	0	0	
13	0	0	0	0	511	510	0	0	
14	0	0	0	0	510	509	0	0	
15	0	0	0	0	511	510	0	0	
0	0	0	0	0	511	510	0	0	
1	0	0	0	0	511	508	0	0	
2	0	0	0	0	511	506	0	0	
3	0	0	0	0	510	507	0	0	
4	0	0	0	0	511	507	0	0	
5	0	0	0	0	511	506	0	0	
6	0	0	0	0	511	505	0	0	
7	0	0	0	0	511	506	0	0	
8	0	0	0	0	514	508	0	0	
9	0	0	0	0	512	509	0	0	
10	0	0	0	0	511	508	0	0	
11	0	0	0	0	512	509	0	0	
12	0	0	0	0	511	508	0	0	
13	0	0	0	0	511	509	0	0	
14	0	0	0	0	510	505	0	0	
15	0	0	0	0	511	510	0	0	
0	0	0	0	0	511	508	0	0	
1	0	0	0	0	516	509	0	0	
2	0	0	0	0	516	511	0	0	
3	0	0	0	0	512	510	0	0	
4	0	0	0	0	510	508	0	0	
5	0	0	0	0	506	510	0	0	
6	0	0	0	0	510	508	0	0	
7	0	0	0	0	512	506	0	0	
8	0	0	0	0	513	507	0	0	
9	0	0	0	0	509	507	0	0	
10	0	0	0	0	513	507	0	0	
11	0	0	0	0	511	505	0	0	
12	0	0	0	0	511	509	0	0	
13	0	0	0	0	510	508	0	0	
14	0	0	0	0	513	507	0	0	
15	0	0	0	0	512	507	0	0	
0	0	0	0	0	507	507	0	0	
1	0	0	0	0	506	509	0	0	
2	0	0	0	0	510	509	0	0	
3	0	0	0	0	511	509	0	0	
4	0	0	0	0	511	511	0	0	
5	0	0	0	0	511	510	0	0	
6	0	0	0	0	510	508	0	0	
7	0	0	0	0	509	509	0	0	
8	0	0	0	0	512	508	0	0	
9	0	0	0	0	511	505	0	0	
10	0	0	0	0	515	506	0	0	
11	0	0	0	0	513	509	0	0	
12	0	0	0	0	513	507	0	0	
13	0	0	0	0	511	507	0	0	
14	0	0	0	0	513	507	0	0	
15	0	0	0	0	510	508	0	0	
0	0	0	0	0	510	509	0	0	
1	0	0	0	0	509	508	0	0	
2	0	0	0	0	513	507	0	0	
3	0	0	0	0	511	506	0	0	
4	0	0	0	0	510	507	0	0	
5	0	0	0	0	512	508	0	0	
6	0	0	0	0	510	508	0	0	
7	0	0	0	0	511	509	0	0	
8	0	0	0	0	509	508	0	0	
9	0	0	0	0	510	511	0	0	
10	0	0	0	0	510	508	0	0	
11	0	0	0	0	511	510	0	0	
12	0	0	0	0	510	509	0	0	
13	0	0	0	0	511	509	0	0	
14	0	0	0	0	513	508	0	0	
15	0	0	0	0	515	507	0	0	
0	0	0	0	0	511	505	0	0	
1	0	0	0	0	512	506	0	0	
2	0	0	0	0	511	507	0	0	
3	0	0	0	0	510	508	0	0	
4	0	0	0	0	511	507	0	0	
5	0	0	0	0	511	507	0	0	
6	0	0	0	0	508	507	0	0	
7	0	0	0	0	511	509	0	0	
8	0	0	0	0	510	508	0	0	
9	0	0	0	0	510	508	0	0	
10	0	0	0	0	512	508	0	0	
11	0	0	0	0	515	508	0	0	
12	0	0	0	0	512	509	0	0	
13	0	0	0	0	511	507	0	0	
14	0	0	0	0	509	511	0	0	
15	0	0	0	0	510	510	0	0	
0	0	0	0	0	508	507	0	0	
1	0	0	0	0	509	509	0	0	
2	0	0	0	0	510	508	0	0	
3	0	0	0	0	509	508	0	0	
4	0	0	0	0	509	508	0	0	
5	0	0	0	0	509	507	0	0	
6	0	0	0	0	511	506	0	0	
7	0	0	0	0	512	506	0	0	
8	0	0	0	0	512	507	0	0	
9	0	0	0	0	514	510	0	0	
10	0	0	0	0	512	506	0	0	
11	0	0	0	0	515	508	0	0	
12	0	0	0	0	516	511	0	0	
13	0	0	0	0	516	507	0	0	
14	0	0	0	0	513	507	0	0	
15	0	0	0	0	509	508	0	0	
0	0	0	0	0	507	510	0	0	
1	0	0	0	0	509	508	0	0	
2	0	0	0	0	512	511	0	0	
3	0	0	0	0	512	509	0	0	
4	0	0	0	0	512	508	0	0	
5	0	0	0	0	512	509	0	0	
6	0	0	0	0	511	508	0	0	
7	0	0	0	0	512	507	0	0	
8	0	0	0	0	515	505	0	0	
9	0	0	0	0	511	505	0	0	
10	0	0	0	0	511	508	0	0	
11	0	0	0	0	510	507	0	0	
12	0	0	0	0	509	508	0	0	
13	0	0	0	0	508	506	0	0	
14	0	0	0	0	509	508	0	0	
15	0	0	0	0	509	507	0	0	
0	0	0	0	0	508	509	0	0	
1	0	0	0	0	507	509	0	0	
2	0	0	0	0	510	510	0	0	
3	0	0	0	0	511	510	0	0	
4	0	0	0	0	513	507	0	0	
5	0	0	0	0	514	508	0	0	
6	0	0	0	0	515	509	0	0	
7	0	0	0	0	514	507	0	0	
8	0	0	0	0	510	509	0	0	
9	0	0	0	0	508	509	0	0	
10	0	0	0	0	507	507	0	0	
11	0	0	0	0	510	509	0	0	
12	0	0	0	0	510	505	0	0	
13	0	0	0	0	509	506	0	0	
14	0	0	0	0	512	507	0	0	
15	0	0	0	0	512	509	0	0	
0	0	0	0	0	512	507	0	0	
1	0	0	0	0	511	506	0	0	
2	0	0	0	0	510	508	0	0	
3	0	0	0	0	508	508	0	0	
4	0	0	0	0	509	505	0	0	
5	0	0	0	0	510	510	0	0	
6	0	0	0	0	505	509	0	0	
7	0	0	0	0	510	509	0	0	
8	0	0	0	0	513	511	0	0	
9	0	0	0	0	512	509	0	0	
10	0	0	0	0	512	507	0	0	
11	0	0	0	0	512	508	0	0	
12	0	0	0	0	511	508	0	0	
13	0	0	0	0	510	509	0	0	
14	0	0	0	0	513	507	0	0	
15	0	0	0	0	512	507	0	0	
0	0	0	0	0	512	508	0	0	
1	0	0	0	0	514	508	0	0	
2	0	0	0	0	515	507	0	0	
3	0	0	0	0	511	507	0	0	
4	0	0	0	0	510	508	0	0	
5	0	0	0	0	505	506	0	0	
6	0	0	0	0	508	506	0	0	
7	0	0	0	0	510	507	0	0	
8	0	0	0	0	509	508	0	0	
9	0	0	0	0	508	510	0	0	
10	0	0	0	0	508	507	0	0	
11	0	0	0	0	513	510	0	0	
12	0	0	0	0	517	510	0	0	
13	0	0	0	0	519	510	0	0	
14	0	0	0	0	513	509	0	0	
15	0	0	0	0	510	509	0	0	
0	0	0	0	0	507	509	0	0	
1	0	0	0	0	511	508	0	0	
2	0	0	0	0	511	507	0	0	
3	0	0	0	0	511	506	0	0	
4	0	0	0	0	513	505	0	0	
5	0	0	0	0	511	506	0	0	
6	0	0	0	0	515	508	0	0	
7	0	0	0	0	515	507	0	0	
8	0	0	0	0	512	506	0	0	
9	0	0	0	0	510	507	0	0	
10	0	0	0	0	509	507	0	0	
11	0	0	0	0	511	507	0	0	
12	0	0	0	0	511	509	0	0	
13	0	0	0	0	511	508	0	0	
14	0	0	0	0	507	509	0	0	
15	0	0	0	0	508	508	0	0	
0	0	0	0	0	506	510	0	0	
1	0	0	0	0	504	507	0	0	
2	0	0	0	0	509	507	0	0	
3	0	0	0	0	509	511	0	0	
4	0	0	0	0	509	509	0	0	
5	0	0	0	0	513	508	0	0	
6	0	0	0	0	517	508	0	0	
7	0	0	0	0	514	508	0	0	
8	0	0	0	0	513	507	0	0	
9	0	0	0	0	513	506	0	0	
10	0	0	0	0	510	508	0	0	
11	0	0	0	0	508	505	0	0	
12	0	0	0	0	511	507	0	0	
13	0	0	0	0	513	507	0	0	
14	0	0	0	0	510	508	0	0	
15	0	0	0	0	513	509	0	0	
0	0	0	0	0	510	507	0	0	
1	0	0	0	0	509	508	0	0	
2	0	0	0	0	508	509	0	0	
3	0	0	0	0	512	509	0	0	
4	0	0	0	0	510	510	0	0	
5	0	0	0	0	510	509	0	0	
6	0	0	0	0	511	508	0	0	
7	0	0	0	0	511	509	0	0	
8	0	0	0	0	511	507	0	0	
9	0	0	0	0	512	508	0	0	
10	0	0	0	0	514	508	0	0	
11	0	0	0	0	513	508	0	0	
12	0	0	0	0	511	507	0	0	
13	0	0	0	0	511	507	0	0	
14	0	0	0	0	511	508	0	0	
15	0	0	0	0	511	508	0	0	
0	0	0	0	0	511	505	0	0	
1	0	0	0	0	511	508	0	0	
2	0	0	0	0	511	508	0	0	
3	0	0	0	0	513	506	0	0	
4	0	0	0	0	509	505	0	0	
5	0	0	0	0	510	508	0	0	
6	0	0	0	0	510	507	0	0	
7	0	0	0	0	510	509	0	0	
8	0	0	0	0	512	510	0	0	
9	0	0	0	0	509	510	0	0	
10	0	0	0	0	509	511	0	0	
11	0	0	0	0	511	509	0	0	
12	0	0	0	0	511	509	0	0	
13	0	0	0	0	513	508	0	0	
14	0	0	0	0	513	507	0	0	
15	0	0	0	0	510	507	0	0	
0	0	0	0	0	509	508	0	0	
1	0	0	0	0	508	507	0	0	
2	0	0	0	0	511	506	0	0	
3	0	0	0	0	510	508	0	0	
4	0	0	0	0	508	508	0	0	
5	0	0	0	0	512	507	0	0	
6	0	0	0	0	515	508	0	0	
7	0	0	0	0	516	507	0	0	
8	0	0	0	0	516	507	0	0	
9	0	0	0	0	512	510	0	0	
10	0	0	0	0	510	508	0	0	
11	0	0	0	0	508	511	0	0	
12	0	0	0	0	507	512	0	0	
13	0	0	0	0	508	510	0	0	
14	0	0	0	0	508	507	0	0	
15	0	0	0	0	511	511	0	0	
0	0	0	0	0	511	507	0	0	
1	0	0	0	0	511	508	0	0	
2	0	0	0	0	509	509	0	0	
3	0	0	0	0	511	507	0	0	
4	0	0	0	0	511	507	0	0	
5	0	0	0	0	515	506	0	0	
6	0	0	0	0	514	508	0	0	
7	0	0	0	0	513	506	0	0	
8	0	0	0	0	515	507	0	0	
9	0	0	0	0	511	507	0	0	
10	0	0	0	0	510	508	0	0	
11	0	0	0	0	505	506	0	0	
12	0	0	0	0	508	508	0	0	
13	0	0	0	0	508	508	0	0	
14	0	0	0	0	508	508	0	0	
15	0	0	0	0	509	509	0	0	
0	0	0	0	0	516	510	0	0	
1	0	0	0	0	515	510	0	0	
2	0	0	0	0	512	509	0	0	
3	0	0	0	0	515	509	0	0	
4	0	0	0	0	513	508	0	0	
5	0	0	0	0	510	507	0	0	
6	0	0	0	0	511	507	0	0	
7	0	0	0	0	511	507	0	0	
8	0	0	0	0	511	507	0	0	
9	0	0	0	0	506	506	0	0	
10	0	0	0	0	509	508	0	0	
11	0	0	0	0	510	507	0	0	
12	0	0	0	0	512	508	0	0	
13	0	0	0	0	512	508	0	0	
14	0	0	0	0	513	507	0	0	
15	0	0	0	0	511	506	0	0	
0	0	0	0	0	508	506	0	0	
1	0	0	0	0	510	508	0	0	
2	0	0	0	0	508	507	0	0	
3	0	0	0	0	509	508	0	0	
4	0	0	0	0	509	510	0	0	
5	0	0	0	0	511	512	0	0	
6	0	0	0	0	511	509	0	0	
7	0	0	0	0	509	508	0	0	
8	0	0	0	0	510	509	0	0	
9	0	0	0	0	511	509	0	0	
10	0	0	0	0	512	507	0	0	
11	0	0	0	0	512	507	0	0	
12	0	0	0	0	513	506	0	0	
13	0	0	0	0	513	507	0	0	
14	0	0	0	0	511	508	0	0	
15	0	0	0	0	511	505	0	0	
0	0	0	0	0	510	508	0	0	
1	0	0	0	0	510	510	0	0	
2	0	0	0	0	508	508	0	0	
3	0	0	0	0	510	508	0	0	
4	0	0	0	0	507	507	0	0	
5	0	0	0	0	510	509	0	0	
6	0	0	0	0	511	509	0	0	
7	0	0	0	0	511	509	0	0	
8	0	0	0	0	512	508	0	0	
9	0	0	0	0	515	508	0	0	
10	0	0	0	0	518	511	0	0	
11	0	0	0	0	512	508	0	0	
12	0	0	0	0	512	508	0	0	
13	0	0	0	0	509	509	0	0	
14	0	0	0	0	510	508	0	0	
15	0	0	0	0	509	505	0	0	
0	0	0	0	0	509	507	0	0	
1	0	0	0	0	511	507	0	0	
2	0	0	0	0	515	507	0	0	
3	0	0	0	0	513	508	0	0	
4	0	0	0	0	512	509	0	0	
5	0	0	0	0	512	508	0	0	
6	0	0	0	0	512	507	0	0	
7	0	0	0	0	510	507	0	0	
8	0	0	0	0	512	508	0	0	
9	0	0	0	0	509	509	0	0	
10	0	0	0	0	510	510	0	0	
11	0	0	0	0	506	510	0	0	
12	0	0	0	0	506	510	0	0	
13	0	0	0	0	508	509	0	0	
14	0	0	0	0	509	509	0	0	
15	0	0	0	0	511	508	0	0	
0	0	0	0	0	511	509	0	0	
1	0	0	0	0	512	507	0	0	
2	0	0	0	0	516	508	0	0	
3	0	0	0	0	515	506	0	0	
4	0	0	0	0	511	509	0	0	
5	0	0	0	0	507	507	0	0	
6	0	0	0	0	508	506	0	0	
7	0	0	0	0	510	509	0	0	
8	0	0	0	0	510	507	0	0	
9	0	0	0	0	512	507	0	0	
10	0	0	0	0	513	507	0	0	
11	0	0	0	0	518	508	0	0	
12	0	0	0	0	518	507	0	0	
13	0	0	0	0	514	507	0	0	
14	0	0	0	0	511	509	0	0	
15	0	0	0	0	508	508	0	0	
0	0	0	0	0	511	511	0	0	
1	0	0	0	0	510	512	0	0	
2	0	0	0	0	510	510	0	0	
3	0	0	0	0	509	508	0	0	
4	0	0	0	0	508	506	0	0	
5	0	0	0	0	508	510	0	0	
6	0	0	0	0	511	507	0	0	
7	0	0	0	0	509	508	0	0	
8	0	0	0	0	509	505	0	0	
9	0	0	0	0	511	507	0	0	
10	0	0	0	0	509	508	0	0	
11	0	0	0	0	512	507	0	0	
12	0	0	0	0	512	508	0	0	
13	0	0	0	0	513	507	0	0	
14	0	0	0	0	512	508	0	0	
15	0	0	0	0	511	507	0	0	
0	0	0	0	0	511	508	0	0	
1	0	0	0	0	510	507	0	0	
2	0	0	0	0	511	509	0	0	
3	0	0	0	0	510	508	0	0	
4	0	0	0	0	507	510	0	0	
5	0	0	0	0	509	509	0	0	
6	0	0	0	0	512	510	0	0	
7	0	0	0	0	511	508	0	0	
8	0	0	0	0	511	509	0	0	
9	0	0	0	0	511	509	0	0	
10	0	0	0	0	511	508	0	0	
11	0	0	0	0	509	508	0	0	
12	0	0	0	0	512	507	0	0	
13	0	0	0	0	508	508	0	0	
14	0	0	0	0	509	507	0	0	
15	0	0	0	0	506	506	0	0	
0	0	0	0	0	508	507	0	0	
1	0	0	0	0	510	506	0	0	
2	0	0	0	0	514	508	0	0	
3	0	0	0	0	514	506	0	0	
4	0	0	0	0	518	505	0	0	
5	0	0	0	0	519	510	0	0	
6	0	0	0	0	515	509	0	0	
7	0	0	0	0	511	508	0	0	
8	0	0	0	0	505	510	0	0	
9	0	0	0	0	509	509	0	0	
10	0	0	0	0	509	509	0	0	
11	0	0	0	0	507	508	0	0	
12	0	0	0	0	505	508	0	0	
13	0	0	0	0	509	509	0	0	
14	0	0	0	0	510	507	0	0	
15	0	0	0	0	515	508	0	0	
0	0	0	0	0	516	507	0	0	
1	0	0	0	0	512	506	0	0	
2	0	0	0	0	515	506	0	0	
3	0	0	0	0	515	507	0	0	
4	0	0	0	0	512	508	0	0	
5	0	0	0	0	508	506	0	0	
6	0	0	0	0	504	506	0	0	
7	0	0	0	0	507	508	0	0	
8	0	0	0	0	506	505	0	0	
9	0	0	0	0	508	508	0	0	
10	0	0	0	0	509	510	0	0	
11	0	0	0	0	515	509	0	0	
12	0	0	0	0	516	509	0	0	
13	0	0	0	0	515	510	0	0	
14	0	0	0	0	515	510	0	0	
15	0	0	0	0	513	509	0	0	
0	0	0	0	0	514	510	0	0	
1	0	0	0	0	513	509	0	0	
2	0	0	0	0	511	507	0	0	
3	0	0	0	0	513	507	0	0	
4	0	0	0	0	508	507	0	0	
5	0	0	0	0	507	505	0	0	
6	0	0	0	0	509	505	0	0	
7	0	0	0	0	509	508	0	0	
8	0	0	0	0	511	508	0	0	
9	0	0	0	0	510	505	0	0	
10	0	0	0	0	509	507	0	0	
11	0	0	0	0	510	508	0	0	
12	0	0	0	0	509	508	0	0	
13	0	0	0	0	510	509	0	0	
14	0	0	0	0	510	510	0	0	
15	0	0	0	0	508	506	0	0	
0	0	0	0	0	508	509	0	0	
1	0	0	0	0	511	508	0	0	
2	0	0	0	0	510	509	0	0	
3	0	0	0	0	513	510	0	0	
4	0	0	0	0	511	510	0	0	
5	0	0	0	0	510	510	0	0	
6	0	0	0	0	510	509	0	0	
7	0	0	0	0	512	507	0	0	
8	0	0	0	0	511	508	0	0	
9	0	0	0	0	509	508	0	0	
10	0	0	0	0	513	506	0	0	
11	0	0	0	0	511	507	0	0	
12	0	0	0	0	509	508	0	0	
13	0	0	0	0	510	508	0	0	
14	0	0	0	0	512	505	0	0	
15	0	0	0	0	515	506	0	0	
0	0	0	0	0	513	506	0	0	
1	0	0	0	0	511	509	0	0	
2	0	0	0	0	515	510	0	0	
3	0	0	0	0	516	510	0	0	
4	0	0	0	0	517	510	0	0	
5	0	0	0	0	509	508	0	0	
6	0	0	0	0	507	509	0	0	
7	0	0	0	0	510	507	0	0	
8	0	0	0	0	512	510	0	0	
9	0	0	0	0	511	510	0	0	
10	0	0	0	0	512	510	0	0	
11	0	0	0	0	511	507	0	0	
12	0	0	0	0	509	508	0	0	
13	0	0	0	0	512	506	0	0	
14	0	0	0	0	511	505	0	0	
15	0	0	0	0	510	504	0	0	
0	0	0	0	0	512	506	0	0	
1	0	0	0	0	510	507	0	0	
2	0	0	0	0	509	508	0	0	
3	0	0	0	0	508	508	0	0	
4	0	0	0	0	510	508	0	0	
5	0	0	0	0	512	508	0	0	
6	0	0	0	0	512	511	0	0	
7	0	0	0	0	512	511	0	0	
8	0	0	0	0	511	510	0	0	
9	0	0	0	0	509	511	0	0	
10	0	0	0	0	511	508	0	0	
11	0	0	0	0	511	508	0	0	
12	0	0	0	0	513	508	0	0	
13	0	0	0	0	509	508	0	0	
14	0	0	0	0	508	508	0	0	
15	0	0	0	0	508	506	0	0	
0	0	0	0	0	507	507	0	0	
1	0	0	0	0	510	506	0	0	
2	0	0	0	0	512	506	0	0	
3	0	0	0	0	513	507	0	0	
4	0	0	0	0	515	508	0	0	
5	0	0	0	0	513	507	0	0	
6	0	0	0	0	514	506	0	0	
7	0	0	0	0	512	506	0	0	
8	0	0	0	0	510	507	0	0	
9	0	0	0	0	513	508	0	0	
10	0	0	0	0	509	510	0	0	
11	0	0	0	0	511	508	0	0	
12	0	0	0	0	512	511	0	0	
13	0	0	0	0	511	509	0	0	
14	0	0	0	0	513	508	0	0	
15	0	0	0	0	512	509	0	0	
0	0	0	0	0	510	508	0	0	
1	0	0	0	0	509	510	0	0	
2	0	0	0	0	508	508	0	0	
3	0	0	0	0	510	508	0	0	
4	0	0	0	0	511	508	0	0	
5	0	0	0	0	511	505	0	0	
6	0	0	0	0	514	507	0	0	
7	0	0	0	0	519	507	0	0	
8	0	0	0	0	518	507	0	0	
9	0	0	0	0	513	508	0	0	
10	0	0	0	0	511	508	0	0	
11	0	0	0	0	510	507	0	0	
12	0	0	0	0	511	506	0	0	
13	0	0	0	0	508	508	0	0	
14	0	0	0	0	510	508	0	0	
15	0	0	0	0	510	511	0	0	
0	0	0	0	0	510	510	0	0	
1	0	0	0	0	510	508	0	0	
2	0	0	0	0	510	508	0	0	
3	0	0	0	0	509	507	0	0	
4	0	0	0	0	510	510	0	0	
5	0	0	0	0	509	509	0	0	
6	0	0	0	0	511	509	0	0	
7	0	0	0	0	509	507	0	0	
8	0	0	0	0	509	505	0	0	
9	0	0	0	0	510	506	0	0	
10	0	0	0	0	508	508	0	0	
11	0	0	0	0	508	506	0	0	
12	0	0	0	0	507	508	0	0	
13	0	0	0	0	510	506	0	0	
14	0	0	0	0	514	507	0	0	
15	0	0	0	0	514	507	0	0	
0	0	0	0	0	513	508	0	0	
1	0	0	0	0	510	509	0	0	
2	0	0	0	0	513	510	0	0	
3	0	0	0	0	515	510	0	0	
4	0	0	0	0	512	509	0	0	
5	0	0	0	0	514	509	0	0	
6	0	0	0	0	515	509	0	0	
7	0	0	0	0	515	510	0	0	
8	0	0	0	0	513	508	0	0	
9	0	0	0	0	509	509	0	0	
10	0	0	0	0	508	509	0	0	
11	0	0	0	0	510	506	0	0	
12	0	0	0	0	508	507	0	0	
13	0	0	0	0	506	507	0	0	
14	0	0	0	0	509	505	0	0	
15	0	0	0	0	512	508	0	0	
0	0	0	0	0	512	506	0	0	
1	0	0	0	0	512	508	0	0	
2	0	0	0	0	509	508	0	0	
3	0	0	0	0	511	508	0	0	
4	0	0	0	0	510	508	0	0	
5	0	0	0	0	509	510	0	0	
6	0	0	0	0	510	508	0	0	
7	0	0	0	0	509	508	0	0	
8	0	0	0	0	509	508	0	0	
9	0	0	0	0	512	507	0	0	
10	0	0	0	0	509	511	0	0	
11	0	0	0	0	511	508	0	0	
12	0	0	0	0	514	508	0	0	
13	0	0	0	0	515	509	0	0	
14	0	0	0	0	511	509	0	0	
15	0	0	0	0	511	509	0	0	
0	0	0	0	0	510	507	0	0	
1	0	0	0	0	513	507	0	0	
2	0	0	0	0	515	506	0	0	
3	0	0	0	0	513	508	0	0	
4	0	0	0	0	514	508	0	0	
5	0	0	0	0	513	507	0	0	
6	0	0	0	0	511	507	0	0	
7	0	0	0	0	508	506	0	0	
8	0	0	0	0	510	506	0	0	
9	0	0	0	0	511	509	0	0	
10	0	0	0	0	510	510	0	0	
11	0	0	0	0	509	507	0	0	
12	0	0	0	0	509	510	0	0	
13	0	0	0	0	507	510	0	0	
14	0	0	0	0	507	510	0	0	
15	0	0	0	0	508	508	0	0	
0	0	0	0	0	510	510	0	0	
1	0	0	0	0	512	510	0	0	
2	0	0	0	0	512	509	0	0	
3	0	0	0	0	514	507	0	0	
4	0	0	0	0	511	506	0	0	
5	0	0	0	0	511	507	0	0	
6	0	0	0	0	509	508	0	0	
7	0	0	0	0	511	505	0	0	
8	0	0	0	0	511	507	0	0	
9	0	0	0	0	511	505	0	0	
10	0	0	0	0	513	506	0	0	
11	0	0	0	0	514	507	0	0	
12	0	0	0	0	515	507	0	0	
13	0	0	0	0	514	509	0	0	
14	0	0	0	0	509	510	0	0	
15	0	0	0	0	508	510	0	0	
0	0	0	0	0	506	510	0	0	
1	0	0	0	0	508	509	0	0	
2	0	0	0	0	510	507	0	0	
3	0	0	0	0	511	509	0	0	
4	0	0	0	0	511	508	0	0	
5	0	0	0	0	516	510	0	0	
6	0	0	0	0	515	509	0	0	
7	0	0	0	0	511	509	0	0	
8	0	0	0	0	510	507	0	0	
9	0	0	0	0	510	509	0	0	
10	0	0	0	0	510	509	0	0	
11	0	0	0	0	510	505	0	0	
12	0	0	0	0	511	506	0	0	
13	0	0	0	0	510	509	0	0	
14	0	0	0	0	510	508	0	0	
15	0	0	0	0	512	508	0	0	
0	0	0	0	0	509	506	0	0	
1	0	0	0	0	507	508	0	0	
2	0	0	0	0	511	508	0	0	
3	0	0	0	0	511	508	0	0	
4	0	0	0	0	512	509	0	0	
5	0	0	0	0	511	510	0	0	
6	0	0	0	0	508	508	0	0	
7	0	0	0	0	511	507	0	0	
8	0	0	0	0	513	508	0	0	
9	0	0	0	0	511	510	0	0	
10	0	0	0	0	511	509	0	0	
11	0	0	0	0	512	508	0	0	
12	0	0	0	0	511	505	0	0	
13	0	0	0	0	511	507	0	0	
14	0	0	0	0	513	507	0	0	
15	0	0	0	0	512	508	0	0	
0	0	0	0	0	511	507	0	0	
1	0	0	0	0	511	508	0	0	
2	0	0	0	0	510	506	0	0	
3	0	0	0	0	513	507	0	0	
4	0	0	0	0	512	508	0	0	
5	0	0	0	0	513	506	0	0	
6	0	0	0	0	515	511	0	0	
7	0	0	0	0	513	509	0	0	
8	0	0	0	0	511	510	0	0	
9	0	0	0	0	507	509	0	0	
10	0	0	0	0	507	508	0	0	
11	0	0	0	0	511	510	0	0	
12	0	0	0	0	506	508	0	0	
13	0	0	0	0	508	509	0	0	
14	0	0	0	0	511	508	0	0	
15	0	0	0	0	511	509	0	0	
0	0	0	0	0	511	507	0	0	
1	0	0	0	0	510	507	0	0	
2	0	0	0	0	511	507	0	0	
3	0	0	0	0	513	507	0	0	
4	0	0	0	0	512	507	0	0	
5	0	0	0	0	512	507	0	0	
6	0	0	0	0	512	507	0	0	
7	0	0	0	0	516	507	0	0	
8	0	0	0	0	511	506	0	0	
9	0	0	0	0	510	508	0	0	
10	0	0	0	0	508	509	0	0	
11	0	0	0	0	505	509	0	0	
12	0	0	0	0	506	510	0	0	
13	0	0	0	0	509	510	0	0	
14	0	0	0	0	511	508	0	0	
15	0	0	0	0	514	509	0	0	
0	0	0	0	0	518	509	0	0	
1	0	0	0	0	515	509	0	0	
2	0	0	0	0	512	508	0	0	
3	0	0	0	0	511	508	0	0	
4	0	0	0	0	509	508	0	0	
5	0	0	0	0	511	508	0	0	
6	0	0	0	0	512	505	0	0	
7	0	0	0	0	512	505	0	0	
8	0	0	0	0	512	508	0	0	
9	0	0	0	0	510	508	0	0	
10	0	0	0	0	511	507	0	0	
11	0	0	0	0	511	507	0	0	
12	0	0	0	0	509	508	0	0	
13	0	0	0	0	508	508	0	0	
14	0	0	0	0	506	510	0	0	
15	0	0	0	0	508	508	0	0	
0	0	0	0	0	507	509	0	0	
1	0	0	0	0	507	510	0	0	
2	0	0	0	0	511	511	0	0	
3	0	0	0	0	513	508	0	0	
4	0	0	0	0	516	509	0	0	
5	0	0	0	0	513	510	0	0	
6	0	0	0	0	511	508	0	0	
7	0	0	0	0	512	507	0	0	
8	0	0	0	0	515	507	0	0	
9	0	0	0	0	515	505	0	0	
10	0	0	0	0	513	508	0	0	
11	0	0	0	0	512	506	0	0	
12	0	0	0	0	511	507	0	0	
13	0	0	0	0	511	506	0	0	
14	0	0	0	0	510	508	0	0	
15	0	0	0	0	513	508	0	0	
0	0	0	0	0	513	507	0	0	
1	0	0	0	0	509	508	0	0	
2	0	0	0	0	510	508	0	0	
3	0	0	0	0	509	510	0	0	
4	0	0	0	0	512	509	0	0	
5	0	0	0	0	512	508	0	0	
6	0	0	0	0	511	507	0	0	
7	0	0	0	0	509	509	0	0	
8	0	0	0	0	508	510	0	0	
9	0	0	0	0	509	508	0	0	
10	0	0	0	0	506	508	0	0	
11	0	0	0	0	509	508	0	0	
12	0	0	0	0	515	506	0	0	
13	0	0	0	0	512	508	0	0	
14	0	0	0	0	515	506	0	0	
15	0	0	0	0	514	507	0	0	
0	0	0	0	0	511	507	0	0	
1	0	0	0	0	510	507	0	0	
2	0	0	0	0	510	507	0	0	
3	0	0	0	0	510	510	0	0	
4	0	0	0	0	511	508	0	0	
5	0	0	0	0	511	509	0	0	
6	0	0	0	0	510	509	0	0	
7	0	0	0	0	515	509	0	0	
8	0	0	0	0	514	508	0	0	
9	0	0	0	0	513	510	0	0	
10	0	0	0	0	509	509	0	0	
11	0	0	0	0	508	510	0	0	
12	0	0	0	0	511	508	0	0	
13	0	0	0	0	510	509	0	0	
14	0	0	0	0	509	506	0	0	
15	0	0	0	0	510	507	0	0	
0	0	0	0	0	510	508	0	0	
1	0	0	0	0	509	507	0	0	
2	0	0	0	0	510	506	0	0	
3	0	0	0	0	510	508	0	0	
4	0	0	0	0	511	507	0	0	
5	0	0	0	0	509	509	0	0	
6	0	0	0	0	511	506	0	0	
7	0	0	0	0	511	508	0	0	
8	0	0	0	0	513	506	0	0	
9	0	0	0	0	514	509	0	0	
10	0	0	0	0	510	508	0	0	
11	0	0	0	0	509	511	0	0	
12	0	0	0	0	512	510	0	0	
13	0	0	0	0	514	510	0	0	
14	0	0	0	0	512	510	0	0	
15	0	0	0	0	508	509	0	0	
0	0	0	0	0	504	508	0	0	
1	0	0	0	0	506	509	0	0	
2	0	0	0	0	506	507	0	0	
3	0	0	0	0	511	507	0	0	
4	0	0	0	0	511	506	0	0	
5	0	0	0	0	511	505	0	0	
6	0	0	0	0	517	508	0	0	
7	0	0	0	0	520	507	0	0	
8	0	0	0	0	517	507	0	0	
9	0	0	0	0	516	508	0	0	
10	0	0	0	0	514	505	0	0	
11	0	0	0	0	510	507	0	0	
12	0	0	0	0	508	506	0	0	
13	0	0	0	0	509	509	0	0	
14	0	0	0	0	508	510	0	0	
15	0	0	0	0	505	508	0	0	
0	0	0	0	0	508	510	0	0	
1	0	0	0	0	508	508	0	0	
2	0	0	0	0	507	509	0	0	
3	0	0	0	0	506	510	0	0	
4	0	0	0	0	511	512	0	0	
5	0	0	0	0	508	510	0	0	
6	0	0	0	0	511	510	0	0	
7	0	0	0	0	512	506	0	0	
8	0	0	0	0	516	505	0	0	
9	0	0	0	0	518	505	0	0	
10	0	0	0	0	514	508	0	0	
11	0	0	0	0	513	507	0	0	
12	0	0	0	0	510	508	0	0	
13	0	0	0	0	510	505	0	0	
14	0	0	0	0	510	506	0	0	
15	0	0	0	0	513	508	0	0	
0	0	0	0	0	512	507	0	0	
1	0	0	0	0	509	507	0	0	
2	0	0	0	0	509	510	0	0	
3	0	0	0	0	510	512	0	0	
4	0	0	0	0	509	509	0	0	
5	0	0	0	0	511	510	0	0	
6	0	0	0	0	512	508	0	0	
7	0	0	0	0	507	509	0	0	
8	0	0	0	0	509	508	0	0	
9	0	0	0	0	510	509	0	0	
10	0	0	0	0	509	509	0	0	
11	0	0	0	0	509	509	0	0	
12	0	0	0	0	508	507	0	0	
13	0	0	0	0	511	508	0	0	
14	0	0	0	0	512	506	0	0	
15	0	0	0	0	511	506	0	0	
0	0	0	0	0	511	508	0	0	
1	0	0	0	0	508	508	0	0	
2	0	0	0	0	508	508	0	0	
3	0	0	0	0	511	508	0	0	
4	0	0	0	0	514	508	0	0	
5	0	0	0	0	513	508	0	0	
6	0	0	0	0	516	509	0	0	
7	0	0	0	0	520	509	0	0	
8	0	0	0	0	519	510	0	0	
9	0	0	0	0	515	510	0	0	
10	0	0	0	0	508	508	0	0	
11	0	0	0	0	506	508	0	0	
12	0	0	0	0	505	509	0	0	
13	0	0	0	0	504	510	0	0	
14	0	0	0	0	510	509	0	0	
15	0	0	0	0	511	507	0	0	
0	0	0	0	0	511	509	0	0	
1	0	0	0	0	511	506	0	0	
2	0	0	0	0	513	505	0	0	
3	0	0	0	0	510	507	0	0	
4	0	0	0	0	513	507	0	0	
5	0	0	0	0	512	508	0	0	
6	0	0	0	0	515	507	0	0	
7	0	0	0	0	516	509	0	0	
8	0	0	0	0	518	507	0	0	
9	0	0	0	0	514	508	0	0	
10	0	0	0	0	509	509	0	0	
11	0	0	0	0	509	508	0	0	
12	0	0	0	0	507	509	0	0	
13	0	0	0	0	508	509	0	0	
14	0	0	0	0	508	511	0	0	
15	0	0	0	0	511	510	0	0	
0	0	0	0	0	513	507	0	0	
1	0	0	0	0	514	510	0	0	
2	0	0	0	0	511	507	0	0	
3	0	0	0	0	512	508	0	0	
4	0	0	0	0	508	508	0	0	
5	0	0	0	0	510	507	0	0	
6	0	0	0	0	510	507	0	0	
7	0	0	0	0	510	505	0	0	
8	0	0	0	0	511	506	0	0	
9	0	0	0	0	511	508	0	0	
10	0	0	0	0	509	507	0	0	
11	0	0	0	0	511	508	0	0	
12	0	0	0	0	512	506	0	0	
13	0	0	0	0	510	510	0	0	
14	0	0	0	0	508	509	0	0	
15	0	0	0	0	508	512	0	0	
0	0	0	0	0	507	508	0	0	
1	0	0	0	0	510	508	0	0	
2	0	0	0	0	512	510	0	0	
3	0	0	0	0	511	509	0	0	
4	0	0	0	0	510	508	0	0	
5	0	0	0	0	509	508	0	0	
6	0	0	0	0	512	507	0	0	
7	0	0	0	0	513	508	0	0	
8	0	0	0	0	511	507	0	0	
9	0	0	0	0	513	507	0	0	
10	0	0	0	0	512	508	0	0	
11	0	0	0	0	513	508	0	0	
12	0	0	0	0	511	507	0	0	
13	0	0	0	0	510	508	0	0	
14	0	0	0	0	511	508	0	0	
15	0	0	0	0	512	507	0	0	
0	0	0	0	0	511	506	0	0	
1	0	0	0	0	511	507	0	0	
2	0	0	0	0	508	509	0	0	
3	0	0	0	0	509	508	0	0	
4	0	0	0	0	510	509	0	0	
5	0	0	0	0	509	508	0	0	
6	0	0	0	0	510	508	0	0	
7	0	0	0	0	511	508	0	0	
8	0	0	0	0	510	509	0	0	
9	0	0	0	0	513	510	0	0	
10	0	0	0	0	516	508	0	0	
11	0	0	0	0	512	506	0	0	
12	0	0	0	0	511	507	0	0	
13	0	0	0	0	513	509	0	0	
14	0	0	0	0	513	506	0	0	
15	0	0	0	0	509	505	0	0	
0	0	0	0	0	509	507	0	0	
1	0	0	0	0	513	508	0	0	
2	0	0	0	0	512	507	0	0	
3	0	0	0	0	512	508	0	0	
4	0	0	0	0	508	507	0	0	
5	0	0	0	0	511	507	0	0	
6	0	0	0	0	514	509	0	0	
7	0	0	0	0	514	509	0	0	
8	0	0	0	0	513	510	0	0	
9	0	0	0	0	508	508	0	0	
10	0	0	0	0	509	509	0	0	
11	0	0	0	0	510	510	0	0	
12	0	0	0	0	509	510	0	0	
13	0	0	0	0	508	510	0	0	
14	0	0	0	0	505	508	0	0	
15	0	0	0	0	510	507	0	0	
0	0	0	0	0	514	507	0	0	
1	0	0	0	0	514	507	0	0	
2	0	0	0	0	510	506	0	0	
3	0	0	0	0	508	508	0	0	
4	0	0	0	0	515	508	0	0	
5	0	0	0	0	516	509	0	0	
6	0	0	0	0	513	507	0	0	
7	0	0	0	0	514	505	0	0	
8	0	0	0	0	508	505	0	0	
9	0	0	0	0	510	508	0	0	
10	0	0	0	0	514	508	0	0	
11	0	0	0	0	515	511	0	0	
12	0	0	0	0	512	511	0	0	
13	0	0	0	0	509	510	0	0	
14	0	0	0	0	510	510	0	0	
15	0	0	0	0	511	509	0	0	
0	0	0	0	0	512	508	0	0	
1	0	0	0	0	512	510	0	0	
2	0	0	0	0	510	508	0	0	
3	0	0	0	0	510	506	0	0	
4	0	0	0	0	508	507	0	0	
5	0	0	0	0	505	507	0	0	
6	0	0	0	0	507	507	0	0	
7	0	0	0	0	511	508	0	0	
8	0	0	0	0	509	507	0	0	
9	0	0	0	0	508	507	0	0	
10	0	0	0	0	509	507	0	0	
11	0	0	0	0	512	507	0	0	
12	0	0	0	0	511	507	0	0	
13	0	0	0	0	509	507	0	0	
14	0	0	0	0	510	506	0	0	
15	0	0	0	0	511	508	0	0	
0	0	0	0	0	509	510	0	0	
1	0	0	0	0	511	507	0	0	
2	0	0	0	0	511	510	0	0	
3	0	0	0	0	510	508	0	0	
4	0	0	0	0	515	507	0	0	
5	0	0	0	0	513	509	0	0	
6	0	0	0	0	512	507	0	0	
7	0	0	0	0	512	509	0	0	
8	0	0	0	0	512	508	0	0	
9	0	0	0	0	512	509	0	0	
10	0	0	0	0	508	508	0	0	
11	0	0	0	0	507	506	0	0	
12	0	0	0	0	506	507	0	0	
13	0	0	0	0	507	508	0	0	
14	0	0	0	0	509	508	0	0	
15	0	0	0	0	515	507	0	0	
0	0	0	0	0	515	507	0	0	
1	0	0	0	0	514	509	0	0	
2	0	0	0	0	511	508	0	0	
3	0	0	0	0	518	509	0	0	
4	0	0	0	0	517	508	0	0	
5	0	0	0	0	512	508	0	0	
6	0	0	0	0	510	509	0	0	
7	0	0	0	0	508	508	0	0	
8	0	0	0	0	511	511	0	0	
9	0	0	0	0	512	508	0	0	
10	0	0	0	0	510	509	0	0	
11	0	0	0	0	509	508	0	0	
12	0	0	0	0	511	505	0	0	
13	0	0	0	0	511	508	0	0	
14	0	0	0	0	511	506	0	0	
15	0	0	0	0	509	506	0	0	
0	0	0	0	0	508	506	0	0	
1	0	0	0	0	508	508	0	0	
2	0	0	0	0	510	505	0	0	
3	0	0	0	0	510	509	0	0	
4	0	0	0	0	508	507	0	0	
5	0	0	0	0	509	509	0	0	
6	0	0	0	0	511	510	0	0	
7	0	0	0	0	510	508	0	0	
8	0	0	0	0	512	510	0	0	
9	0	0	0	0	513	510	0	0	
10	0	0	0	0	513	511	0	0	
11	0	0	0	0	511	507	0	0	
12	0	0	0	0	510	508	0	0	
13	0	0	0	0	508	508	0	0	
14	0	0	0	0	512	509	0	0	
15	0	0	0	0	511	506	0	0	
0	0	0	0	0	510	507	0	0	
1	0	0	0	0	513	507	0	0	
2	0	0	0	0	514	506	0	0	
3	0	0	0	0	511	509	0	0	
4	0	0	0	0	514	506	0	0	
5	0	0	0	0	508	507	0	0	
6	0	0	0	0	510	507	0	0	
7	0	0	0	0	511	509	0	0	
8	0	0	0	0	510	506	0	0	
9	0	0	0	0	511	508	0	0	
10	0	0	0	0	509	509	0	0	
11	0	0	0	0	510	507	0	0	
12	0	0	0	0	511	511	0	0	
13	0	0	0	0	508	508	0	0	
14	0	0	0	0	508	511	0	0	
15	0	0	0	0	509	507	0	0	
0	0	0	0	0	512	505	0	0	
1	0	0	0	0	515	509	0	0	
2	0	0	0	0	513	509	0	0	
3	0	0	0	0	512	509	0	0	
4	0	0	0	0	508	507	0	0	
5	0	0	0	0	513	505	0	0	
6	0	0	0	0	511	507	0	0	
7	0	0	0	0	507	507	0	0	
8	0	0	0	0	509	506	0	0	
9	0	0	0	0	509	508	0	0	
10	0	0	0	0	511	507	0	0	
11	0	0	0	0	511	506	0	0	
12	0	0	0	0	511	506	0	0	
13	0	0	0	0	510	507	0	0	
14	0	0	0	0	512	509	0	0	
15	0	0	0	0	514	508	0	0	
0	0	0	0	0	510	511	0	0	
1	0	0	0	0	508	510	0	0	
2	0	0	0	0	508	512	0	0	
3	0	0	0	0	511	508	0	0	
4	0	0	0	0	508	508	0	0	
5	0	0	0	0	507	509	0	0	
6	0	0	0	0	511	509	0	0	
7	0	0	0	0	515	508	0	0	
8	0	0	0	0	516	506	0	0	
9	0	0	0	0	517	507	0	0	
10	0	0	0	0	512	504	0	0	
11	0	0	0	0	511	506	0	0	
12	0	0	0	0	510	507	0	0	
13	0	0	0	0	511	507	0	0	
14	0	0	0	0	512	508	0	0	
15	0	0	0	0	513	507	0	0	
0	0	0	0	0	513	507	0	0	
1	0	0	0	0	513	508	0	0	
2	0	0	0	0	510	510	0	0	
3	0	0	0	0	511	509	0	0	
4	0	0	0	0	511	509	0	0	
5	0	0	0	0	511	509	0	0	
6	0	0	0	0	510	508	0	0	
7	0	0	0	0	505	508	0	0	
8	0	0	0	0	507	509	0	0	
9	0	0	0	0	506	508	0	0	
10	0	0	0	0	507	508	0	0	
11	0	0	0	0	508	508	0	0	
12	0	0	0	0	509	508	0	0	
13	0	0	0	0	511	506	0	0	
14	0	0	0	0	513	507	0	0	
15	0	0	0	0	512	508	0	0	
0	0	0	0	0	514	508	0	0	
1	0	0	0	0	515	507	0	0	
2	0	0	0	0	515	508	0	0	
3	0	0	0	0	515	506	0	0	
4	0	0	0	0	513	507	0	0	
5	0	0	0	0	515	508	0	0	
6	0	0	0	0	513	510	0	0	
7	0	0	0	0	511	510	0	0	
8	0	0	0	0	510	508	0	0	
9	0	0	0	0	506	508	0	0	
10	0	0	0	0	505	511	0	0	
11	0	0	0	0	505	508	0	0	
12	0	0	0	0	508	509	0	0	
13	0	0	0	0	508	509	0	0	
14	0	0	0	0	508	509	0	0	
15	0	0	0	0	511	505	0	0	
0	0	0	0	0	512	505	0	0	
1	0	0	0	0	515	508	0	0	
2	0	0	0	0	511	508	0	0	
3	0	0	0	0	511	508	0	0	
4	0	0	0	0	512	507	0	0	
5	0	0	0	0	511	508	0	0	
6	0	0	0	0	511	508	0	0	
7	0	0	0	0	512	507	0	0	
8	0	0	0	0	506	507	0	0	
9	0	0	0	0	507	508	0	0	
10	0	0	0	0	509	510	0	0	
11	0	0	0	0	511	508	0	0	
12	0	0	0	0	511	509	0	0	
13	0	0	0	0	516	511	0	0	
14	0	0	0	0	512	510	0	0	
15	0	0	0	0	512	509	0	0	
0	0	0	0	0	513	508	0	0	
1	0	0	0	0	510	507	0	0	
2	0	0	0	0	507	508	0	0	
3	0	0	0	0	512	509	0	0	
4	0	0	0	0	511	505	0	0	
5	0	0	0	0	511	507	0	0	
6	0	0	0	0	512	506	0	0	
7	0	0	0	0	508	506	0	0	
8	0	0	0	0	508	506	0	0	
9	0	0	0	0	515	505	0	0	
10	0	0	0	0	517	508	0	0	
11	0	0	0	0	518	508	0	0	
12	0	0	0	0	514	507	0	0	
13	0	0	0	0	515	509	0	0	
14	0	0	0	0	509	511	0	0	
15	0	0	0	0	511	511	0	0	
0	0	0	0	0	511	510	0	0	
1	0	0	0	0	512	510	0	0	
2	0	0	0	0	510	509	0	0	
3	0	0	0	0	510	508	0	0	
4	0	0	0	0	511	508	0	0	
5	0	0	0	0	509	508	0	0	
6	0	0	0	0	506	508	0	0	
7	0	0	0	0	510	507	0	0	
8	0	0	0	0	508	507	0	0	
9	0	0	0	0	511	508	0	0	
10	0	0	0	0	512	505	0	0	
11	0	0	0	0	510	505	0	0	
12	0	0	0	0	510	507	0	0	
13	0	0	0	0	508	507	0	0	
14	0	0	0	0	508	510	0	0	
15	0	0	0	0	510	508	0	0	
0	0	0	0	0	507	506	0	0	
1	0	0	0	0	507	507	0	0	
2	0	0	0	0	508	509	0	0	
3	0	0	0	0	512	509	0	0	
4	0	0	0	0	516	507	0	0	
5	0	0	0	0	515	510	0	0	
6	0	0	0	0	519	509	0	0	
7	0	0	0	0	517	510	0	0	
8	0	0	0	0	512	508	0	0	
9	0	0	0	0	508	510	0	0	
10	0	0	0	0	509	509	0	0	
11	0	0	0	0	511	507	0	0	
12	0	0	0	0	510	506	0	0	
13	0	0	0	0	512	508	0	0	
14	0	0	0	0	516	506	0	0	
15	0	0	0	0	513	506	0	0	
0	0	0	0	0	511	506	0	0	
1	0	0	0	0	511	507	0	0	
2	0	0	0	0	511	508	0	0	
3	0	0	0	0	508	507	0	0	
4	0	0	0	0	512	507	0	0	
5	0	0	0	0	510	507	0	0	
6	0	0	0	0	510	507	0	0	
7	0	0	0	0	510	507	0	0	
8	0	0	0	0	506	511	0	0	
9	0	0	0	0	508	512	0	0	
10	0	0	0	0	508	510	0	0	
11	0	0	0	0	510	510	0	0	
12	0	0	0	0	508	508	0	0	
13	0	0	0	0	513	509	0	0	
14	0	0	0	0	511	509	0	0	
15	0	0	0	0	513	508	0	0	
0	0	0	0	0	514	507	0	0	
1	0	0	0	0	512	507	0	0	
2	0	0	0	0	510	506	0	0	
3	0	0	0	0	510	508	0	0	
4	0	0	0	0	511	507	0	0	
5	0	0	0	0	512	508	0	0	
6	0	0	0	0	511	505	0	0	
7	0	0	0	0	511	506	0	0	
8	0	0	0	0	509	508	0	0	
9	0	0	0	0	512	508	0	0	
10	0	0	0	0	506	507	0	0	
11	0	0	0	0	509	510	0	0	
12	0	0	0	0	510	510	0	0	
13	0	0	0	0	508	512	0	0	
14	0	0	0	0	507	510	0	0	
15	0	0	0	0	511	507	0	0	
0	0	0	0	0	512	508	0	0	
1	0	0	0	0	513	509	0	0	
2	0	0	0	0	514	509	0	0	
3	0	0	0	0	516	508	0	0	
4	0	0	0	0	510	508	0	0	
5	0	0	0	0	514	506	0	0	
6	0	0	0	0	512	507	0	0	
7	0	0	0	0	511	506	0	0	
8	0	0	0	0	508	507	0	0	
9	0	0	0	0	508	507	0	0	
10	0	0	0	0	515	505	0	0	
11	0	0	0	0	514	507	0	0	
12	0	0	0	0	511	508	0	0	
13	0	0	0	0	511	507	0	0	
14	0	0	0	0	508	510	0	0	
15	0	0	0	0	508	510	0	0	
0	0	0	0	0	509	510	0	0	
1	0	0	0	0	510	510	0	0	
2	0	0	0	0	511	508	0	0	
3	0	0	0	0	509	510	0	0	
4	0	0	0	0	507	508	0	0	
5	0	0	0	0	505	509	0	0	
6	0	0	0	0	509	508	0	0	
7	0	0	0	0	511	509	0	0	
8	0	0	0	0	511	507	0	0	
9	0	0	0	0	511	508	0	0	
10	0	0	0	0	514	506	0	0	
11	0	0	0	0	515	507	0	0	
12	0	0	0	0	511	506	0	0	
13	0	0	0	0	512	507	0	0	
14	0	0	0	0	515	510	0	0	
15	0	0	0	0	519	506	0	0	
0	0	0	0	0	519	508	0	0	
1	0	0	0	0	513	508	0	0	
2	0	0	0	0	510	508	0	0	
3	0	0	0	0	510	510	0	0	
4	0	0	0	0	508	510	0	0	
5	0	0	0	0	506	511	0	0	
6	0	0	0	0	506	508	0	0	
7	0	0	0	0	507	508	0	0	
8	0	0	0	0	510	507	0	0	
9	0	0	0	0	514	509	0	0	
10	0	0	0	0	511	508	0	0	
11	0	0	0	0	510	507	0	0	
12	0	0	0	0	511	506	0	0	
13	0	0	0	0	510	509	0	0	
14	0	0	0	0	511	507	0	0	
15	0	0	0	0	509	507	0	0	
0	0	0	0	0	510	507	0	0	
1	0	0	0	0	513	507	0	0	
2	0	0	0	0	513	507	0	0	
3	0	0	0	0	513	506	0	0	
4	0	0	0	0	511	506	0	0	
5	0	0	0	0	510	508	0	0	
6	0	0	0	0	509	511	0	0	
7	0	0	0	0	509	510	0	0	
8	0	0	0	0	514	508	0	0	
9	0	0	0	0	512	509	0	0	
10	0	0	0	0	516	509	0	0	
11	0	0	0	0	512	508	0	0	
12	0	0	0	0	513	509	0	0	
13	0	0	0	0	511	508	0	0	
14	0	0	0	0	509	506	0	0	
15	0	0	0	0	508	508	0	0	
0	0	0	0	0	506	507	0	0	
1	0	0	0	0	511	510	0	0	
2	0	0	0	0	510	508	0	0	
3	0	0	0	0	510	507	0	0	
4	0	0	0	0	510	509	0	0	
5	0	0	0	0	513	505	0	0	
6	0	0	0	0	515	508	0	0	
7	0	0	0	0	513	506	0	0	
8	0	0	0	0	510	507	0	0	
9	0	0	0	0	511	507	0	0	
10	0	0	0	0	509	508	0	0	
11	0	0	0	0	511	508	0	0	
12	0	0	0	0	510	509	0	0	
13	0	0	0	0	511	510	0	0	
14	0	0	0	0	509	507	0	0	
15	0	0	0	0	511	508	0	0	
0	0	0	0	0	509	509	0	0	
1	0	0	0	0	507	510	0	0	
2	0	0	0	0	509	507	0	0	
3	0	0	0	0	511	507	0	0	
4	0	0	0	0	512	507	0	0	
5	0	0	0	0	511	508	0	0	
6	0	0	0	0	512	508	0	0	
7	0	0	0	0	510	507	0	0	
8	0	0	0	0	510	505	0	0	
9	0	0	0	0	510	505	0	0	
10	0	0	0	0	510	508	0	0	
11	0	0	0	0	509	508	0	0	
12	0	0	0	0	511	507	0	0	
13	0	0	0	0	511	507	0	0	
14	0	0	0	0	512	508	0	0	
15	0	0	0	0	511	510	0	0	
0	0	0	0	0	511	511	0	0	
1	0	0	0	0	512	509	0	0	
2	0	0	0	0	512	509	0	0	
3	0	0	0	0	515	510	0	0	
4	0	0	0	0	515	509	0	0	
5	0	0	0	0	513	508	0	0	
6	0	0	0	0	509	509	0	0	
7	0	0	0	0	508	508	0	0	
8	0	0	0	0	508	508	0	0	
9	0	0	0	0	510	507	0	0	
10	0	0	0	0	507	507	0	0	
11	0	0	0	0	511	505	0	0	
12	0	0	0	0	514	506	0	0	
13	0	0	0	0	515	508	0	0	
14	0	0	0	0	517	509	0	0	
15	0	0	0	0	516	508	0	0	
0	0	0	0	0	513	507	0	0	
1	0	0	0	0	511	508	0	0	
2	0	0	0	0	512	508	0	0	
3	0	0	0	0	509	510	0	0	
4	0	0	0	0	508	511	0	0	
5	0	0	0	0	505	509	0	0	
6	0	0	0	0	504	510	0	0	
7	0	0	0	0	508	508	0	0	
8	0	0	0	0	511	509	0	0	
9	0	0	0	0	509	509	0	0	
10	0	0	0	0	511	508	0	0	
11	0	0	0	0	512	508	0	0	
12	0	0	0	0	510	507	0	0	
13	0	0	0	0	508	507	0	0	
14	0	0	0	0	513	506	0	0	
15	0	0	0	0	521	505	0	0	
0	0	0	0	0	518	506	0	0	
1	0	0	0	0	511	508	0	0	
2	0	0	0	0	508	508	0	0	
3	0	0	0	0	510	507	0	0	
4	0	0	0	0	510	508	0	0	
5	0	0	0	0	506	511	0	0	
6	0	0	0	0	508	509	0	0	
7	0	0	0	0	511	507	0	0	
8	0	0	0	0	511	509	0	0	
9	0	0	0	0	506	508	0	0	
10	0	0	0	0	501	510	0	0	
11	0	0	0	0	501	509	0	0	
12	0	0	0	0	501	509	0	0	
13	0	0	0	0	511	507	0	0	
14	0	0	0	0	509	507	0	0	
15	0	0	0	0	500	507	0	0	
0	0	0	0	0	497	508	0	0	
1	0	0	0	0	503	508	0	0	
2	0	0	0	0	510	508	0	0	
3	0	0	0	0	523	510	0	0	
4	0	0	0	0	517	509	0	0	
5	0	0	0	0	511	505	0	0	
6	0	0	0	0	516	507	0	0	
7	0	0	0	0	540	503	0	0	
8	0	0	0	0	548	502	0	0	
9	0	0	0	0	535	504	0	0	
10	0	0	0	0	513	508	0	0	
11	0	0	0	0	516	512	0	0	
12	0	0	0	0	527	516	0	0	
13	0	0	0	0	532	513	0	0	
14	0	0	0	0	519	512	0	0	
15	0	0	0	0	502	512	0	0	
0	0	0	0	0	498	507	0	0	
1	0	0	0	0	493	506	0	0	
2	0	0	0	0	489	505	0	0	
3	0	0	0	0	486	508	0	0	
4	0	0	0	0	483	510	0	0	
5	0	0	0	0	472	512	0	0	
6	0	0	0	0	473	521	0	0	
7	0	0	0	0	481	520	0	0	
8	0	0	0	0	499	516	0	0	
9	0	0	0	0	492	508	0	0	
10	0	0	0	0	482	502	0	0	
11	0	0	0	0	503	497	0	0	
12	0	0	0	0	516	496	0	0	
13	0	0	0	0	519	499	0	0	
14	0	0	0	0	523	499	0	0	
15	0	0	0	0	552	496	0	0	
0	0	0	0	0	575	494	0	0	
1	0	0	0	0	554	504	0	0	
2	0	0	0	0	567	506	0	0	
3	0	0	0	0	576	500	0	0	
4	0	0	0	0	527	503	0	0	
5	0	0	0	0	498	523	0	0	
6	0	0	0	0	494	535	0	0	
7	0	0	0	0	512	533	0	0	
8	0	0	0	0	475	529	0	0	
9	0	0	0	0	464	519	0	0	
10	0	0	0	0	483	516	0	0	
11	0	0	0	0	529	497	0	0	
12	0	0	0	0	513	495	0	0	
13	0	0	0	0	489	510	0	0	
14	0	0	0	0	518	505	0	0	
15	0	0	0	0	547	504	0	0	
0	0	0	0	0	531	502	0	0	
1	0	0	0	0	480	494	0	0	
2	0	0	0	0	470	496	0	0	
3	0	0	0	0	483	495	0	0	
4	0	0	0	0	533	497	0	0	
5	0	0	0	0	600	502	0	0	
6	0	0	0	0	565	522	12	0	
7	0	0	0	0	519	542	10	0	
8	0	0	0	0	480	533	14	0	
9	0	0	0	0	422	519	20	0	
10	0	0	0	0	395	508	30	0	
11	0	0	0	0	440	492	33	0	
12	0	0	0	0	524	478	50	0	
13	0	0	0	0	588	473	67	0	
14	0	0	0	0	575	491	75	0	
15	0	0	0	0	637	507	90	0	
0	0	0	0	0	601	510	95	0	
1	0	0	0	0	507	508	97	0	
2	0	0	0	0	450	518	103	0	
3	0	0	0	0	482	517	112	0	
4	0	0	0	0	507	518	120	0	
5	0	0	0	0	495	510	125	0	
6	0	0	0	0	491	497	127	0	
7	0	0	0	0	548	496	135	0	
8	0	0	0	0	544	508	139	0	
9	0	0	0	0	509	509	143	0	
10	0	0	0	0	538	501	152	0	
11	0	0	0	0	540	495	157	0	
12	0	0	0	0	523	506	168	0	
13	0	0	0	0	452	540	176	0	
14	0	0	0	0	457	531	191	0	
15	0	0	0	0	498	514	204	0	
0	0	0	0	0	474	549	209	0	
1	0	0	0	0	489	532	218	0	
2	0	0	0	0	454	507	229	0	
3	0	0	0	0	420	499	240	0	
4	0	0	0	0	455	491	256	0	
5	0	0	0	0	482	477	256	0	
6	0	0	0	0	479	484	270	0	
7	0	0	0	0	535	499	277	0	
8	0	0	0	0	597	496	291	0	
9	0	0	0	0	594	499	310	0	
10	0	0	0	0	576	524	314	0	
11	0	0	0	0	644	526	321	0	
12	0	0	0	0	563	519	323	0	
13	0	0	0	0	470	528	328	0	
14	0	0	0	0	444	501	346	0	
15	0	0	0	0	406	477	344	0	
0	0	0	0	0	369	497	351	0	
1	0	0	0	0	428	504	354	0	
2	0	0	0	0	487	515	361	0	
3	0	0	0	0	654	513	372	0	
4	0	0	0	0	672	494	384	0	
5	0	0	0	0	608	474	391	0	
6	0	0	0	0	595	521	405	0	
7	0	0	0	0	592	568	405	0	
8	0	0	0	0	598	537	412	0	
9	0	0	0	0	492	506	419	0	
10	0	0	0	0	424	500	427	0	
11	0	0	0	0	437	485	430	0	
12	0	0	0	0	411	491	433	23	
13	0	0	0	0	405	519	444	8	
14	0	0	0	0	450	509	454	17	
15	0	0	0	0	504	507	462	46	
0	0	0	0	0	577	510	466	58	
1	0	0	0	0	583	529	471	68	
2	0	0	0	0	542	554	475	69	
3	0	0	0	0	459	512	481	74	
4	0	0	0	0	438	510	484	80	
5	0	0	0	0	442	515	486	91	
6	0	0	0	0	497	496	492	98	
7	0	0	0	0	602	476	496	103	
8	0	0	0	0	636	478	500	99	
9	0	0	0	0	615	496	505	103	
10	0	0	0	0	539	498	508	108	
11	0	0	0	0	430	485	511	112	
12	0	0	0	0	461	512	512	111	
13	0	0	0	0	483	524	514	112	
14	0	0	0	0	471	539	516	116	
15	0	0	0	0	486	545	519	115	
0	0	0	0	0	479	541	521	117	
1	0	0	0	0	492	509	523	114	
2	0	0	0	0	484	505	528	117	
3	0	0	0	0	484	496	524	119	
4	0	0	0	0	544	475	525	119	
5	0	0	0	0	584	466	527	124	
6	0	0	0	0	579	484	531	122	
7	0	0	0	0	546	505	535	122	
8	0	0	0	0	528	509	536	124	
9	0	0	0	0	503	487	539	123	
10	0	0	0	0	489	496	540	123	
11	0	0	0	0	506	527	543	122	
12	0	0	0	0	487	519	545	124	
13	0	0	0	0	473	501	548	125	
14	0	0	0	0	471	516	550	125	
15	0	0	0	0	506	511	552	127	
0	0	0	0	0	532	518	556	126	
1	0	0	0	0	515	510	560	126	
2	0	0	0	0	505	520	561	124	
3	0	0	0	0	500	518	563	124	
4	0	0	0	0	494	506	566	123	
5	0	0	0	0	480	501	566	121	
6	0	0	0	0	463	502	568	123	
7	0	0	0	0	481	508	569	124	
8	0	0	0	0	494	537	572	125	
9	0	0	0	0	518	541	572	127	
10	0	0	0	0	562	515	574	126	
11	0	0	0	0	615	492	574	126	
12	0	0	0	0	595	488	576	129	
13	0	0	0	0	566	498	579	130	
14	0	0	0	0	523	507	580	128	
15	0	0	0	0	481	503	583	130	
0	0	0	0	0	419	496	584	130	
1	0	0	0	0	435	501	585	131	
2	0	0	0	0	481	507	587	130	
3	0	0	0	0	530	507	587	130	
4	0	0	0	0	519	512	588	131	
5	0	0	0	0	504	519	589	134	
6	0	0	0	0	515	512	589	133	
7	0	0	0	0	536	508	590	136	
8	0	0	0	0	531	494	589	138	
9	0	0	0	0	491	505	590	141	
10	0	0	0	0	456	521	589	142	
11	0	0	0	0	495	518	590	143	
12	0	0	0	0	497	498	591	140	
13	0	0	0	0	512	498	592	142	
14	0	0	0	0	542	500	593	142	
15	0	0	0	0	584	519	595	144	
0	0	0	0	0	543	528	594	144	
1	0	0	0	0	487	520	595	145	
2	0	0	0	0	444	514	595	143	
3	0	0	0	0	489	508	595	144	
4	0	0	0	0	499	510	596	143	
5	0	0	0	0	504	507	597	140	
6	0	0	0	0	536	502	598	140	
7	0	0	0	0	567	492	599	141	
8	0	0	0	0	540	489	598	143	
9	0	0	0	0	550	499	599	145	
10	0	0	0	0	554	491	600	144	
11	0	0	0	0	569	513	600	145	
12	0	0	0	0	526	523	600	148	
13	0	0	0	0	540	510	601	149	
14	0	0	0	0	516	508	601	151	
15	0	0	0	0	478	507	601	152	
0	0	0	0	0	465	516	603	154	
1	0	0	0	0	463	517	603	153	
2	0	0	0	0	470	517	602	153	
3	0	0	0	0	528	510	605	153	
4	0	0	0	0	543	504	606	153	
5	0	0	0	0	467	499	606	152	
6	0	0	0	0	443	506	606	155	
7	0	0	0	0	427	506	607	156	
8	0	0	0	0	468	508	607	154	
9	0	0	0	0	502	508	608	155	
10	0	0	0	0	586	506	609	155	
11	0	0	0	0	616	505	610	155	
12	0	0	0	0	603	511	610	155	
13	0	0	0	0	554	519	610	155	
14	0	0	0	0	524	510	611	156	
15	0	0	0	0	510	512	611	156	
0	0	0	0	0	505	514	611	156	
1	0	0	0	0	518	505	613	156	
2	0	0	0	0	493	505	614	157	
3	0	0	0	0	453	513	614	156	
4	0	0	0	0	474	513	614	158	
5	0	0	0	0	510	503	615	156	
6	0	0	0	0	538	499	615	155	
7	0	0	0	0	520	511	615	156	
8	0	0	0	0	507	516	615	155	
9	0	0	0	0	479	512	614	156	
10	0	0	0	0	528	508	615	157	
11	0	0	0	0	497	512	615	156	
12	0	0	0	0	505	515	615	155	
13	0	0	0	0	497	508	615	155	
14	0	0	0	0	509	491	615	157	
15	0	0	0	0	492	489	615	156	
0	0	0	0	0	497	480	615	155	
1	0	0	0	0	503	483	615	155	
2	0	0	0	0	489	505	615	156	
3	0	0	0	0	502	526	615	158	
4	0	0	0	0	508	532	615	158	
5	0	0	0	0	513	530	615	158	
6	0	0	0	0	515	519	615	156	
7	0	0	0	0	520	511	615	156	
8	0	0	0	0	515	522	615	157	
9	0	0	0	0	521	513	615	156	
10	0	0	0	0	529	483	615	155	
11	0	0	0	0	519	478	615	155	
12	0	0	0	0	500	494	615	156	
13	0	0	0	0	501	516	615	155	
14	0	0	0	0	503	517	615	156	
15	0	0	0	0	513	520	615	158	
0	0	0	0	0	504	519	615	157	
1	0	0	0	0	493	510	615	156	
2	0	0	0	0	496	499	615	157	
3	0	0	0	0	496	493	615	157	
4	0	0	0	0	499	490	615	156	
5	0	0	0	0	503	490	615	157	
6	0	0	0	0	529	505	615	157	
7	0	0	0	0	536	518	615	153	
8	0	0	0	0	533	511	615	154	
9	0	0	0	0	519	511	615	153	
10	0	0	0	0	532	517	615	153	
11	0	0	0	0	558	519	615	153	
12	0	0	0	0	543	515	615	152	
13	0	0	0	0	519	508	615	151	
14	0	0	0	0	503	507	615	152	
15	0	0	0	0	519	511	615	150	
0	0	0	0	0	501	518	615	149	
1	0	0	0	0	518	521	615	149	
2	0	0	0	0	521	520	615	147	
3	0	0	0	0	487	518	615	147	
4	0	0	0	0	475	518	615	148	
5	0	0	0	0	462	511	615	147	
6	0	0	0	0	437	505	615	145	
7	0	0	0	0	465	500	615	147	
8	0	0	0	0	531	495	615	145	
9	0	0	0	0	558	492	615	143	
10	0	0	0	0	550	485	615	143	
11	0	0	0	0	533	489	615	143	
12	0	0	0	0	534	500	615	140	
13	0	0	0	0	578	503	615	141	
14	0	0	0	0	567	513	615	141	
15	0	0	0	0	555	521	615	139	
0	0	0	0	0	504	517	615	139	
1	0	0	0	0	437	513	615	138	
2	0	0	0	0	455	512	615	135	
3	0	0	0	0	486	520	615	135	
4	0	0	0	0	492	513	615	136	
5	0	0	0	0	492	511	615	138	
6	0	0	0	0	508	511	615	139	
7	0	0	0	0	492	514	615	137	
8	0	0	0	0	428	513	615	135	
9	0	0	0	0	458	509	615	134	
10	0	0	0	0	485	505	615	134	
11	0	0	0	0	591	499	615	134	
12	0	0	0	0	596	495	615	133	
13	0	0	0	0	588	499	615	135	
14	0	0	0	0	576	504	615	133	
15	0	0	0	0	510	504	615	133	
0	0	0	0	0	497	504	615	131	
1	0	0	0	0	467	507	615	133	
2	0	0	0	0	486	507	615	131	
3	0	0	0	0	478	510	614	131	
4	0	0	0	0	504	516	614	131	
5	0	0	0	0	531	515	612	131	
6	0	0	0	0	496	514	612	130	
7	0	0	0	0	475	512	611	129	
8	0	0	0	0	489	509	611	130	
9	0	0	0	0	528	505	611	129	
10	0	0	0	0	569	508	611	130	
11	0	0	0	0	615	511	611	129	
12	0	0	0	0	553	508	611	129	
13	0	0	0	0	493	507	611	128	
14	0	0	0	0	472	503	611	128	
15	0	0	0	0	491	509	611	127	
0	0	0	0	0	491	510	611	127	
1	0	0	0	0	525	500	611	127	
2	0	0	0	0	528	512	610	126	
3	0	0	0	0	483	516	610	126	
4	0	0	0	0	480	517	610	125	
5	0	0	0	0	470	512	610	126	
6	0	0	0	0	499	508	610	127	
7	0	0	0	0	506	498	610	127	
8	0	0	0	0	528	499	609	127	
9	0	0	0	0	536	502	610	128	
10	0	0	0	0	515	516	609	127	
11	0	0	0	0	507	515	609	128	
12	0	0	0	0	499	500	610	126	
13	0	0	0	0	514	510	609	124	
14	0	0	0	0	505	518	609	127	
15	0	0	0	0	489	527	608	126	
0	0	0	0	0	501	527	609	128	
1	0	0	0	0	510	515	609	126	
2	0	0	0	0	508	510	609	127	
3	0	0	0	0	517	497	609	128	
4	0	0	0	0	527	486	608	128	
5	0	0	0	0	536	482	608	128	
6	0	0	0	0	515	487	608	129	
7	0	0	0	0	515	478	608	127	
8	0	0	0	0	506	489	608	127	
9	0	0	0	0	507	509	608	126	
10	0	0	0	0	519	515	608	128	
11	0	0	0	0	507	527	608	127	
12	0	0	0	0	507	521	607	128	
13	0	0	0	0	508	515	607	128	
14	0	0	0	0	508	512	607	129	
15	0	0	0	0	508	509	607	130	
0	0	0	0	0	509	512	607	127	
1	0	0	0	0	512	513	607	127	
2	0	0	0	0	487	522	607	127	
3	0	0	0	0	492	516	607	127	
4	0	0	0	0	499	503	607	126	
5	0	0	0	0	492	506	607	127	
6	0	0	0	0	494	511	606	125	
7	0	0	0	0	519	511	606	125	
8	0	0	0	0	527	511	606	124	
9	0	0	0	0	555	501	607	124	
10	0	0	0	0	537	509	606	124	
11	0	0	0	0	502	499	606	123	
12	0	0	0	0	471	502	606	121	
13	0	0	0	0	455	491	606	122	
14	0	0	0	0	498	487	605	121	
15	0	0	0	0	523	497	605	121	
0	0	0	0	0	556	518	605	119	
1	0	0	0	0	554	519	605	117	
2	0	0	0	0	554	519	604	116	
3	0	0	0	0	575	517	604	115	
4	0	0	0	0	536	510	604	115	
5	0	0	0	0	505	515	603	114	
6	0	0	0	0	499	505	603	115	
7	0	0	0	0	491	505	603	112	
8	0	0	0	0	477	508	603	112	
9	0	0	0	0	476	499	603	112	
10	0	0	0	0	515	499	603	112	
11	0	0	0	0	553	502	602	111	
12	0	0	0	0	560	509	601	111	
13	0	0	0	0	537	525	600	110	
14	0	0	0	0	494	517	599	108	
15	0	0	0	0	483	508	599	107	
0	0	0	0	0	494	509	599	105	
1	0	0	0	0	470	514	599	103	
2	0	0	0	0	472	518	598	103	
3	0	0	0	0	481	509	598	103	
4	0	0	0	0	482	506	597	103	
5	0	0	0	0	485	506	597	102	
6	0	0	0	0	485	509	597	102	
7	0	0	0	0	495	510	596	101	
8	0	0	0	0	476	506	596	101	
9	0	0	0	0	490	508	596	100	
10	0	0	0	0	513	508	596	101	
11	0	0	0	0	548	513	596	100	
12	0	0	0	0	579	509	595	101	
13	0	0	0	0	553	508	595	101	
14	0	0	0	0	556	500	595	100	
15	0	0	0	0	571	496	594	100	
0	0	0	0	0	537	508	595	100	
1	0	0	0	0	501	510	596	100	
2	0	0	0	0	523	504	596	99	
3	0	0	0	0	548	508	595	99	
4	0	0	0	0	525	510	596	99	
5	0	0	0	0	489	514	595	98	
6	0	0	0	0	479	502	595	98	
7	0	0	0	0	478	507	595	96	
8	0	0	0	0	484	512	595	96	
9	0	0	0	0	482	512	595	96	
10	0	0	0	0	487	498	595	95	
11	0	0	0	0	475	502	595	95	
12	0	0	0	0	483	511	594	96	
13	0	0	0	0	526	511	593	96	
14	0	0	0	0	555	507	594	96	
15	0	0	0	0	568	506	594	96	
0	0	0	0	0	560	505	593	96	
1	0	0	0	0	539	508	593	96	
2	0	0	0	0	503	509	592	95	
3	0	0	0	0	487	499	592	95	
4	0	0	0	0	497	506	592	96	
5	0	0	0	0	517	515	592	96	
6	0	0	0	0	489	518	593	97	
7	0	0	0	0	481	511	592	97	
8	0	0	0	0	503	505	592	96	
9	0	0	0	0	501	526	593	96	
10	0	0	0	0	520	520	591	96	
11	0	0	0	0	525	508	592	96	
12	0	0	0	0	511	506	593	96	
13	0	0	0	0	496	508	592	97	
14	0	0	0	0	502	507	592	98	
15	0	0	0	0	502	506	592	97	
0	0	0	0	0	503	509	593	97	
1	0	0	0	0	524	503	593	97	
2	0	0	0	0	499	495	593	98	
3	0	0	0	0	471	494	593	97	
4	0	0	0	0	483	498	592	97	
5	0	0	0	0	477	506	593	98	
6	0	0	0	0	503	505	593	98	
7	0	0	0	0	542	502	593	98	
8	0	0	0	0	565	517	593	98	
9	0	0	0	0	562	515	593	97	
10	0	0	0	0	548	511	593	99	
11	0	0	0	0	534	513	593	99	
12	0	0	0	0	495	507	594	98	
13	0	0	0	0	489	508	595	99	
14	0	0	0	0	464	513	594	99	
15	0	0	0	0	497	501	594	99	
0	0	0	0	0	480	502	594	99	
1	0	0	0	0	518	503	593	99	
2	0	0	0	0	546	507	595	100	
3	0	0	0	0	546	504	595	99	
4	0	0	0	0	544	511	593	99	
5	0	0	0	0	528	521	594	99	
6	0	0	0	0	516	521	594	97	
7	0	0	0	0	497	521	594	97	
8	0	0	0	0	493	515	594	96	
9	0	0	0	0	504	502	595	95	
10	0	0	0	0	502	500	595	93	
11	0	0	0	0	546	494	595	93	
12	0	0	0	0	560	496	595	86	
13	0	0	0	0	531	495	595	83	
14	0	0	0	0	495	510	595	83	
15	0	0	0	0	462	518	596	83	
0	0	0	0	0	460	516	596	81	
1	0	0	0	0	457	515	596	80	
2	0	0	0	0	461	511	596	79	
3	0	0	0	0	465	511	595	79	
4	0	0	0	0	528	510	596	76	
5	0	0	0	0	579	504	595	75	
6	0	0	0	0	621	508	596	71	
7	0	0	0	0	577	500	596	71	
8	0	0	0	0	516	496	596	71	
9	0	0	0	0	456	503	596	67	
10	0	0	0	0	464	511	595	65	
11	0	0	0	0	496	514	595	63	
12	0	0	0	0	501	515	595	61	
13	0	0	0	0	487	522	595	60	
14	0	0	0	0	480	518	595	59	
15	0	0	0	0	484	508	595	56	
0	0	0	0	0	474	505	594	53	
1	0	0	0	0	512	502	595	50	
2	0	0	0	0	515	505	594	48	
3	0	0	0	0	548	504	594	48	
4	0	0	0	0	531	499	595	49	
5	0	0	0	0	596	497	595	46	
6	0	0	0	0	615	502	594	45	
7	0	0	0	0	574	503	594	46	
8	0	0	0	0	501	516	595	44	
9	0	0	0	0	474	522	594	45	
10	0	0	0	0	454	512	593	43	
11	0	0	0	0	449	506	595	44	
12	0	0	0	0	488	504	595	43	
13	0	0	0	0	504	510	594	43	
14	0	0	0	0	538	510	594	43	
15	0	0	0	0	521	504	594	44	
0	0	0	0	0	494	501	594	43	
1	0	0	0	0	482	501	595	40	
2	0	0	0	0	473	509	594	28	
3	0	0	0	0	481	524	594	26	
4	0	0	0	0	509	520	594	25	
5	0	0	0	0	515	511	594	23	
6	0	0	0	0	479	503	595	23	
7	0	0	0	0	524	499	595	23	
8	0	0	0	0	553	509	595	21	
9	0	0	0	0	517	519	595	20	
10	0	0	0	0	546	515	595	23	
11	0	0	0	0	592	503	593	25	
12	0	0	0	0	535	503	594	25	
13	0	0	0	0	500	500	595	25	
14	0	0	0	0	489	502	595	25	
15	0	0	0	0	482	509	594	28	
0	0	0	0	0	485	507	595	29	
1	0	0	0	0	485	504	595	29	
2	0	0	0	0	510	500	593	32	
3	0	0	0	0	539	501	594	31	
4	0	0	0	0	544	518	594	31	
5	0	0	0	0	519	525	595	34	
6	0	0	0	0	529	530	595	35	
7	0	0	0	0	519	525	595	35	
8	0	0	0	0	503	524	595	35	
9	0	0	0	0	498	520	595	38	
10	0	0	0	0	517	505	595	38	
11	0	0	0	0	508	493	595	36	
12	0	0	0	0	507	483	595	36	
13	0	0	0	0	524	473	595	36	
14	0	0	0	0	503	481	595	35	
15	0	0	0	0	478	482	595	33	
0	0	0	0	0	485	497	595	37	
1	0	0	0	0	479	512	596	34	
2	0	0	0	0	490	517	596	34	
3	0	0	0	0	514	507	596	34	
4	0	0	0	0	502	505	595	32	
5	0	0	0	0	542	516	595	34	
6	0	0	0	0	548	522	595	31	
7	0	0	0	0	553	516	595	29	
8	0	0	0	0	512	512	595	29	
9	0	0	0	0	484	522	595	27	
10	0	0	0	0	459	523	596	26	
11	0	0	0	0	492	500	596	27	
12	0	0	0	0	508	504	595	27	
13	0	0	0	0	539	513	595	20	
14	0	0	0	0	538	509	595	0	
15	0	0	0	0	522	496	595	0	
0	0	0	0	0	503	498	595	0	
1	0	0	0	0	495	517	596	0	
2	0	0	0	0	495	513	595	0	
3	0	0	0	0	501	517	595	0	
4	0	0	0	0	494	522	596	0	
5	0	0	0	0	518	521	596	0	
6	0	0	0	0	539	510	595	0	
7	0	0	0	0	541	502	596	0	
8	0	0	0	0	524	501	596	0	
9	0	0	0	0	509	513	595	0	
10	0	0	0	0	481	514	596	0	
11	0	0	0	0	493	515	596	0	
12	0	0	0	0	509	504	595	0	
13	0	0	0	0	515	505	595	0	
14	0	0	0	0	521	504	595	0	
15	0	0	0	0	558	505	595	0	
0	0	0	0	0	539	498	595	0	
1	0	0	0	0	531	492	594	0	
2	0	0	0	0	526	504	594	0	
3	0	0	0	0	517	503	594	0	
4	0	0	0	0	488	511	594	0	
5	0	0	0	0	459	522	593	0	
6	0	0	0	0	456	511	593	0	
7	0	0	0	0	469	506	594	0	
8	0	0	0	0	549	507	592	0	
9	0	0	0	0	540	512	593	0	
10	0	0	0	0	533	509	594	0	
11	0	0	0	0	588	505	594	0	
12	0	0	0	0	550	500	594	0	
13	0	0	0	0	500	503	594	0	
14	0	0	0	0	470	502	594	0	
15	0	0	0	0	471	507	595	0	
0	0	0	0	0	484	508	593	0	
1	0	0	0	0	476	509	593	0	
2	0	0	0	0	503	516	593	0	
3	0	0	0	0	513	509	593	0	
4	0	0	0	0	493	516	593	0	
5	0	0	0	0	473	516	593	0	
6	0	0	0	0	508	513	594	0	
7	0	0	0	0	505	515	593	0	
8	0	0	0	0	495	499	593	0	
9	0	0	0	0	547	482	593	0	
10	0	0	0	0	599	500	593	0	
11	0	0	0	0	535	514	593	0	
12	0	0	0	0	491	513	594	0	
13	0	0	0	0	465	518	595	0	
14	0	0	0	0	471	517	594	0	
15	0	0	0	0	487	514	595	0	
0	0	0	0	0	524	514	595	0	
1	0	0	0	0	544	509	593	0	
2	0	0	0	0	553	500	594	0	
3	0	0	0	0	555	491	594	0	
4	0	0	0	0	546	494	595	0	
5	0	0	0	0	546	502	595	0	
6	0	0	0	0	566	507	595	0	
7	0	0	0	0	523	515	595	0	
8	0	0	0	0	487	515	595	0	
9	0	0	0	0	475	512	595	0	
10	0	0	0	0	449	508	595	0	
11	0	0	0	0	476	502	596	0	
12	0	0	0	0	505	496	596	0	
13	0	0	0	0	508	497	597	0	
14	0	0	0	0	542	511	596	0	
15	0	0	0	0	542	514	596	0	
0	0	0	0	0	486	509	597	0	
1	0	0	0	0	474	524	597	0	
2	0	0	0	0	508	524	598	0	
3	0	0	0	0	512	526	597	0	
4	0	0	0	0	519	511	597	0	
5	0	0	0	0	535	513	598	0	
6	0	0	0	0	514	522	598	0	
7	0	0	0	0	496	512	598	0	
8	0	0	0	0	502	504	598	0	
9	0	0	0	0	511	495	597	0	
10	0	0	0	0	494	492	598	0	
11	0	0	0	0	476	492	597	0	
12	0	0	0	0	472	497	598	0	
13	0	0	0	0	491	500	598	0	
14	0	0	0	0	475	506	596	0	
15	0	0	0	0	492	510	597	0	
0	0	0	0	0	517	508	598	0	
1	0	0	0	0	547	516	598	0	
2	0	0	0	0	526	526	598	0	
3	0	0	0	0	561	520	598	0	
4	0	0	0	0	573	497	598	0	
5	0	0	0	0	530	486	599	0	
6	0	0	0	0	518	490	599	0	
7	0	0	0	0	527	494	598	0	
8	0	0	0	0	519	506	599	0	
9	0	0	0	0	526	506	599	0	
10	0	0	0	0	518	507	598	0	
11	0	0	0	0	516	509	599	0	
12	0	0	0	0	484	517	599	0	
13	0	0	0	0	465	520	600	0	
14	0	0	0	0	498	516	599	0	
15	0	0	0	0	523	511	599	0	
0	0	0	0	0	541	510	599	0	
1	0	0	0	0	524	514	599	0	
2	0	0	0	0	507	511	600	0	
3	0	0	0	0	485	512	599	0	
4	0	0	0	0	455	515	599	0	
5	0	0	0	0	463	513	599	0	
6	0	0	0	0	483	503	599	0	
7	0	0	0	0	512	491	599	0	
8	0	0	0	0	550	499	599	0	
9	0	0	0	0	555	510	599	0	
10	0	0	0	0	501	514	598	0	
11	0	0	0	0	468	516	598	0	
12	0	0	0	0	519	513	598	0	
13	0	0	0	0	537	515	598	0	
14	0	0	0	0	554	508	597	0	
15	0	0	0	0	540	501	598	0	
0	0	0	0	0	539	501	599	0	
1	0	0	0	0	544	512	599	0	
2	0	0	0	0	524	508	599	0	
3	0	0	0	0	506	502	598	0	
4	0	0	0	0	476	505	599	0	
5	0	0	0	0	483	509	599	0	
6	0	0	0	0	500	509	599	0	
7	0	0	0	0	514	504	598	0	
8	0	0	0	0	519	508	598	0	
9	0	0	0	0	488	502	600	0	
10	0	0	0	0	527	504	599	0	
11	0	0	0	0	534	506	598	0	
12	0	0	0	0	513	507	598	0	
13	0	0	0	0	473	517	598	0	
14	0	0	0	0	483	511	599	0	
15	0	0	0	0	509	507	600	0	
0	0	0	0	0	537	513	599	0	
1	0	0	0	0	483	509	599	0	
2	0	0	0	0	479	502	599	0	
3	0	0	0	0	505	511	599	0	
4	0	0	0	0	517	514	599	0	
5	0	0	0	0	545	512	598	0	
6	0	0	0	0	548	505	599	0	
7	0	0	0	0	559	506	598	0	
8	0	0	0	0	515	511	599	0	
9	0	0	0	0	502	507	599	0	
10	0	0	0	0	517	509	599	0	
11	0	0	0	0	524	509	598	0	
12	0	0	0	0	493	504	598	0	
13	0	0	0	0	496	503	598	0	
14	0	0	0	0	495	507	598	0	
15	0	0	0	0	483	513	599	0	
0	0	0	0	0	493	518	599	0	
1	0	0	0	0	497	514	599	0	
2	0	0	0	0	500	514	599	0	
3	0	0	0	0	491	505	598	0	
4	0	0	0	0	535	502	597	0	
5	0	0	0	0	544	499	597	0	
6	0	0	0	0	507	502	597	0	
7	0	0	0	0	524	496	597	0	
8	0	0	0	0	523	500	598	0	
9	0	0	0	0	499	506	597	0	
10	0	0	0	0	504	519	597	0	
11	0	0	0	0	513	519	597	0	
12	0	0	0	0	537	496	597	0	
13	0	0	0	0	519	504	598	0	
14	0	0	0	0	500	516	597	0	
15	0	0	0	0	506	520	598	0	
0	0	0	0	0	478	523	597	0	
1	0	0	0	0	492	521	598	0	
2	0	0	0	0	495	503	598	0	
3	0	0	0	0	515	497	597	0	
4	0	0	0	0	510	496	597	0	
5	0	0	0	0	467	488	597	0	
6	0	0	0	0	515	492	597	0	
7	0	0	0	0	519	523	596	0	
8	0	0	0	0	539	527	595	0	
9	0	0	0	0	583	519	595	0	
10	0	0	0	0	563	513	595	0	
11	0	0	0	0	495	506	596	0	
12	0	0	0	0	463	505	596	0	
13	0	0	0	0	469	506	596	0	
14	0	0	0	0	498	511	597	0	
15	0	0	0	0	510	505	596	0	
0	0	0	0	0	549	505	596	0	
1	0	0	0	0	567	506	596	0	
2	0	0	0	0	524	515	596	0	
3	0	0	0	0	499	509	596	0	
4	0	0	0	0	479	497	596	0	
5	0	0	0	0	480	495	596	0	
6	0	0	0	0	486	494	596	0	
7	0	0	0	0	517	488	596	0	
8	0	0	0	0	531	497	595	0	
9	0	0	0	0	551	503	596	0	
10	0	0	0	0	543	515	596	0	
11	0	0	0	0	527	518	596	0	
12	0	0	0	0	487	522	595	0	
13	0	0	0	0	478	525	595	0	
14	0	0	0	0	496	522	595	0	
15	0	0	0	0	505	514	595	0	
0	0	0	0	0	505	506	595	0	
1	0	0	0	0	473	511	595	0	
2	0	0	0	0	499	508	595	0	
3	0	0	0	0	491	505	595	0	
4	0	0	0	0	517	505	595	0	
5	0	0	0	0	515	504	595	0	
6	0	0	0	0	580	504	595	0	
7	0	0	0	0	584	500	596	0	
8	0	0	0	0	503	508	595	0	
9	0	0	0	0	483	509	595	0	
10	0	0	0	0	514	508	594	0	
11	0	0	0	0	520	512	594	0	
12	0	0	0	0	530	510	594	0	
13	0	0	0	0	488	512	593	0	
14	0	0	0	0	478	510	593	0	
15	0	0	0	0	495	509	594	0	
0	0	0	0	0	527	503	593	0	
1	0	0	0	0	507	514	593	0	
2	0	0	0	0	444	523	593	0	
3	0	0	0	0	429	511	592	0	
4	0	0	0	0	421	505	592	0	
5	0	0	0	0	480	500	592	0	
6	0	0	0	0	532	505	592	0	
7	0	0	0	0	592	506	591	0	
8	0	0	0	0	639	506	591	0	
9	0	0	0	0	629	499	590	0	
10	0	0	0	0	576	500	591	0	
11	0	0	0	0	519	504	591	0	
12	0	0	0	0	500	507	591	0	
13	0	0	0	0	481	515	591	0	
14	0	0	0	0	489	511	592	0	
15	0	0	0	0	509	513	591	0	
0	0	0	0	0	508	515	591	0	
1	0	0	0	0	499	517	591	0	
2	0	0	0	0	500	513	591	0	
3	0	0	0	0	464	514	591	0	
4	0	0	0	0	446	504	590	0	
5	0	0	0	0	439	508	591	0	
6	0	0	0	0	458	502	590	0	
7	0	0	0	0	467	495	590	0	
8	0	0	0	0	544	499	590	0	
9	0	0	0	0	605	505	590	0	
10	0	0	0	0	547	504	590	0	
11	0	0	0	0	487	504	590	0	
12	0	0	0	0	545	513	589	0	
13	0	0	0	0	550	507	588	0	
14	0	0	0	0	559	507	588	0	
15	0	0	0	0	567	513	588	0	
0	0	0	0	0	559	507	588	0	
1	0	0	0	0	529	502	588	0	
2	0	0	0	0	481	504	588	0	
3	0	0	0	0	479	514	589	0	
4	0	0	0	0	483	511	589	0	
5	0	0	0	0	499	515	589	0	
6	0	0	0	0	490	519	589	0	
7	0	0	0	0	490	509	589	0	
8	0	0	0	0	486	500	588	0	
9	0	0	0	0	493	500	588	0	
10	0	0	0	0	508	496	588	0	
11	0	0	0	0	508	495	588	0	
12	0	0	0	0	510	503	588	0	
13	0	0	0	0	507	513	588	0	
14	0	0	0	0	512	519	588	0	
15	0	0	0	0	505	510	588	0	
0	0	0	0	0	508	509	588	0	
1	0	0	0	0	514	510	588	0	
2	0	0	0	0	514	509	588	0	
3	0	0	0	0	509	518	588	0	
4	0	0	0	0	513	516	588	0	
5	0	0	0	0	513	513	588	0	
6	0	0	0	0	509	514	588	0	
7	0	0	0	0	502	515	588	0	
8	0	0	0	0	497	508	588	0	
9	0	0	0	0	477	502	588	0	
10	0	0	0	0	474	514	588	0	
11	0	0	0	0	471	506	588	0	
12	0	0	0	0	472	497	588	0	
13	0	0	0	0	527	497	588	0	
14	0	0	0	0	552	499	588	0	
15	0	0	0	0	577	500	588	0	
0	0	0	0	0	556	508	588	0	
1	0	0	0	0	521	515	588	0	
2	0	0	0	0	542	512	588	0	
3	0	0	0	0	567	514	588	0	
4	0	0	0	0	539	513	588	0	
5	0	0	0	0	517	507	588	0	
6	0	0	0	0	485	504	588	0	
7	0	0	0	0	475	506	587	0	
8	0	0	0	0	484	508	587	0	
9	0	0	0	0	498	507	588	0	
10	0	0	0	0	555	502	588	0	
11	0	0	0	0	563	504	588	0	
12	0	0	0	0	523	510	588	0	
13	0	0	0	0	486	514	587	0	
14	0	0	0	0	467	512	587	0	
15	0	0	0	0	462	506	586	0	
0	0	0	0	0	472	512	586	0	
1	0	0	0	0	472	513	587	0	
2	0	0	0	0	472	511	585	0	
3	0	0	0	0	512	510	585	0	
4	0	0	0	0	537	510	584	0	
5	0	0	0	0	561	508	584	0	
6	0	0	0	0	550	510	583	0	
7	0	0	0	0	567	506	583	0	
8	0	0	0	0	527	502	583	0	
9	0	0	0	0	497	509	583	0	
10	0	0	0	0	482	515	582	0	
11	0	0	0	0	502	511	582	0	
12	0	0	0	0	494	504	581	0	
13	0	0	0	0	505	502	581	0	
14	0	0	0	0	513	496	579	0	
15	0	0	0	0	526	499	579	0	
0	0	0	0	0	533	503	579	0	
1	0	0	0	0	536	509	580	0	
2	0	0	0	0	532	508	579	0	
3	0	0	0	0	521	511	580	0	
4	0	0	0	0	524	518	579	0	
5	0	0	0	0	515	516	578	0	
6	0	0	0	0	473	516	579	0	
7	0	0	0	0	433	517	578	0	
8	0	0	0	0	470	512	578	0	
9	0	0	0	0	508	508	577	0	
10	0	0	0	0	521	509	576	0	
11	0	0	0	0	502	507	576	0	
12	0	0	0	0	490	505	576	0	
13	0	0	0	0	517	514	575	0	
14	0	0	0	0	530	515	575	0	
15	0	0	0	0	541	510	575	0	
0	0	0	0	0	541	486	575	0	
1	0	0	0	0	553	479	574	0	
2	0	0	0	0	508	483	574	0	
3	0	0	0	0	488	504	574	0	
4	0	0	0	0	505	521	574	0	
5	0	0	0	0	504	510	573	0	
6	0	0	0	0	502	507	573	0	
7	0	0	0	0	506	510	573	0	
8	0	0	0	0	521	518	574	0	
9	0	0	0	0	517	520	574	0	
10	0	0	0	0	484	521	574	0	
11	0	0	0	0	501	518	573	0	
12	0	0	0	0	510	518	572	0	
13	0	0	0	0	499	514	572	0	
14	0	0	0	0	543	504	572	0	
15	0	0	0	0	587	491	572	0	
0	0	0	0	0	548	489	572	0	
1	0	0	0	0	469	505	572	0	
2	0	0	0	0	476	511	572	0	
3	0	0	0	0	476	510	573	0	
4	0	0	0	0	503	512	573	0	
5	0	0	0	0	547	506	572	0	
6	0	0	0	0	530	505	572	0	
7	0	0	0	0	510	511	571	0	
8	0	0	0	0	486	509	571	0	
9	0	0	0	0	488	510	571	0	
10	0	0	0	0	485	512	570	0	
11	0	0	0	0	472	512	569	0	
12	0	0	0	0	486	517	570	0	
13	0	0	0	0	520	509	570	0	
14	0	0	0	0	484	502	568	0	
15	0	0	0	0	468	504	568	0	
0	0	0	0	0	529	513	567	0	
1	0	0	0	0	566	501	567	0	
2	0	0	0	0	533	511	567	0	
3	0	0	0	0	527	513	566	0	
4	0	0	0	0	522	496	567	0	
5	0	0	0	0	504	508	567	0	
6	0	0	0	0	499	511	567	0	
7	0	0	0	0	515	515	567	0	
8	0	0	0	0	551	503	566	0	
9	0	0	0	0	559	492	566	0	
10	0	0	0	0	511	492	565	0	
11	0	0	0	0	494	503	565	0	
12	0	0	0	0	537	504	564	0	
13	0	0	0	0	558	510	565	0	
14	0	0	0	0	526	511	564	0	
15	0	0	0	0	443	517	563	0	
0	0	0	0	0	418	523	563	0	
1	0	0	0	0	453	525	563	0	
2	0	0	0	0	466	519	562	0	
3	0	0	0	0	526	504	562	0	
4	0	0	0	0	577	491	562	0	
5	0	0	0	0	578	498	562	0	
6	0	0	0	0	613	500	561	0	
7	0	0	0	0	619	500	561	0	
8	0	0	0	0	543	508	562	0	
9	0	0	0	0	480	509	562	0	
10	0	0	0	0	396	519	561	0	
11	0	0	0	0	416	518	560	0	
12	0	0	0	0	454	513	560	0	
13	0	0	0	0	468	513	561	0	
14	0	0	0	0	484	513	560	0	
15	0	0	0	0	535	509	560	0	
0	0	0	0	0	543	499	561	0	
1	0	0	0	0	540	504	561	0	
2	0	0	0	0	531	521	560	0	
3	0	0	0	0	574	516	561	0	
4	0	0	0	0	583	499	561	0	
5	0	0	0	0	532	493	561	0	
6	0	0	0	0	481	497	561	0	
7	0	0	0	0	471	507	561	0	
8	0	0	0	0	470	515	562	0	
9	0	0	0	0	473	512	562	0	
10	0	0	0	0	524	508	562	0	
11	0	0	0	0	491	510	561	0	
12	0	0	0	0	547	509	561	0	
13	0	0	0	0	563	510	562	0	
14	0	0	0	0	499	509	563	0	
15	0	0	0	0	450	503	562	0	
0	0	0	0	0	447	498	562	0	
1	0	0	0	0	464	507	562	0	
2	0	0	0	0	495	511	563	0	
3	0	0	0	0	545	509	563	0	
4	0	0	0	0	593	508	563	0	
5	0	0	0	0	604	523	563	0	
6	0	0	0	0	553	517	564	0	
7	0	0	0	0	478	512	564	0	
8	0	0	0	0	462	503	564	0	
9	0	0	0	0	463	488	564	0	
10	0	0	0	0	478	496	564	0	
11	0	0	0	0	522	517	565	0	
12	0	0	0	0	577	524	565	0	
13	0	0	0	0	577	508	566	0	
14	0	0	0	0	510	503	566	0	
15	0	0	0	0	482	508	566	0	
0	0	0	0	0	504	505	565	0	
1	0	0	0	0	497	491	566	0	
2	0	0	0	0	459	501	566	0	
3	0	0	0	0	466	513	566	0	
4	0	0	0	0	490	512	566	0	
5	0	0	0	0	480	507	566	0	
6	0	0	0	0	504	510	566	0	
7	0	0	0	0	516	508	566	0	
8	0	0	0	0	543	513	566	0	
9	0	0	0	0	528	509	566	0	
10	0	0	0	0	548	507	566	0	
11	0	0	0	0	515	510	566	0	
12	0	0	0	0	507	518	566	0	
13	0	0	0	0	495	518	566	0	
14	0	0	0	0	511	505	566	0	
15	0	0	0	0	497	504	566	0	
0	0	0	0	0	488	494	566	0	
1	0	0	0	0	511	490	567	0	
2	0	0	0	0	526	494	567	0	
3	0	0	0	0	532	501	567	0	
4	0	0	0	0	531	525	567	0	
5	0	0	0	0	542	529	567	0	
6	0	0	0	0	551	520	567	0	
7	0	0	0	0	534	513	567	0	
8	0	0	0	0	470	517	567	0	
9	0	0	0	0	458	496	567	0	
10	0	0	0	0	471	481	568	0	
11	0	0	0	0	509	494	568	0	
12	0	0	0	0	546	506	568	0	
13	0	0	0	0	567	514	567	0	
14	0	0	0	0	527	525	567	0	
15	0	0	0	0	536	526	567	0	
0	0	0	0	0	572	518	567	0	
1	0	0	0	0	539	503	568	0	
2	0	0	0	0	490	499	568	0	
3	0	0	0	0	474	504	568	0	
4	0	0	0	0	441	512	568	0	
5	0	0	0	0	505	507	569	0	
6	0	0	0	0	497	510	569	0	
7	0	0	0	0	490	509	569	0	
8	0	0	0	0	451	508	569	0	
9	0	0	0	0	465	507	569	0	
10	0	0	0	0	525	514	569	0	
11	0	0	0	0	582	515	569	0	
12	0	0	0	0	553	511	568	0	
13	0	0	0	0	475	512	568	0	
14	0	0	0	0	455	511	568	0	
15	0	0	0	0	444	518	569	0	
0	0	0	0	0	475	521	568	0	
1	0	0	0	0	528	505	569	0	
2	0	0	0	0	549	483	568	0	
3	0	0	0	0	634	479	568	0	
4	0	0	0	0	617	492	569	0	
5	0	0	0	0	538	494	569	0	
6	0	0	0	0	498	499	569	0	
7	0	0	0	0	497	490	569	0	
8	0	0	0	0	521	500	569	0	
9	0	0	0	0	512	515	569	0	
10	0	0	0	0	495	523	569	0	
11	0	0	0	0	500	527	569	0	
12	0	0	0	0	509	524	569	0	
13	0	0	0	0	513	521	569	0	
14	0	0	0	0	508	515	569	0	
15	0	0	0	0	490	510	569	0	
0	0	0	0	0	478	506	570	0	
1	0	0	0	0	494	504	569	0	
2	0	0	0	0	507	503	569	0	
3	0	0	0	0	503	505	569	0	
4	0	0	0	0	481	506	569	0	
5	0	0	0	0	494	511	569	0	
6	0	0	0	0	478	515	569	0	
7	0	0	0	0	491	515	569	0	
8	0	0	0	0	497	520	569	0	
9	0	0	0	0	519	514	569	0	
10	0	0	0	0	491	511	569	0	
11	0	0	0	0	507	506	568	0	
12	0	0	0	0	505	504	568	0	
13	0	0	0	0	504	490	568	0	
14	0	0	0	0	511	496	568	0	
15	0	0	0	0	577	502	567	0	
0	0	0	0	0	583	495	568	0	
1	0	0	0	0	583	496	567	0	
2	0	0	0	0	529	504	568	0	
3	0	0	0	0	492	520	568	0	
4	0	0	0	0	513	522	568	0	
5	0	0	0	0	521	514	568	0	
6	0	0	0	0	502	508	568	0	
7	0	0	0	0	487	510	567	0	
8	0	0	0	0	486	507	567	0	
9	0	0	0	0	467	507	566	0	
10	0	0	0	0	471	509	567	0	
11	0	0	0	0	477	517	567	0	
12	0	0	0	0	515	514	567	0	
13	0	0	0	0	549	508	567	0	
14	0	0	0	0	562	508	567	0	
15	0	0	0	0	552	507	567	0	
0	0	0	0	0	538	509	566	0	
1	0	0	0	0	519	513	566	0	
2	0	0	0	0	493	508	566	0	
3	0	0	0	0	492	500	566	0	
4	0	0	0	0	498	495	565	0	
5	0	0	0	0	500	500	565	0	
6	0	0	0	0	499	496	565	0	
7	0	0	0	0	499	501	564	0	
8	0	0	0	0	503	510	563	0	
9	0	0	0	0	507	515	563	0	
10	0	0	0	0	488	514	563	0	
11	0	0	0	0	495	516	563	0	
12	0	0	0	0	463	524	562	0	
13	0	0	0	0	433	518	563	0	
14	0	0	0	0	499	512	563	0	
15	0	0	0	0	513	505	562	0	
0	0	0	0	0	545	498	562	0	
1	0	0	0	0	579	497	562	0	
2	0	0	0	0	613	500	561	0	
3	0	0	0	0	580	499	560	0	
4	0	0	0	0	541	506	560	0	
5	0	0	0	0	503	511	559	0	
6	0	0	0	0	480	513	559	0	
7	0	0	0	0	491	511	558	0	
8	0	0	0	0	492	509	557	0	
9	0	0	0	0	519	512	557	0	
10	0	0	0	0	544	513	557	0	
11	0	0	0	0	534	514	555	0	
12	0	0	0	0	524	510	555	0	
13	0	0	0	0	497	508	553	0	
14	0	0	0	0	494	507	551	0	
15	0	0	0	0	479	506	551	0	
0	0	0	0	0	466	510	551	0	
1	0	0	0	0	484	511	551	0	
2	0	0	0	0	499	508	550	0	
3	0	0	0	0	497	507	549	0	
4	0	0	0	0	505	509	547	0	
5	0	0	0	0	538	501	547	0	
6	0	0	0	0	534	503	545	0	
7	0	0	0	0	529	506	543	0	
8	0	0	0	0	518	508	544	0	
9	0	0	0	0	519	513	543	0	
10	0	0	0	0	503	517	541	0	
11	0	0	0	0	496	519	541	0	
12	0	0	0	0	494	522	540	0	
13	0	0	0	0	494	519	539	0	
14	0	0	0	0	526	530	540	0	
15	0	0	0	0	497	532	539	0	
0	0	0	0	0	513	517	537	0	
1	0	0	0	0	518	515	536	0	
2	0	0	0	0	510	508	536	0	
3	0	0	0	0	494	489	534	0	
4	0	0	0	0	505	471	533	0	
5	0	0	0	0	497	462	533	0	
6	0	0	0	0	463	468	532	0	
7	0	0	0	0	503	464	531	0	
8	0	0	0	0	552	489	532	0	
9	0	0	0	0	554	515	531	0	
10	0	0	0	0	539	542	531	0	
11	0	0	0	0	560	572	529	0	
12	0	0	0	0	530	583	527	0	
13	0	0	0	0	455	561	527	0	
14	0	0	0	0	480	545	526	0	
15	0	0	0	0	500	525	523	0	
0	0	0	0	0	487	484	522	0	
1	0	0	0	0	494	456	519	0	
2	0	0	0	0	540	451	518	0	
3	0	0	0	0	551	436	515	0	
4	0	0	0	0	579	444	513	0	
5	0	0	0	0	567	472	510	0	
6	0	0	0	0	513	481	508	0	
7	0	0	0	0	502	476	507	0	
8	0	0	0	0	477	516	506	0	
9	0	0	0	0	455	560	504	0	
10	0	0	0	0	493	552	504	0	
11	0	0	0	0	488	544	503	0	
12	0	0	0	0	485	519	502	0	
13	0	0	0	0	498	505	500	0	
14	0	0	0	0	508	497	499	0	
15	0	0	0	0	505	518	497	0	
0	0	0	0	0	514	510	495	0	
1	0	0	0	0	526	490	493	0	
2	0	0	0	0	562	487	488	0	
3	0	0	0	0	548	502	484	0	
4	0	0	0	0	518	508	485	0	
5	0	0	0	0	478	516	481	0	
6	0	0	0	0	416	519	480	0	
7	0	0	0	0	380	505	476	0	
8	0	0	0	0	489	512	471	0	
9	0	0	0	0	604	524	467	0	
10	0	0	0	0	600	528	462	0	
11	0	0	0	0	584	532	458	0	
12	0	0	0	0	583	523	454	0	
13	0	0	0	0	540	504	450	0	
14	0	0	0	0	459	502	448	0	
15	0	0	0	0	436	516	439	0	
0	0	0	0	0	458	503	440	0	
1	0	0	0	0	465	499	436	0	
2	0	0	0	0	485	497	435	0	
3	0	0	0	0	494	509	434	0	
4	0	0	0	0	519	508	431	0	
5	0	0	0	0	593	505	429	0	
6	0	0	0	0	631	509	430	0	
7	0	0	0	0	592	507	427	0	
8	0	0	0	0	552	501	424	0	
9	0	0	0	0	464	515	422	0	
10	0	0	0	0	402	523	422	0	
11	0	0	0	0	376	527	420	0	
12	0	0	0	0	396	518	421	0	
13	0	0	0	0	454	502	418	0	
14	0	0	0	0	544	487	417	0	
15	0	0	0	0	617	488	417	0	
0	0	0	0	0	635	505	413	0	
1	0	0	0	0	614	506	412	0	
2	0	0	0	0	531	501	413	0	
3	0	0	0	0	455	512	410	0	
4	0	0	0	0	431	520	407	0	
5	0	0	0	0	459	515	403	0	
6	0	0	0	0	473	507	402	0	
7	0	0	0	0	524	505	400	0	
8	0	0	0	0	530	503	398	0	
9	0	0	0	0	540	485	394	0	
10	0	0	0	0	553	486	391	0	
11	0	0	0	0	555	495	385	0	
12	0	0	0	0	547	508	382	0	
13	0	0	0	0	520	516	380	0	
14	0	0	0	0	492	515	379	0	
15	0	0	0	0	483	514	377	0	
0	0	0	0	0	473	508	379	0	
1	0	0	0	0	489	513	376	0	
2	0	0	0	0	525	516	373	0	
3	0	0	0	0	538	515	373	0	
4	0	0	0	0	504	513	371	0	
5	0	0	0	0	495	511	370	0	
6	0	0	0	0	499	511	367	0	
7	0	0	0	0	512	511	359	0	
8	0	0	0	0	510	512	352	0	
9	0	0	0	0	510	509	345	0	
10	0	0	0	0	510	508	340	0	
11	0	0	0	0	511	511	327	0	
12	0	0	0	0	510	510	325	0	
13	0	0	0	0	511	507	321	0	
14	0	0	0	0	513	508	321	0	
15	0	0	0	0	513	507	319	0	
0	0	0	0	0	511	507	316	0	
1	0	0	0	0	510	506	314	0	
2	0	0	0	0	510	507	310	0	
3	0	0	0	0	511	508	311	0	
4	0	0	0	0	511	504	307	0	
5	0	0	0	0	511	510	300	0	
6	0	0	0	0	509	510	294	0	
7	0	0	0	0	508	510	295	0	
8	0	0	0	0	510	507	289	0	
9	0	0	0	0	508	508	293	0	
10	0	0	0	0	506	508	296	0	
11	0	0	0	0	513	509	291	0	
12	0	0	0	0	511	511	288	0	
13	0	0	0	0	512	507	286	0	
14	0	0	0	0	514	508	280	0	
15	0	0	0	0	510	508	276	0	
0	0	0	0	0	513	507	270	0	
1	0	0	0	0	518	508	263	0	
2	0	0	0	0	519	507	260	0	
3	0	0	0	0	513	505	254	0	
4	0	0	0	0	508	505	253	0	
5	0	0	0	0	509	507	249	0	
6	0	0	0	0	511	507	248	0	
7	0	0	0	0	505	506	244	0	
8	0	0	0	0	511	507	240	0	
9	0	0	0	0	510	509	235	0	
10	0	0	0	0	513	507	230	0	
11	0	0	0	0	511	507	227	0	
12	0	0	0	0	509	509	220	0	
13	0	0	0	0	508	509	218	0	
14	0	0	0	0	511	510	216	0	
15	0	0	0	0	508	508	217	0	
0	0	0	0	0	517	509	217	0	
1	0	0	0	0	518	509	220	0	
2	0	0	0	0	510	508	220	0	
3	0	0	0	0	512	507	221	0	
4	0	0	0	0	515	505	223	0	
5	0	0	0	0	524	505	227	0	
6	0	0	0	0	523	507	229	0	
7	0	0	0	0	518	506	227	0	
8	0	0	0	0	512	507	227	0	
9	0	0	0	0	508	507	226	0	
10	0	0	0	0	506	508	224	0	
11	0	0	0	0	506	507	222	0	
12	0	0	0	0	509	507	221	0	
13	0	0	0	0	505	508	218	0	
14	0	0	0	0	506	508	212	0	
15	0	0	0	0	506	510	211	0	
0	0	0	0	0	504	509	205	0	
1	0	0	0	0	504	508	191	0	
2	0	0	0	0	506	509	188	0	
3	0	0	0	0	508	510	183	0	
4	0	0	0	0	513	510	178	0	
5	0	0	0	0	512	511	178	0	
6	0	0	0	0	511	507	174	0	
7	0	0	0	0	512	510	168	0	
8	0	0	0	0	512	508	163	0	
9	0	0	0	0	512	505	153	0	
10	0	0	0	0	513	508	142	0	
11	0	0	0	0	521	505	142	0	
12	0	0	0	0	519	508	138	0	
13	0	0	0	0	516	507	139	0	
14	0	0	0	0	511	507	139	0	
15	0	0	0	0	509	508	139	0	
0	0	0	0	0	509	508	137	0	
1	0	0	0	0	510	508	124	0	
2	0	0	0	0	509	508	123	0	
3	0	0	0	0	508	508	134	0	
4	0	0	0	0	507	508	130	0	
5	0	0	0	0	508	509	130	0	
6	0	0	0	0	510	508	130	0	
7	0	0	0	0	509	508	129	0	
8	0	0	0	0	509	510	128	0	
9	0	0	0	0	508	508	126	0	
10	0	0	0	0	508	510	123	0	
11	0	0	0	0	506	508	123	0	
12	0	0	0	0	505	506	120	0	
13	0	0	0	0	505	510	116	0	
14	0	0	0	0	516	506	114	0	
15	0	0	0	0	515	507	115	0	
0	0	0	0	0	513	508	112	0	
1	0	0	0	0	516	507	107	0	
2	0	0	0	0	522	507	107	0	
3	0	0	0	0	523	506	106	0	
4	0	0	0	0	513	506	105	0	
5	0	0	0	0	509	507	103	0	
6	0	0	0	0	507	510	103	0	
7	0	0	0	0	506	509	103	0	
8	0	0	0	0	507	510	102	0	
9	0	0	0	0	507	508	97	0	
10	0	0	0	0	510	507	100	0	
11	0	0	0	0	512	508	95	0	
12	0	0	0	0	511	509	96	0	
13	0	0	0	0	507	507	93	0	
14	0	0	0	0	506	508	89	0	
15	0	0	0	0	507	510	88	0	
0	0	0	0	0	511	509	92	0	
1	0	0	0	0	515	508	91	0	
2	0	0	0	0	515	508	90	0	
3	0	0	0	0	513	509	87	0	
4	0	0	0	0	510	506	81	0	
5	0	0	0	0	510	508	79	0	
6	0	0	0	0	510	508	78	0	
7	0	0	0	0	508	507	73	0	
8	0	0	0	0	509	508	68	0	
9	0	0	0	0	513	508	63	0	
10	0	0	0	0	518	507	69	0	
11	0	0	0	0	518	508	58	0	
12	0	0	0	0	513	510	62	0	
13	0	0	0	0	514	508	61	0	
14	0	0	0	0	513	508	59	0	
15	0	0	0	0	513	510	47	0	
0	0	0	0	0	514	509	42	0	
1	0	0	0	0	508	509	46	0	
2	0	0	0	0	506	508	38	0	
3	0	0	0	0	505	507	27	0	
4	0	0	0	0	502	504	21	0	
5	0	0	0	0	503	503	20	0	
6	0	0	0	0	504	508	13	0	
7	0	0	0	0	507	507	7	0	
8	0	0	0	0	510	507	5	0	
9	0	0	0	0	512	511	0	0	
10	0	0	0	0	510	510	0	0	
11	0	0	0	0	514	509	0	0	
12	0	0	0	0	518	508	0	0	
13	0	0	0	0	515	507	0	0	
14	0	0	0	0	512	508	0	0	
15	0	0	0	0	512	508	0	0	
0	0	0	0	0	516	508	0	0	
1	0	0	0	0	510	510	0	0	
2	0	0	0	0	505	509	0	0	
3	0	0	0	0	505	511	0	0	
4	0	0	0	0	507	508	0	0	
5	0	0	0	0	514	509	0	0	
6	0	0	0	0	517	510	0	0	
7	0	0	0	0	522	508	0	0	
8	0	0	0	0	519	506	0	0	
9	0	0	0	0	514	506	0	0	
10	0	0	0	0	508	508	0	0	
11	0	0	0	0	509	506	0	0	
12	0	0	0	0	511	506	0	0	
13	0	0	0	0	512	506	0	0	
14	0	0	0	0	508	506	0	0	
15	0	0	0	0	509	505	0	0	
0	0	0	0	0	512	507	0	0	
1	0	0	0	0	510	508	0	0	
2	0	0	0	0	505	508	0	0	
3	0	0	0	0	508	511	0	0	
4	0	0	0	0	505	508	0	0	
5	0	0	0	0	511	511	0	0	
6	0	0	0	0	513	508	0	0	
7	0	0	0	0	513	507	0	0	
8	0	0	0	0	514	508	0	0	
9	0	0	0	0	516	509	0	0	
10	0	0	0	0	513	509	0	0	
11	0	0	0	0	508	508	0	0	
12	0	0	0	0	505	507	0	0	
13	0	0	0	0	507	504	0	0	
14	0	0	0	0	508	508	0	0	
15	0	0	0	0	511	507	0	0	
0	0	0	0	0	512	508	0	0	
1	0	0	0	0	519	508	0	0	
2	0	0	0	0	519	508	0	0	
3	0	0	0	0	511	508	0	0	
4	0	0	0	0	511	508	0	0	
5	0	0	0	0	513	509	0	0	
6	0	0	0	0	512	507	0	0	
7	0	0	0	0	509	508	0	0	
8	0	0	0	0	510	510	0	0	
9	0	0	0	0	507	510	0	0	
10	0	0	0	0	506	509	0	0	
11	0	0	0	0	508	508	0	0	
12	0	0	0	0	508	508	0	0	
13	0	0	0	0	508	510	0	0	
14	0	0	0	0	508	507	0	0	
15	0	0	0	0	510	507	0	0	
0	0	0	0	0	513	507	0	0	
1	0	0	0	0	516	506	0	0	
2	0	0	0	0	511	506	0	0	
3	0	0	0	0	512	506	0	0	
4	0	0	0	0	508	509	0	0	
5	0	0	0	0	503	507	0	0	
6	0	0	0	0	505	507	0	0	
7	0	0	0	0	507	508	0	0	
8	0	0	0	0	510	507	0	0	
9	0	0	0	0	515	507	0	0	
10	0	0	0	0	514	508	0	0	
11	0	0	0	0	522	510	0	0	
12	0	0	0	0	528	509	0	0	
13	0	0	0	0	522	508	0	0	
14	0	0	0	0	512	510	0	0	
15	0	0	0	0	508	509	0	0	
0	0	0	0	0	507	509	0	0	
1	0	0	0	0	505	508	0	0	
2	0	0	0	0	507	508	0	0	
3	0	0	0	0	507	509	0	0	
4	0	0	0	0	510	507	0	0	
5	0	0	0	0	512	507	0	0	
6	0	0	0	0	512	508	0	0	
7	0	0	0	0	511	507	0	0	
8	0	0	0	0	507	507	0	0	
9	0	0	0	0	508	506	0	0	
10	0	0	0	0	507	506	0	0	
11	0	0	0	0	510	508	0	0	
12	0	0	0	0	509	507	0	0	
13	0	0	0	0	512	507	0	0	
14	0	0	0	0	510	507	0	0	
15	0	0	0	0	510	507	0	0	
0	0	0	0	0	513	510	0	0	
1	0	0	0	0	514	510	0	0	
2	0	0	0	0	513	511	0	0	
3	0	0	0	0	512	509	0	0	
4	0	0	0	0	509	508	0	0	
5	0	0	0	0	511	510	0	0	
6	0	0	0	0	510	509	0	0	
7	0	0	0	0	513	510	0	0	
8	0	0	0	0	509	507	0	0	
9	0	0	0	0	514	508	0	0	
10	0	0	0	0	515	505	0	0	
11	0	0	0	0	510	505	0	0	
12	0	0	0	0	510	508	0	0	
13	0	0	0	0	510	508	0	0	
14	0	0	0	0	510	508	0	0	
15	0	0	0	0	509	507	0	0	
0	0	0	0	0	515	506	0	0	
1	0	0	0	0	515	507	0	0	
2	0	0	0	0	517	508	0	0	
3	0	0	0	0	513	510	0	0	
4	0	0	0	0	512	507	0	0	
5	0	0	0	0	510	509	0	0	
6	0	0	0	0	508	510	0	0	
7	0	0	0	0	506	509	0	0	
8	0	0	0	0	508	510	0	0	
9	0	0	0	0	508	508	0	0	
10	0	0	0	0	508	509	0	0	
11	0	0	0	0	511	509	0	0	
12	0	0	0	0	510	507	0	0	
13	0	0	0	0	511	508	0	0	
14	0	0	0	0	513	509	0	0	
15	0	0	0	0	515	508	0	0	
0	0	0	0	0	515	508	0	0	
1	0	0	0	0	514	506	0	0	
2	0	0	0	0	510	506	0	0	
3	0	0	0	0	511	506	0	0	
4	0	0	0	0	508	508	0	0	
5	0	0	0	0	511	509	0	0	
6	0	0	0	0	512	508	0	0	
7	0	0	0	0	512	507	0	0	
8	0	0	0	0	510	510	0	0	
9	0	0	0	0	507	510	0	0	
10	0	0	0	0	509	509	0	0	
11	0	0	0	0	508	510	0	0	
12	0	0	0	0	508	510	0	0	
13	0	0	0	0	511	507	0	0	
14	0	0	0	0	511	508	0	0	
15	0	0	0	0	511	508	0	0	
0	0	0	0	0	511	508	0	0	
1	0	0	0	0	512	509	0	0	
2	0	0	0	0	513	505	0	0	
3	0	0	0	0	512	505	0	0	
4	0	0	0	0	513	507	0	0	
5	0	0	0	0	511	505	0	0	
6	0	0	0	0	510	508	0	0	
7	0	0	0	0	512	508	0	0	
8	0	0	0	0	512	507	0	0	
9	0	0	0	0	511	507	0	0	
10	0	0	0	0	508	509	0	0	
11	0	0	0	0	508	510	0	0	
12	0	0	0	0	509	511	0	0	
13	0	0	0	0	511	508	0	0	
14	0	0	0	0	511	509	0	0	
15	0	0	0	0	512	509	0	0	
0	0	0	0	0	516	509	0	0	
1	0	0	0	0	514	509	0	0	
2	0	0	0	0	508	509	0	0	
3	0	0	0	0	513	508	0	0	
4	0	0	0	0	512	508	0	0	
5	0	0	0	0	513	507	0	0	
6	0	0	0	0	513	507	0	0	
7	0	0	0	0	512	507	0	0	
8	0	0	0	0	511	507	0	0	
9	0	0	0	0	511	508	0	0	
10	0	0	0	0	508	508	0	0	
11	0	0	0	0	511	508	0	0	
12	0	0	0	0	514	506	0	0	
13	0	0	0	0	510	508	0	0	
14	0	0	0	0	508	509	0	0	
15	0	0	0	0	508	509	0	0	
0	0	0	0	0	505	510	0	0	
1	0	0	0	0	506	510	0	0	
2	0	0	0	0	503	510	0	0	
3	0	0	0	0	506	508	0	0	
4	0	0	0	0	515	509	0	0	
5	0	0	0	0	516	508	0	0	
6	0	0	0	0	509	509	0	0	
7	0	0	0	0	511	508	0	0	
8	0	0	0	0	515	508	0	0	
9	0	0	0	0	523	507	0	0	
10	0	0	0	0	520	507	0	0	
11	0	0	0	0	519	508	0	0	
12	0	0	0	0	515	506	0	0	
13	0	0	0	0	511	507	0	0	
14	0	0	0	0	511	506	0	0	
15	0	0	0	0	509	507	0	0	
0	0	0	0	0	511	507	0	0	
1	0	0	0	0	510	507	0	0	
2	0	0	0	0	508	506	0	0	
3	0	0	0	0	507	508	0	0	
4	0	0	0	0	509	508	0	0	
5	0	0	0	0	510	510	0	0	
6	0	0	0	0	514	511	0	0	
7	0	0	0	0	511	509	0	0	
8	0	0	0	0	510	510	0	0	
9	0	0	0	0	508	508	0	0	
10	0	0	0	0	508	510	0	0	
11	0	0	0	0	511	510	0	0	
12	0	0	0	0	510	506	0	0	
13	0	0	0	0	513	506	0	0	
14	0	0	0	0	510	508	0	0	
15	0	0	0	0	505	505	0	0	
0	0	0	0	0	505	509	0	0	
1	0	0	0	0	506	508	0	0	
2	0	0	0	0	509	508	0	0	
3	0	0	0	0	510	510	0	0	
4	0	0	0	0	518	505	0	0	
5	0	0	0	0	522	508	0	0	
6	0	0	0	0	522	508	0	0	
7	0	0	0	0	517	507	0	0	
8	0	0	0	0	511	510	0	0	
9	0	0	0	0	510	511	0	0	
10	0	0	0	0	509	511	0	0	
11	0	0	0	0	508	507	0	0	
12	0	0	0	0	509	508	0	0	
13	0	0	0	0	513	508	0	0	
14	0	0	0	0	510	507	0	0	
15	0	0	0	0	509	509	0	0	
0	0	0	0	0	509	508	0	0	
1	0	0	0	0	512	506	0	0	
2	0	0	0	0	512	510	0	0	
3	0	0	0	0	513	506	0	0	
4	0	0	0	0	514	507	0	0	
5	0	0	0	0	512	507	0	0	
6	0	0	0	0	508	507	0	0	
7	0	0	0	0	511	506	0	0	
8	0	0	0	0	511	506	0	0	
9	0	0	0	0	512	508	0	0	
10	0	0	0	0	510	509	0	0	
11	0	0	0	0	510	509	0	0	
12	0	0	0	0	512	508	0	0	
13	0	0	0	0	511	509	0	0	
14	0	0	0	0	509	510	0	0	
15	0	0	0	0	508	509	0	0	
0	0	0	0	0	509	509	0	0	
1	0	0	0	0	509	509	0	0	
2	0	0	0	0	506	508	0	0	
3	0	0	0	0	504	510	0	0	
4	0	0	0	0	505	508	0	0	
5	0	0	0	0	511	506	0	0	
6	0	0	0	0	515	504	0	0	
7	0	0	0	0	515	507	0	0	
8	0	0	0	0	519	505	0	0	
9	0	0	0	0	517	505	0	0	
10	0	0	0	0	518	507	0	0	
11	0	0	0	0	519	507	0	0	
12	0	0	0	0	520	508	0	0	
13	0	0	0	0	514	508	0	0	
14	0	0	0	0	510	509	0	0	
15	0	0	0	0	509	510	0	0	
0	0	0	0	0	506	512	0	0	
1	0	0	0	0	509	510	0	0	
2	0	0	0	0	510	509	0	0	
3	0	0	0	0	510	509	0	0	
4	0	0	0	0	507	510	0	0	
5	0	0	0	0	507	509	0	0	
6	0	0	0	0	511	508	0	0	
7	0	0	0	0	506	508	0	0	
8	0	0	0	0	510	508	0	0	
9	0	0	0	0	508	507	0	0	
10	0	0	0	0	508	506	0	0	
11	0	0	0	0	508	507	0	0	
12	0	0	0	0	506	507	0	0	
13	0	0	0	0	509	508	0	0	
14	0	0	0	0	510	507	0	0	
15	0	0	0	0	517	505	0	0	
0	0	0	0	0	519	505	0	0	
1	0	0	0	0	519	509	0	0	
2	0	0	0	0	513	507	0	0	
3	0	0	0	0	510	509	0	0	
4	0	0	0	0	510	508	0	0	
5	0	0	0	0	508	511	0	0	
6	0	0	0	0	508	511	0	0	
7	0	0	0	0	511	509	0	0	
8	0	0	0	0	509	508	0	0	
9	0	0	0	0	509	509	0	0	
10	0	0	0	0	510	507	0	0	
11	0	0	0	0	509	510	0	0	
12	0	0	0	0	515	507	0	0	
13	0	0	0	0	515	507	0	0	
14	0	0	0	0	519	506	0	0	
15	0	0	0	0	515	507	0	0	
0	0	0	0	0	511	505	0	0	
1	0	0	0	0	511	506	0	0	
2	0	0	0	0	511	508	0	0	
3	0	0	0	0	510	509	0	0	
4	0	0	0	0	510	509	0	0	
5	0	0	0	0	511	509	0	0	
6	0	0	0	0	509	508	0	0	
7	0	0	0	0	511	508	0	0	
8	0	0	0	0	508	510	0	0	
9	0	0	0	0	508	508	0	0	
10	0	0	0	0	512	507	0	0	
11	0	0	0	0	510	510	0	0	
12	0	0	0	0	512	508	0	0	
13	0	0	0	0	511	509	0	0	
14	0	0	0	0	507	509	0	0	
15	0	0	0	0	509	509	0	0	
0	0	0	0	0	511	509	0	0	
1	0	0	0	0	511	505	0	0	
2	0	0	0	0	513	506	0	0	
3	0	0	0	0	513	506	0	0	
4	0	0	0	0	511	508	0	0	
5	0	0	0	0	509	509	0	0	
6	0	0	0	0	507	508	0	0	
7	0	0	0	0	507	507	0	0	
8	0	0	0	0	510	507	0	0	
9	0	0	0	0	510	508	0	0	
10	0	0	0	0	512	508	0	0	
11	0	0	0	0	512	510	0	0	
12	0	0	0	0	515	510	0	0	
13	0	0	0	0	515	510	0	0	
14	0	0	0	0	506	508	0	0	
15	0	0	0	0	507	509	0	0	
0	0	0	0	0	510	510	0	0	
1	0	0	0	0	512	508	0	0	
2	0	0	0	0	509	506	0	0	
3	0	0	0	0	515	507	0	0	
4	0	0	0	0	513	507	0	0	
5	0	0	0	0	516	506	0	0	
6	0	0	0	0	516	508	0	0	
7	0	0	0	0	513	507	0	0	
8	0	0	0	0	511	507	0	0	
9	0	0	0	0	513	510	0	0	
10	0	0	0	0	515	506	0	0	
11	0	0	0	0	515	510	0	0	
12	0	0	0	0	513	508	0	0	
13	0	0	0	0	513	507	0	0	
14	0	0	0	0	510	508	0	0	
15	0	0	0	0	508	510	0	0	
0	0	0	0	0	508	508	0	0	
1	0	0	0	0	508	506	0	0	
2	0	0	0	0	507	509	0	0	
3	0	0	0	0	508	510	0	0	
4	0	0	0	0	507	511	0	0	
5	0	0	0	0	510	510	0	0	
6	0	0	0	0	511	508	0	0	
7	0	0	0	0	509	509	0	0	
8	0	0	0	0	508	508	0	0	
9	0	0	0	0	508	506	0	0	
10	0	0	0	0	510	508	0	0	
11	0	0	0	0	511	508	0	0	
12	0	0	0	0	513	508	0	0	
13	0	0	0	0	512	506	0	0	
14	0	0	0	0	511	506	0	0	
15	0	0	0	0	510	506	0	0	
0	0	0	0	0	512	508	0	0	
1	0	0	0	0	513	505	0	0	
2	0	0	0	0	511	509	0	0	
3	0	0	0	0	512	508	0	0	
4	0	0	0	0	512	508	0	0	
5	0	0	0	0	511	510	0	0	
6	0	0	0	0	512	510	0	0	
7	0	0	0	0	510	510	0	0	
8	0	0	0	0	511	509	0	0	
9	0	0	0	0	511	508	0	0	
10	0	0	0	0	509	508	0	0	
11	0	0	0	0	508	509	0	0	
12	0	0	0	0	508	510	0	0	
13	0	0	0	0	509	507	0	0	
14	0	0	0	0	510	507	0	0	
15	0	0	0	0	511	506	0	0	
0	0	0	0	0	511	508	0	0	
1	0	0	0	0	513	507	0	0	
2	0	0	0	0	515	506	0	0	
3	0	0	0	0	519	507	0	0	
4	0	0	0	0	514	507	0	0	
5	0	0	0	0	511	510	0	0	
6	0	0	0	0	511	507	0	0	
7	0	0	0	0	513	508	0	0	
8	0	0	0	0	508	509	0	0	
9	0	0	0	0	510	507	0	0	
10	0	0	0	0	509	508	0	0	
11	0	0	0	0	509	508	0	0	
12	0	0	0	0	510	508	0	0	
13	0	0	0	0	510	511	0	0	
14	0	0	0	0	509	508	0	0	
15	0	0	0	0	510	509	0	0	
0	0	0	0	0	507	509	0	0	
1	0	0	0	0	509	507	0	0	
2	0	0	0	0	512	507	0	0	
3	0	0	0	0	511	506	0	0	
4	0	0	0	0	511	508	0	0	
5	0	0	0	0	512	506	0	0	
6	0	0	0	0	516	510	0	0	
7	0	0	0	0	517	508	0	0	
8	0	0	0	0	515	507	0	0	
9	0	0	0	0	515	506	0	0	
10	0	0	0	0	513	507	0	0	
11	0	0	0	0	508	509	0	0	
12	0	0	0	0	507	511	0	0	
13	0	0	0	0	508	510	0	0	
14	0	0	0	0	507	511	0	0	
15	0	0	0	0	508	507	0	0	
0	0	0	0	0	510	506	0	0	
1	0	0	0	0	513	507	0	0	
2	0	0	0	0	510	508	0	0	
3	0	0	0	0	510	508	0	0	
4	0	0	0	0	511	510	0	0	
5	0	0	0	0	512	509	0	0	
6	0	0	0	0	511	508	0	0	
7	0	0	0	0	510	507	0	0	
8	0	0	0	0	511	508	0	0	
9	0	0	0	0	511	507	0	0	
10	0	0	0	0	512	509	0	0	
11	0	0	0	0	510	507	0	0	
12	0	0	0	0	510	507	0	0	
13	0	0	0	0	511	507	0	0	
14	0	0	0	0	511	509	0	0	
15	0	0	0	0	513	507	0	0	
0	0	0	0	0	513	509	0	0	
1	0	0	0	0	511	510	0	0	
2	0	0	0	0	511	509	0	0	
3	0	0	0	0	508	511	0	0	
4	0	0	0	0	509	510	0	0	
5	0	0	0	0	511	508	0	0	
6	0	0	0	0	509	506	0	0	
7	0	0	0	0	510	509	0	0	
8	0	0	0	0	510	508	0	0	
9	0	0	0	0	509	507	0	0	
10	0	0	0	0	511	509	0	0	
11	0	0	0	0	511	506	0	0	
12	0	0	0	0	511	509	0	0	
13	0	0	0	0	510	506	0	0	
14	0	0	0	0	511	510	0	0	
15	0	0	0	0	513	507	0	0	
0	0	0	0	0	514	505	0	0	
1	0	0	0	0	511	506	0	0	
2	0	0	0	0	513	507	0	0	
3	0	0	0	0	514	510	0	0	
4	0	0	0	0	515	509	0	0	
5	0	0	0	0	513	508	0	0	
6	0	0	0	0	511	509	0	0	
7	0	0	0	0	509	509	0	0	
8	0	0	0	0	509	509	0	0	
9	0	0	0	0	513	507	0	0	
10	0	0	0	0	509	509	0	0	
11	0	0	0	0	507	508	0	0	
12	0	0	0	0	507	508	0	0	
13	0	0	0	0	507	506	0	0	
14	0	0	0	0	512	507	0	0	
15	0	0	0	0	514	506	0	0	
0	0	0	0	0	511	507	0	0	
1	0	0	0	0	515	507	0	0	
2	0	0	0	0	516	509	0	0	
3	0	0	0	0	516	508	0	0	
4	0	0	0	0	512	506	0	0	
5	0	0	0	0	506	507	0	0	
6	0	0	0	0	509	509	0	0	
7	0	0	0	0	509	509	0	0	
8	0	0	0	0	508	509	0	0	
9	0	0	0	0	511	510	0	0	
10	0	0	0	0	509	507	0	0	
11	0	0	0	0	510	510	0	0	
12	0	0	0	0	511	511	0	0	
13	0	0	0	0	512	507	0	0	
14	0	0	0	0	511	506	0	0	
15	0	0	0	0	510	509	0	0	
0	0	0	0	0	510	510	0	0	
1	0	0	0	0	511	508	0	0	
2	0	0	0	0	510	507	0	0	
3	0	0	0	0	511	506	0	0	
4	0	0	0	0	509	506	0	0	
5	0	0	0	0	510	505	0	0	
6	0	0	0	0	513	507	0	0	
7	0	0	0	0	513	509	0	0	
8	0	0	0	0	512	507	0	0	
9	0	0	0	0	513	507	0	0	
10	0	0	0	0	512	509	0	0	
11	0	0	0	0	511	507	0	0	
12	0	0	0	0	507	507	0	0	
13	0	0	0	0	508	508	0	0	
14	0	0	0	0	509	509	0	0	
15	0	0	0	0	510	509	0	0	
0	0	0	0	0	512	509	0	0	
1	0	0	0	0	513	510	0	0	
2	0	0	0	0	513	508	0	0	
3	0	0	0	0	512	508	0	0	
4	0	0	0	0	511	507	0	0	
5	0	0	0	0	512	509	0	0	
6	0	0	0	0	509	507	0	0	
7	0	0	0	0	510	505	0	0	
8	0	0	0	0	511	508	0	0	
9	0	0	0	0	510	508	0	0	
10	0	0	0	0	508	507	0	0	
11	0	0	0	0	510	508	0	0	
12	0	0	0	0	511	507	0	0	
13	0	0	0	0	511	506	0	0	
14	0	0	0	0	514	508	0	0	
15	0	0	0	0	510	509	0	0	
0	0	0	0	0	512	508	0	0	
1	0	0	0	0	513	507	0	0	
2	0	0	0	0	511	507	0	0	
3	0	0	0	0	511	510	0	0	
4	0	0	0	0	511	511	0	0	
5	0	0	0	0	510	509	0	0	
6	0	0	0	0	511	510	0	0	
7	0	0	0	0	509	508	0	0	
8	0	0	0	0	509	507	0	0	
9	0	0	0	0	509	508	0	0	
10	0	0	0	0	510	506	0	0	
11	0	0	0	0	512	506	0	0	
12	0	0	0	0	509	508	0	0	
13	0	0	0	0	508	508	0	0	
14	0	0	0	0	511	507	0	0	
15	0	0	0	0	515	507	0	0	
0	0	0	0	0	514	507	0	0	
1	0	0	0	0	516	507	0	0	
2	0	0	0	0	512	508	0	0	
3	0	0	0	0	510	509	0	0	
4	0	0	0	0	509	508	0	0	
5	0	0	0	0	508	509	0	0	
6	0	0	0	0	509	510	0	0	
7	0	0	0	0	508	510	0	0	
8	0	0	0	0	512	507	0	0	
9	0	0	0	0	513	508	0	0	
10	0	0	0	0	510	508	0	0	
11	0	0	0	0	511	508	0	0	
12	0	0	0	0	504	509	0	0	
13	0	0	0	0	504	507	0	0	
14	0	0	0	0	508	509	0	0	
15	0	0	0	0	511	509	0	0	
0	0	0	0	0	511	508	0	0	
1	0	0	0	0	511	508	0	0	
2	0	0	0	0	513	507	0	0	
3	0	0	0	0	521	505	0	0	
4	0	0	0	0	520	506	0	0	
5	0	0	0	0	515	505	0	0	
6	0	0	0	0	513	508	0	0	
7	0	0	0	0	509	507	0	0	
8	0	0	0	0	508	509	0	0	
9	0	0	0	0	508	508	0	0	
10	0	0	0	0	509	508	0	0	
11	0	0	0	0	506	509	0	0	
12	0	0	0	0	510	509	0	0	
13	0	0	0	0	511	509	0	0	
14	0	0	0	0	516	510	0	0	
15	0	0	0	0	514	508	0	0	
0	0	0	0	0	514	510	0	0	
1	0	0	0	0	509	511	0	0	
2	0	0	0	0	510	507	0	0	
3	0	0	0	0	509	508	0	0	
4	0	0	0	0	510	507	0	0	
5	0	0	0	0	512	508	0	0	
6	0	0	0	0	513	506	0	0	
7	0	0	0	0	512	508	0	0	
8	0	0	0	0	514	509	0	0	
9	0	0	0	0	511	507	0	0	
10	0	0	0	0	509	507	0	0	
11	0	0	0	0	507	507	0	0	
12	0	0	0	0	508	508	0	0	
13	0	0	0	0	510	508	0	0	
14	0	0	0	0	517	509	0	0	
15	0	0	0	0	516	508	0	0	
0	0	0	0	0	517	511	0	0	
1	0	0	0	0	512	509	0	0	
2	0	0	0	0	509	510	0	0	
3	0	0	0	0	510	509	0	0	
4	0	0	0	0	510	507	0	0	
5	0	0	0	0	511	508	0	0	
6	0	0	0	0	510	507	0	0	
7	0	0	0	0	511	506	0	0	
8	0	0	0	0	510	508	0	0	
9	0	0	0	0	509	505	0	0	
10	0	0	0	0	511	507	0	0	
11	0	0	0	0	508	507	0	0	
12	0	0	0	0	510	508	0	0	
13	0	0	0	0	510	506	0	0	
14	0	0	0	0	505	507	0	0	
15	0	0	0	0	505	508	0	0	
0	0	0	0	0	505	509	0	0	
1	0	0	0	0	508	511	0	0	
2	0	0	0	0	511	511	0	0	
3	0	0	0	0	512	509	0	0	
4	0	0	0	0	510	508	0	0	
5	0	0	0	0	510	508	0	0	
6	0	0	0	0	515	508	0	0	
7	0	0	0	0	515	509	0	0	
8	0	0	0	0	513	506	0	0	
9	0	0	0	0	515	505	0	0	
10	0	0	0	0	520	508	0	0	
11	0	0	0	0	518	507	0	0	
12	0	0	0	0	515	508	0	0	
13	0	0	0	0	514	508	0	0	
14	0	0	0	0	510	508	0	0	
15	0	0	0	0	509	508	0	0	
0	0	0	0	0	511	506	0	0	
1	0	0	0	0	511	507	0	0	
2	0	0	0	0	510	507	0	0	
3	0	0	0	0	510	509	0	0	
4	0	0	0	0	511	509	0	0	
5	0	0	0	0	510	507	0	0	
6	0	0	0	0	510	510	0	0	
7	0	0	0	0	509	510	0	0	
8	0	0	0	0	508	508	0	0	
9	0	0	0	0	507	509	0	0	
10	0	0	0	0	509	509	0	0	
11	0	0	0	0	509	508	0	0	
12	0	0	0	0	510	508	0	0	
13	0	0	0	0	511	509	0	0	
14	0	0	0	0	513	505	0	0	
15	0	0	0	0	515	507	0	0	
0	0	0	0	0	519	508	0	0	
1	0	0	0	0	512	506	0	0	
2	0	0	0	0	509	509	0	0	
3	0	0	0	0	511	508	0	0	
4	0	0	0	0	512	508	0	0	
5	0	0	0	0	511	507	0	0	
6	0	0	0	0	510	510	0	0	
7	0	0	0	0	509	508	0	0	
8	0	0	0	0	507	508	0	0	
9	0	0	0	0	506	509	0	0	
10	0	0	0	0	507	508	0	0	
11	0	0	0	0	508	509	0	0	
12	0	0	0	0	511	509	0	0	
13	0	0	0	0	514	507	0	0	
14	0	0	0	0	512	507	0	0	
15	0	0	0	0	511	508	0	0	
0	0	0	0	0	513	509	0	0	
1	0	0	0	0	512	509	0	0	
2	0	0	0	0	515	504	0	0	
3	0	0	0	0	514	509	0	0	
4	0	0	0	0	517	505	0	0	
5	0	0	0	0	513	507	0	0	
6	0	0	0	0	512	507	0	0	
7	0	0	0	0	508	509	0	0	
8	0	0	0	0	510	510	0	0	
9	0	0	0	0	507	507	0	0	
10	0	0	0	0	507	508	0	0	
11	0	0	0	0	507	508	0	0	
12	0	0	0	0	510	509	0	0	
13	0	0	0	0	509	508	0	0	
14	0	0	0	0	510	510	0	0	
15	0	0	0	0	512	509	0	0	
0	0	0	0	0	513	508	0	0	
1	0	0	0	0	517	508	0	0	
2	0	0	0	0	519	507	0	0	
3	0	0	0	0	511	509	0	0	
4	0	0	0	0	510	508	0	0	
5	0	0	0	0	511	505	0	0	
6	0	0	0	0	510	507	0	0	
7	0	0	0	0	509	506	0	0	
8	0	0	0	0	511	507	0	0	
9	0	0	0	0	508	508	0	0	
10	0	0	0	0	513	504	0	0	
11	0	0	0	0	514	507	0	0	
12	0	0	0	0	512	507	0	0	
13	0	0	0	0	513	508	0	0	
14	0	0	0	0	509	506	0	0	
15	0	0	0	0	507	510	0	0	
0	0	0	0	0	508	510	0	0	
1	0	0	0	0	508	508	0	0	
2	0	0	0	0	508	509	0	0	
3	0	0	0	0	510	511	0	0	
4	0	0	0	0	509	507	0	0	
5	0	0	0	0	509	510	0	0	
6	0	0	0	0	510	510	0	0	
7	0	0	0	0	513	507	0	0	
8	0	0	0	0	511	508	0	0	
9	0	0	0	0	508	508	0	0	
10	0	0	0	0	511	507	0	0	
11	0	0	0	0	517	505	0	0	
12	0	0	0	0	519	507	0	0	
13	0	0	0	0	510	507	0	0	
14	0	0	0	0	509	507	0	0	
15	0	0	0	0	510	507	0	0	
0	0	0	0	0	515	508	0	0	
1	0	0	0	0	511	507	0	0	
2	0	0	0	0	507	508	0	0	
3	0	0	0	0	509	507	0	0	
4	0	0	0	0	519	510	0	0	
5	0	0	0	0	517	509	0	0	
6	0	0	0	0	512	509	0	0	
7	0	0	0	0	510	509	0	0	
8	0	0	0	0	510	511	0	0	
9	0	0	0	0	510	508	0	0	
10	0	0	0	0	511	510	0	0	
