# OpenSignals Text File Format. Version 1
# {"20:18:06:13:21:78": {"position": 0, "device": "bitalino_rev", "device name": "20:18:06:13:21:78", "device connection": "BTH20:18:06:13:21:78", "sampling rate": 1000, "resolution": [4, 1, 1, 1, 1, 10, 10, 10, 10], "firmware version": 1281, "comments": "", "keywords": "", "mode": 0, "sync interval": 2, "date": "2023-5-30", "time": "19:18:42.957", "channels": [1, 2, 3, 4], "sensor": ["EMGBITREV", "EMGBITREV", "RAW", "RAW"], "label": ["A1", "A2", "A3", "A4"], "column": ["nSeq", "I1", "I2", "O1", "O2", "A1", "A2", "A3", "A4"], "special": [{}, {}, {}, {}], "digital IO": [0, 0, 1, 1]}}
# EndOfHeader
0	0	0	0	0	507	506	0	0	
1	0	0	0	0	511	507	0	0	
2	0	0	0	0	511	510	0	0	
3	0	0	0	0	511	509	0	0	
4	0	0	0	0	511	509	0	0	
5	0	0	0	0	508	509	0	0	
6	0	0	0	0	507	509	0	0	
7	0	0	0	0	508	508	0	0	
8	0	0	0	0	509	510	0	0	
9	0	0	0	0	507	508	0	0	
10	0	0	0	0	509	510	0	0	
11	0	0	0	0	514	509	0	0	
12	0	0	0	0	517	508	0	0	
13	0	0	0	0	526	508	0	0	
14	0	0	0	0	518	510	0	0	
15	0	0	0	0	518	507	0	0	
0	0	0	0	0	512	509	0	0	
1	0	0	0	0	509	508	0	0	
2	0	0	0	0	509	508	0	0	
3	0	0	0	0	508	510	0	0	
4	0	0	0	0	508	508	0	0	
5	0	0	0	0	515	508	0	0	
6	0	0	0	0	514	511	0	0	
7	0	0	0	0	510	508	0	0	
8	0	0	0	0	511	506	0	0	
9	0	0	0	0	509	507	0	0	
10	0	0	0	0	511	508	0	0	
11	0	0	0	0	508	508	0	0	
12	0	0	0	0	510	514	0	0	
13	0	0	0	0	509	508	0	0	
14	0	0	0	0	509	507	0	0	
15	0	0	0	0	511	510	0	0	
0	0	0	0	0	513	512	0	0	
1	0	0	0	0	512	508	0	0	
2	0	0	0	0	509	510	0	0	
3	0	0	0	0	514	508	0	0	
4	0	0	0	0	512	509	0	0	
5	0	0	0	0	511	506	0	0	
6	0	0	0	0	511	508	0	0	
7	0	0	0	0	509	510	0	0	
8	0	0	0	0	507	510	0	0	
9	0	0	0	0	506	510	0	0	
10	0	0	0	0	508	507	0	0	
11	0	0	0	0	513	511	0	0	
12	0	0	0	0	519	509	0	0	
13	0	0	0	0	519	511	0	0	
14	0	0	0	0	514	509	0	0	
15	0	0	0	0	510	508	1	0	
0	0	0	0	0	518	509	0	0	
1	0	0	0	0	512	507	0	0	
2	0	0	0	0	511	509	0	0	
3	0	0	0	0	508	509	0	0	
4	0	0	0	0	511	507	0	0	
5	0	0	0	0	510	509	0	0	
6	0	0	0	0	515	509	0	0	
7	0	0	0	0	517	509	0	0	
8	0	0	0	0	518	507	0	0	
9	0	0	0	0	514	508	0	0	
10	0	0	0	0	509	511	0	0	
11	0	0	0	0	504	508	0	0	
12	0	0	0	0	489	511	0	0	
13	0	0	0	0	501	511	0	0	
14	0	0	0	0	508	507	0	0	
15	0	0	0	0	512	508	0	0	
0	0	0	0	0	512	508	0	0	
1	0	0	0	0	511	509	0	0	
2	0	0	0	0	511	509	0	0	
3	0	0	0	0	511	509	0	0	
4	0	0	0	0	512	510	0	0	
5	0	0	0	0	512	508	0	0	
6	0	0	0	0	512	510	0	0	
7	0	0	0	0	512	508	0	0	
8	0	0	0	0	513	507	0	0	
9	0	0	0	0	513	509	0	0	
10	0	0	0	0	514	508	0	0	
11	0	0	0	0	516	509	0	0	
12	0	0	0	0	512	509	0	0	
13	0	0	0	0	513	509	0	0	
14	0	0	0	0	513	509	0	0	
15	0	0	0	0	513	510	0	0	
0	0	0	0	0	510	510	0	0	
1	0	0	0	0	512	507	0	0	
2	0	0	0	0	512	508	0	0	
3	0	0	0	0	510	510	0	0	
4	0	0	0	0	510	507	0	0	
5	0	0	0	0	508	510	0	0	
6	0	0	0	0	509	510	0	0	
7	0	0	0	0	511	508	0	0	
8	0	0	0	0	511	511	0	0	
9	0	0	0	0	512	506	0	0	
10	0	0	0	0	513	507	0	0	
11	0	0	0	0	515	509	0	0	
12	0	0	0	0	511	509	0	0	
13	0	0	0	0	512	511	0	0	
14	0	0	0	0	512	508	0	0	
15	0	0	0	0	508	509	0	0	
0	0	0	0	0	511	509	0	0	
1	0	0	0	0	510	509	0	0	
2	0	0	0	0	510	509	0	0	
3	0	0	0	0	507	506	0	0	
4	0	0	0	0	512	511	0	0	
5	0	0	0	0	515	509	0	0	
6	0	0	0	0	512	506	0	0	
7	0	0	0	0	513	510	0	0	
8	0	0	0	0	518	509	0	0	
9	0	0	0	0	512	508	0	0	
10	0	0	0	0	509	508	0	0	
11	0	0	0	0	510	508	0	0	
12	0	0	0	0	511	510	0	0	
13	0	0	0	0	511	507	0	0	
14	0	0	0	0	508	507	0	0	
15	0	0	0	0	511	508	0	0	
0	0	0	0	0	511	507	0	0	
1	0	0	0	0	509	507	0	0	
2	0	0	0	0	511	509	0	0	
3	0	0	0	0	512	508	0	0	
4	0	0	0	0	510	508	0	0	
5	0	0	0	0	510	508	0	0	
6	0	0	0	0	510	507	0	0	
7	0	0	0	0	509	508	0	0	
8	0	0	0	0	512	510	0	0	
9	0	0	0	0	510	509	0	0	
10	0	0	0	0	507	510	0	0	
11	0	0	0	0	508	509	0	0	
12	0	0	0	0	512	508	0	0	
13	0	0	0	0	514	508	0	0	
14	0	0	0	0	511	510	0	0	
15	0	0	0	0	509	511	0	0	
0	0	0	0	0	510	509	0	0	
1	0	0	0	0	515	507	0	0	
2	0	0	0	0	515	509	0	0	
3	0	0	0	0	512	510	0	0	
4	0	0	0	0	508	508	0	0	
5	0	0	0	0	512	508	0	0	
6	0	0	0	0	506	508	0	0	
7	0	0	0	0	511	509	0	0	
8	0	0	0	0	507	507	0	0	
9	0	0	0	0	514	510	0	0	
10	0	0	0	0	517	511	0	0	
11	0	0	0	0	512	510	0	0	
12	0	0	0	0	510	507	0	0	
13	0	0	0	0	509	510	0	0	
14	0	0	0	0	496	510	0	0	
15	0	0	0	0	508	511	0	0	
0	0	0	0	0	515	507	0	0	
1	0	0	0	0	517	509	0	0	
2	0	0	0	0	515	511	0	0	
3	0	0	0	0	512	509	0	0	
4	0	0	0	0	512	509	0	0	
5	0	0	0	0	513	510	0	0	
6	0	0	0	0	513	509	0	0	
7	0	0	0	0	512	510	0	0	
8	0	0	0	0	511	509	0	0	
9	0	0	0	0	513	509	0	0	
10	0	0	0	0	514	509	0	0	
11	0	0	0	0	509	507	0	0	
12	0	0	0	0	511	508	0	0	
13	0	0	0	0	510	508	0	0	
14	0	0	0	0	508	508	0	0	
15	0	0	0	0	509	509	0	0	
0	0	0	0	0	513	508	0	0	
1	0	0	0	0	512	508	0	0	
2	0	0	0	0	512	509	0	0	
3	0	0	0	0	509	509	0	0	
4	0	0	0	0	509	507	0	0	
5	0	0	0	0	511	507	0	0	
6	0	0	0	0	512	509	0	0	
7	0	0	0	0	516	510	0	0	
8	0	0	0	0	513	510	0	0	
9	0	0	0	0	513	510	0	0	
10	0	0	0	0	510	510	0	0	
11	0	0	0	0	510	508	0	0	
12	0	0	0	0	510	510	0	0	
13	0	0	0	0	509	510	0	0	
14	0	0	0	0	511	505	0	0	
15	0	0	0	0	512	507	0	0	
0	0	0	0	0	510	509	0	0	
1	0	0	0	0	511	508	0	0	
2	0	0	0	0	510	508	0	0	
3	0	0	0	0	510	506	0	0	
4	0	0	0	0	513	508	0	0	
5	0	0	0	0	515	510	0	0	
6	0	0	0	0	513	511	0	0	
7	0	0	0	0	510	507	0	0	
8	0	0	0	0	509	509	0	0	
9	0	0	0	0	510	509	0	0	
10	0	0	0	0	512	507	0	0	
11	0	0	0	0	511	508	0	0	
12	0	0	0	0	511	508	0	0	
13	0	0	0	0	510	508	0	0	
14	0	0	0	0	509	508	0	0	
15	0	0	0	0	509	510	0	0	
0	0	0	0	0	510	512	0	0	
1	0	0	0	0	510	509	0	0	
2	0	0	0	0	513	510	0	0	
3	0	0	0	0	512	509	0	0	
4	0	0	0	0	512	510	0	0	
5	0	0	0	0	512	507	1	0	
6	0	0	0	0	511	508	0	0	
7	0	0	0	0	510	509	0	0	
8	0	0	0	0	509	508	0	0	
9	0	0	0	0	508	510	0	0	
10	0	0	0	0	511	508	0	0	
11	0	0	0	0	511	508	0	0	
12	0	0	0	0	509	508	0	0	
13	0	0	0	0	514	507	0	0	
14	0	0	0	0	515	508	0	0	
15	0	0	0	0	512	507	0	0	
0	0	0	0	0	512	510	0	0	
1	0	0	0	0	512	508	0	0	
2	0	0	0	0	509	508	0	0	
3	0	0	0	0	509	508	0	0	
4	0	0	0	0	510	507	0	0	
5	0	0	0	0	513	509	0	0	
6	0	0	0	0	513	510	0	0	
7	0	0	0	0	509	509	0	0	
8	0	0	0	0	510	509	0	0	
9	0	0	0	0	511	509	0	0	
10	0	0	0	0	510	508	0	0	
11	0	0	0	0	511	510	0	0	
12	0	0	0	0	512	510	0	0	
13	0	0	0	0	509	511	0	0	
14	0	0	0	0	514	508	0	0	
15	0	0	0	0	514	508	0	0	
0	0	0	0	0	509	510	0	0	
1	0	0	0	0	509	508	0	0	
2	0	0	0	0	513	508	0	0	
3	0	0	0	0	512	510	0	0	
4	0	0	0	0	510	508	0	0	
5	0	0	0	0	510	508	0	0	
6	0	0	0	0	512	507	0	0	
7	0	0	0	0	511	507	0	0	
8	0	0	0	0	511	509	0	0	
9	0	0	0	0	509	510	0	0	
10	0	0	0	0	512	507	0	0	
11	0	0	0	0	511	507	0	0	
12	0	0	0	0	510	510	0	0	
13	0	0	0	0	512	509	0	0	
14	0	0	0	0	513	510	0	0	
15	0	0	0	0	511	506	0	0	
0	0	0	0	0	510	505	0	0	
1	0	0	0	0	511	507	0	0	
2	0	0	0	0	512	511	0	0	
3	0	0	0	0	513	511	0	0	
4	0	0	0	0	515	511	0	0	
5	0	0	0	0	509	509	0	0	
6	0	0	0	0	512	510	0	0	
7	0	0	0	0	510	509	0	0	
8	0	0	0	0	510	508	0	0	
9	0	0	0	0	512	507	0	0	
10	0	0	0	0	514	509	0	0	
11	0	0	0	0	512	508	0	0	
12	0	0	0	0	508	509	0	0	
13	0	0	0	0	511	508	0	0	
14	0	0	0	0	512	508	0	0	
15	0	0	0	0	509	508	0	0	
0	0	0	0	0	508	508	0	0	
1	0	0	0	0	509	508	0	0	
2	0	0	0	0	509	509	0	0	
3	0	0	0	0	510	509	0	0	
4	0	0	0	0	509	508	0	0	
5	0	0	0	0	513	509	0	0	
6	0	0	0	0	514	510	0	0	
7	0	0	0	0	520	509	0	0	
8	0	0	0	0	519	508	0	0	
9	0	0	0	0	513	510	0	0	
10	0	0	0	0	515	508	0	0	
11	0	0	0	0	519	511	0	0	
12	0	0	0	0	507	506	0	0	
13	0	0	0	0	507	507	0	0	
14	0	0	0	0	495	509	0	0	
15	0	0	0	0	505	511	0	0	
0	0	0	0	0	514	510	0	0	
1	0	0	0	0	512	507	0	0	
2	0	0	0	0	511	508	0	0	
3	0	0	0	0	517	510	0	0	
4	0	0	0	0	513	509	0	0	
5	0	0	0	0	511	510	0	0	
6	0	0	0	0	511	508	0	0	
7	0	0	0	0	510	506	0	0	
8	0	0	0	0	508	507	0	0	
9	0	0	0	0	504	510	0	0	
10	0	0	0	0	507	508	0	0	
11	0	0	0	0	509	508	0	0	
12	0	0	0	0	509	507	0	0	
13	0	0	0	0	510	506	0	0	
14	0	0	0	0	517	510	0	0	
15	0	0	0	0	516	509	0	0	
0	0	0	0	0	512	509	0	0	
1	0	0	0	0	511	506	0	0	
2	0	0	0	0	510	506	0	0	
3	0	0	0	0	511	510	0	0	
4	0	0	0	0	514	512	0	0	
5	0	0	0	0	510	507	0	0	
6	0	0	0	0	510	510	0	0	
7	0	0	0	0	508	510	0	0	
8	0	0	0	0	509	509	0	0	
9	0	0	0	0	512	509	1	0	
10	0	0	0	0	514	508	0	0	
11	0	0	0	0	510	509	0	0	
12	0	0	0	0	512	509	0	0	
13	0	0	0	0	510	508	0	0	
14	0	0	0	0	508	510	0	0	
15	0	0	0	0	509	508	0	0	
0	0	0	0	0	510	508	0	0	
1	0	0	0	0	513	509	0	0	
2	0	0	0	0	509	508	0	0	
3	0	0	0	0	518	509	0	0	
4	0	0	0	0	519	512	0	0	
5	0	0	0	0	512	509	0	0	
6	0	0	0	0	510	507	0	0	
7	0	0	0	0	510	508	0	0	
8	0	0	0	0	511	508	0	0	
9	0	0	0	0	515	507	0	0	
10	0	0	0	0	513	508	0	0	
11	0	0	0	0	513	508	0	0	
12	0	0	0	0	511	509	0	0	
13	0	0	0	0	512	513	0	0	
14	0	0	0	0	509	509	0	0	
15	0	0	0	0	504	507	0	0	
0	0	0	0	0	506	508	0	0	
1	0	0	0	0	511	509	0	0	
2	0	0	0	0	511	508	0	0	
3	0	0	0	0	513	509	0	0	
4	0	0	0	0	512	509	0	0	
5	0	0	0	0	509	505	0	0	
6	0	0	0	0	509	508	0	0	
7	0	0	0	0	512	511	0	0	
8	0	0	0	0	512	508	0	0	
9	0	0	0	0	509	507	0	0	
10	0	0	0	0	512	508	0	0	
11	0	0	0	0	512	508	0	0	
12	0	0	0	0	510	512	0	0	
13	0	0	0	0	512	508	0	0	
14	0	0	0	0	511	508	0	0	
15	0	0	0	0	513	508	0	0	
0	0	0	0	0	514	511	0	0	
1	0	0	0	0	515	508	0	0	
2	0	0	0	0	512	508	0	0	
3	0	0	0	0	511	506	0	0	
4	0	0	0	0	511	507	0	0	
5	0	0	0	0	510	507	0	0	
6	0	0	0	0	511	510	0	0	
7	0	0	0	0	511	510	0	0	
8	0	0	0	0	513	508	0	0	
9	0	0	0	0	512	509	0	0	
10	0	0	0	0	510	508	0	0	
11	0	0	0	0	514	508	0	0	
12	0	0	0	0	509	507	0	0	
13	0	0	0	0	513	511	0	0	
14	0	0	0	0	510	508	0	0	
15	0	0	0	0	510	509	0	0	
0	0	0	0	0	509	508	0	0	
1	0	0	0	0	512	509	0	0	
2	0	0	0	0	508	509	0	0	
3	0	0	0	0	508	508	0	0	
4	0	0	0	0	511	508	0	0	
5	0	0	0	0	507	509	1	0	
6	0	0	0	0	505	508	0	0	
7	0	0	0	0	508	509	0	0	
8	0	0	0	0	511	507	0	0	
9	0	0	0	0	511	508	0	0	
10	0	0	0	0	507	509	0	0	
11	0	0	0	0	510	506	0	0	
12	0	0	0	0	513	509	0	0	
13	0	0	0	0	518	507	0	0	
14	0	0	0	0	515	508	0	0	
15	0	0	0	0	516	511	0	0	
0	0	0	0	0	513	510	0	0	
1	0	0	0	0	509	510	0	0	
2	0	0	0	0	510	508	0	0	
3	0	0	0	0	513	508	0	0	
4	0	0	0	0	510	508	0	0	
5	0	0	0	0	512	511	0	0	
6	0	0	0	0	511	508	0	0	
7	0	0	0	0	510	507	0	0	
8	0	0	0	0	510	510	0	0	
9	0	0	0	0	512	507	1	0	
10	0	0	0	0	513	509	0	0	
11	0	0	0	0	510	511	0	0	
12	0	0	0	0	510	509	0	0	
13	0	0	0	0	507	508	0	0	
14	0	0	0	0	509	507	0	0	
15	0	0	0	0	503	507	0	0	
0	0	0	0	0	503	508	0	0	
1	0	0	0	0	505	509	0	0	
2	0	0	0	0	512	507	0	0	
3	0	0	0	0	514	507	0	0	
4	0	0	0	0	514	508	0	0	
5	0	0	0	0	511	508	0	0	
6	0	0	0	0	520	509	0	0	
7	0	0	0	0	523	507	0	0	
8	0	0	0	0	517	509	0	0	
9	0	0	0	0	515	508	0	0	
10	0	0	0	0	513	508	0	0	
11	0	0	0	0	511	510	0	0	
12	0	0	0	0	512	509	0	0	
13	0	0	0	0	514	508	0	0	
14	0	0	0	0	517	508	0	0	
15	0	0	0	0	511	510	0	0	
0	0	0	0	0	509	509	0	0	
1	0	0	0	0	510	512	0	0	
2	0	0	0	0	507	508	0	0	
3	0	0	0	0	503	512	0	0	
4	0	0	0	0	502	510	0	0	
5	0	0	0	0	511	511	0	0	
6	0	0	0	0	511	507	0	0	
7	0	0	0	0	513	507	0	0	
8	0	0	0	0	512	508	0	0	
9	0	0	0	0	512	507	0	0	
10	0	0	0	0	514	507	0	0	
11	0	0	0	0	513	508	0	0	
12	0	0	0	0	510	508	0	0	
13	0	0	0	0	515	509	0	0	
14	0	0	0	0	510	508	0	0	
15	0	0	0	0	511	508	0	0	
0	0	0	0	0	512	506	0	0	
1	0	0	0	0	508	509	0	0	
2	0	0	0	0	507	511	0	0	
3	0	0	0	0	507	509	0	0	
4	0	0	0	0	511	508	0	0	
5	0	0	0	0	512	508	0	0	
6	0	0	0	0	508	509	0	0	
7	0	0	0	0	511	510	0	0	
8	0	0	0	0	511	508	0	0	
9	0	0	0	0	515	506	0	0	
10	0	0	0	0	512	506	0	0	
11	0	0	0	0	514	510	0	0	
12	0	0	0	0	510	510	0	0	
13	0	0	0	0	511	508	0	0	
14	0	0	0	0	516	508	0	0	
15	0	0	0	0	512	509	0	0	
0	0	0	0	0	512	510	1	0	
1	0	0	0	0	511	508	0	0	
2	0	0	0	0	507	509	0	0	
3	0	0	0	0	507	509	0	0	
4	0	0	0	0	510	509	0	0	
5	0	0	0	0	516	511	0	0	
6	0	0	0	0	512	507	0	0	
7	0	0	0	0	510	509	0	0	
8	0	0	0	0	511	507	0	0	
9	0	0	0	0	513	508	0	0	
10	0	0	0	0	516	511	0	0	
11	0	0	0	0	511	508	0	0	
12	0	0	0	0	509	507	0	0	
13	0	0	0	0	511	508	0	0	
14	0	0	0	0	516	508	0	0	
15	0	0	0	0	509	508	0	0	
0	0	0	0	0	506	507	0	0	
1	0	0	0	0	509	508	0	0	
2	0	0	0	0	512	507	0	0	
3	0	0	0	0	515	507	0	0	
4	0	0	0	0	510	510	0	0	
5	0	0	0	0	508	510	0	0	
6	0	0	0	0	505	510	0	0	
7	0	0	0	0	510	510	0	0	
8	0	0	0	0	513	509	0	0	
9	0	0	0	0	509	507	0	0	
10	0	0	0	0	512	506	0	0	
11	0	0	0	0	509	508	0	0	
12	0	0	0	0	509	509	0	0	
13	0	0	0	0	512	506	0	0	
14	0	0	0	0	514	510	0	0	
15	0	0	0	0	513	511	0	0	
0	0	0	0	0	514	507	0	0	
1	0	0	0	0	511	507	0	0	
2	0	0	0	0	513	509	0	0	
3	0	0	0	0	513	509	0	0	
4	0	0	0	0	512	510	0	0	
5	0	0	0	0	513	509	0	0	
6	0	0	0	0	513	508	0	0	
7	0	0	0	0	511	508	0	0	
8	0	0	0	0	512	508	0	0	
9	0	0	0	0	507	509	0	0	
10	0	0	0	0	506	507	0	0	
11	0	0	0	0	511	507	0	0	
12	0	0	0	0	512	508	0	0	
13	0	0	0	0	511	507	0	0	
14	0	0	0	0	515	506	0	0	
15	0	0	0	0	511	508	0	0	
0	0	0	0	0	511	508	0	0	
1	0	0	0	0	509	507	0	0	
2	0	0	0	0	506	507	0	0	
3	0	0	0	0	506	506	0	0	
4	0	0	0	0	506	506	0	0	
5	0	0	0	0	508	508	0	0	
6	0	0	0	0	511	510	0	0	
7	0	0	0	0	512	510	0	0	
8	0	0	0	0	513	508	0	0	
9	0	0	0	0	512	505	0	0	
10	0	0	0	0	513	510	0	0	
11	0	0	0	0	514	512	0	0	
12	0	0	0	0	512	508	0	0	
13	0	0	0	0	510	508	0	0	
14	0	0	0	0	509	509	0	0	
15	0	0	0	0	509	508	0	0	
0	0	0	0	0	511	510	0	0	
1	0	0	0	0	510	510	0	0	
2	0	0	0	0	510	509	0	0	
3	0	0	0	0	511	508	0	0	
4	0	0	0	0	510	506	0	0	
5	0	0	0	0	512	508	0	0	
6	0	0	0	0	516	509	0	0	
7	0	0	0	0	511	507	0	0	
8	0	0	0	0	514	510	0	0	
9	0	0	0	0	511	509	0	0	
10	0	0	0	0	509	508	0	0	
11	0	0	0	0	508	509	0	0	
12	0	0	0	0	508	508	0	0	
13	0	0	0	0	511	511	0	0	
14	0	0	0	0	508	508	0	0	
15	0	0	0	0	518	510	0	0	
0	0	0	0	0	522	511	0	0	
1	0	0	0	0	509	508	0	0	
2	0	0	0	0	512	509	0	0	
3	0	0	0	0	513	507	0	0	
4	0	0	0	0	516	509	0	0	
5	0	0	0	0	514	508	1	0	
6	0	0	0	0	509	510	0	0	
7	0	0	0	0	507	509	0	0	
8	0	0	0	0	510	511	0	0	
9	0	0	0	0	510	509	0	0	
10	0	0	0	0	509	508	1	0	
11	0	0	0	0	511	510	0	0	
12	0	0	0	0	511	510	0	0	
13	0	0	0	0	511	509	0	0	
14	0	0	0	0	509	509	0	0	
15	0	0	0	0	510	509	0	0	
0	0	0	0	0	512	507	0	0	
1	0	0	0	0	513	508	0	0	
2	0	0	0	0	513	505	0	0	
3	0	0	0	0	511	507	0	0	
4	0	0	0	0	507	510	0	0	
5	0	0	0	0	511	508	0	0	
6	0	0	0	0	510	505	0	0	
7	0	0	0	0	510	508	0	0	
8	0	0	0	0	509	509	0	0	
9	0	0	0	0	509	507	0	0	
10	0	0	0	0	508	509	0	0	
11	0	0	0	0	510	511	0	0	
12	0	0	0	0	515	509	0	0	
13	0	0	0	0	517	509	0	0	
14	0	0	0	0	510	508	0	0	
15	0	0	0	0	514	509	0	0	
0	0	0	0	0	511	508	0	0	
1	0	0	0	0	511	508	0	0	
2	0	0	0	0	511	508	0	0	
3	0	0	0	0	509	507	1	0	
4	0	0	0	0	509	509	0	0	
5	0	0	0	0	507	508	0	0	
6	0	0	0	0	511	508	0	0	
7	0	0	0	0	508	508	0	0	
8	0	0	0	0	512	510	0	0	
9	0	0	0	0	508	511	0	0	
10	0	0	0	0	512	508	0	0	
11	0	0	0	0	512	507	0	0	
12	0	0	0	0	514	509	0	0	
13	0	0	0	0	515	510	0	0	
14	0	0	0	0	515	509	0	0	
15	0	0	0	0	515	507	0	0	
0	0	0	0	0	514	508	0	0	
1	0	0	0	0	511	509	0	0	
2	0	0	0	0	509	508	0	0	
3	0	0	0	0	512	508	0	0	
4	0	0	0	0	507	508	0	0	
5	0	0	0	0	509	509	0	0	
6	0	0	0	0	512	510	0	0	
7	0	0	0	0	508	506	0	0	
8	0	0	0	0	510	509	0	0	
9	0	0	0	0	503	506	0	0	
10	0	0	0	0	507	512	0	0	
11	0	0	0	0	510	508	0	0	
12	0	0	0	0	511	511	0	0	
13	0	0	0	0	510	510	0	0	
14	0	0	0	0	512	506	0	0	
15	0	0	0	0	513	507	0	0	
0	0	0	0	0	510	509	0	0	
1	0	0	0	0	512	509	0	0	
2	0	0	0	0	512	508	0	0	
3	0	0	0	0	512	510	0	0	
4	0	0	0	0	512	508	0	0	
5	0	0	0	0	513	507	0	0	
6	0	0	0	0	512	510	0	0	
7	0	0	0	0	510	510	0	0	
8	0	0	0	0	510	507	0	0	
9	0	0	0	0	511	507	0	0	
10	0	0	0	0	513	509	0	0	
11	0	0	0	0	510	508	0	0	
12	0	0	0	0	509	511	0	0	
13	0	0	0	0	510	510	0	0	
14	0	0	0	0	513	509	0	0	
15	0	0	0	0	514	509	0	0	
0	0	0	0	0	511	507	0	0	
1	0	0	0	0	512	512	0	0	
2	0	0	0	0	512	510	0	0	
3	0	0	0	0	512	511	0	0	
4	0	0	0	0	510	510	0	0	
5	0	0	0	0	509	506	1	0	
6	0	0	0	0	509	508	0	0	
7	0	0	0	0	511	508	0	0	
8	0	0	0	0	507	509	0	0	
9	0	0	0	0	509	510	0	0	
10	0	0	0	0	511	507	0	0	
11	0	0	0	0	516	509	0	0	
12	0	0	0	0	515	507	0	0	
13	0	0	0	0	511	507	0	0	
14	0	0	0	0	511	505	0	0	
15	0	0	0	0	517	510	0	0	
0	0	0	0	0	512	510	0	0	
1	0	0	0	0	510	508	0	0	
2	0	0	0	0	510	506	0	0	
3	0	0	0	0	508	507	0	0	
4	0	0	0	0	510	509	0	0	
5	0	0	0	0	513	510	0	0	
6	0	0	0	0	509	509	0	0	
7	0	0	0	0	511	507	0	0	
8	0	0	0	0	510	508	0	0	
9	0	0	0	0	510	509	0	0	
10	0	0	0	0	510	508	0	0	
11	0	0	0	0	510	509	0	0	
12	0	0	0	0	508	507	0	0	
13	0	0	0	0	510	508	0	0	
14	0	0	0	0	508	509	0	0	
15	0	0	0	0	511	508	0	0	
0	0	0	0	0	510	509	0	0	
1	0	0	0	0	513	508	0	0	
2	0	0	0	0	513	510	0	0	
3	0	0	0	0	511	507	0	0	
4	0	0	0	0	514	510	0	0	
5	0	0	0	0	511	509	0	0	
6	0	0	0	0	511	510	0	0	
7	0	0	0	0	511	509	0	0	
8	0	0	0	0	510	508	0	0	
9	0	0	0	0	511	508	0	0	
10	0	0	0	0	510	509	0	0	
11	0	0	0	0	512	511	0	0	
12	0	0	0	0	513	511	0	0	
13	0	0	0	0	513	507	0	0	
14	0	0	0	0	509	508	0	0	
15	0	0	0	0	509	506	0	0	
0	0	0	0	0	509	510	0	0	
1	0	0	0	0	509	510	0	0	
2	0	0	0	0	507	510	1	0	
3	0	0	0	0	513	509	0	0	
4	0	0	0	0	511	509	0	0	
5	0	0	0	0	509	507	0	0	
6	0	0	0	0	509	508	0	0	
7	0	0	0	0	512	508	0	0	
8	0	0	0	0	510	506	0	0	
9	0	0	0	0	509	507	0	0	
10	0	0	0	0	511	505	0	0	
11	0	0	0	0	518	510	0	0	
12	0	0	0	0	514	507	0	0	
13	0	0	0	0	512	510	0	0	
14	0	0	0	0	508	506	0	0	
15	0	0	0	0	509	509	0	0	
0	0	0	0	0	512	511	0	0	
1	0	0	0	0	511	508	0	0	
2	0	0	0	0	508	509	0	0	
3	0	0	0	0	511	507	0	0	
4	0	0	0	0	511	507	0	0	
5	0	0	0	0	512	511	0	0	
6	0	0	0	0	510	510	0	0	
7	0	0	0	0	509	509	0	0	
8	0	0	0	0	512	508	0	0	
9	0	0	0	0	512	508	0	0	
10	0	0	0	0	512	511	0	0	
11	0	0	0	0	511	507	1	0	
12	0	0	0	0	513	508	0	0	
13	0	0	0	0	511	512	0	0	
14	0	0	0	0	508	508	0	0	
15	0	0	0	0	511	507	0	0	
0	0	0	0	0	513	508	0	0	
1	0	0	0	0	512	507	0	0	
2	0	0	0	0	511	508	0	0	
3	0	0	0	0	509	509	0	0	
4	0	0	0	0	511	509	0	0	
5	0	0	0	0	509	508	0	0	
6	0	0	0	0	508	507	0	0	
7	0	0	0	0	509	508	0	0	
8	0	0	0	0	510	505	0	0	
9	0	0	0	0	510	508	0	0	
10	0	0	0	0	509	509	0	0	
11	0	0	0	0	512	511	0	0	
12	0	0	0	0	512	510	0	0	
13	0	0	0	0	512	509	0	0	
14	0	0	0	0	511	508	0	0	
15	0	0	0	0	514	512	0	0	
0	0	0	0	0	513	509	0	0	
1	0	0	0	0	511	510	0	0	
2	0	0	0	0	511	509	0	0	
3	0	0	0	0	515	508	0	0	
4	0	0	0	0	513	508	0	0	
5	0	0	0	0	512	508	0	0	
6	0	0	0	0	511	510	0	0	
7	0	0	0	0	509	507	0	0	
8	0	0	0	0	509	507	0	0	
9	0	0	0	0	509	509	0	0	
10	0	0	0	0	511	508	0	0	
11	0	0	0	0	508	508	0	0	
12	0	0	0	0	513	506	0	0	
13	0	0	0	0	510	507	0	0	
14	0	0	0	0	509	512	0	0	
15	0	0	0	0	509	509	0	0	
0	0	0	0	0	511	509	0	0	
1	0	0	0	0	511	508	0	0	
2	0	0	0	0	513	510	0	0	
3	0	0	0	0	518	507	0	0	
4	0	0	0	0	515	509	0	0	
5	0	0	0	0	511	506	0	0	
6	0	0	0	0	513	509	0	0	
7	0	0	0	0	514	509	0	0	
8	0	0	0	0	511	505	0	0	
9	0	0	0	0	510	508	0	0	
10	0	0	0	0	509	508	0	0	
11	0	0	0	0	509	511	0	0	
12	0	0	0	0	511	510	0	0	
13	0	0	0	0	512	508	1	0	
14	0	0	0	0	511	509	0	0	
15	0	0	0	0	512	510	0	0	
0	0	0	0	0	509	508	0	0	
1	0	0	0	0	510	510	0	0	
2	0	0	0	0	509	511	1	0	
3	0	0	0	0	511	512	0	0	
4	0	0	0	0	511	508	0	0	
5	0	0	0	0	512	508	0	0	
6	0	0	0	0	509	509	0	0	
7	0	0	0	0	511	505	0	0	
8	0	0	0	0	512	510	0	0	
9	0	0	0	0	512	508	0	0	
10	0	0	0	0	511	507	0	0	
11	0	0	0	0	513	508	0	0	
12	0	0	0	0	511	508	0	0	
13	0	0	0	0	510	509	0	0	
14	0	0	0	0	512	507	0	0	
15	0	0	0	0	512	507	0	0	
0	0	0	0	0	509	507	0	0	
1	0	0	0	0	510	509	0	0	
2	0	0	0	0	512	509	0	0	
3	0	0	0	0	511	507	0	0	
4	0	0	0	0	509	508	0	0	
5	0	0	0	0	509	510	0	0	
6	0	0	0	0	507	508	0	0	
7	0	0	0	0	511	509	0	0	
8	0	0	0	0	510	507	0	0	
9	0	0	0	0	512	508	0	0	
10	0	0	0	0	514	510	0	0	
11	0	0	0	0	513	508	0	0	
12	0	0	0	0	522	511	0	0	
13	0	0	0	0	515	508	0	0	
14	0	0	0	0	515	507	0	0	
15	0	0	0	0	508	510	0	0	
0	0	0	0	0	510	510	1	0	
1	0	0	0	0	512	509	0	0	
2	0	0	0	0	509	507	0	0	
3	0	0	0	0	512	507	0	0	
4	0	0	0	0	508	510	0	0	
5	0	0	0	0	511	509	0	0	
6	0	0	0	0	513	509	0	0	
7	0	0	0	0	508	506	0	0	
8	0	0	0	0	510	508	0	0	
9	0	0	0	0	510	508	0	0	
10	0	0	0	0	513	510	0	0	
11	0	0	0	0	511	508	0	0	
12	0	0	0	0	511	510	0	0	
13	0	0	0	0	512	507	0	0	
14	0	0	0	0	515	510	0	0	
15	0	0	0	0	511	508	0	0	
0	0	0	0	0	512	510	0	0	
1	0	0	0	0	509	506	0	0	
2	0	0	0	0	508	507	0	0	
3	0	0	0	0	507	508	0	0	
4	0	0	0	0	515	511	0	0	
5	0	0	0	0	511	508	0	0	
6	0	0	0	0	514	511	0	0	
7	0	0	0	0	508	511	0	0	
8	0	0	0	0	510	508	0	0	
9	0	0	0	0	512	511	0	0	
10	0	0	0	0	509	507	0	0	
11	0	0	0	0	511	509	0	0	
12	0	0	0	0	513	508	0	0	
13	0	0	0	0	510	509	0	0	
14	0	0	0	0	511	509	1	0	
15	0	0	0	0	515	508	0	0	
0	0	0	0	0	512	507	0	0	
1	0	0	0	0	509	509	0	0	
2	0	0	0	0	509	508	0	0	
3	0	0	0	0	515	510	0	0	
4	0	0	0	0	514	509	0	0	
5	0	0	0	0	512	508	0	0	
6	0	0	0	0	510	506	0	0	
7	0	0	0	0	510	508	0	0	
8	0	0	0	0	510	510	0	0	
9	0	0	0	0	508	509	0	0	
10	0	0	0	0	509	505	0	0	
11	0	0	0	0	510	508	0	0	
12	0	0	0	0	513	507	0	0	
13	0	0	0	0	511	505	0	0	
14	0	0	0	0	514	511	0	0	
15	0	0	0	0	510	507	0	0	
0	0	0	0	0	511	507	0	0	
1	0	0	0	0	513	508	0	0	
2	0	0	0	0	510	508	0	0	
3	0	0	0	0	513	510	0	0	
4	0	0	0	0	511	510	0	0	
5	0	0	0	0	508	508	0	0	
6	0	0	0	0	510	510	0	0	
7	0	0	0	0	508	508	1	0	
8	0	0	0	0	512	506	0	0	
9	0	0	0	0	513	507	0	0	
10	0	0	0	0	513	509	0	0	
11	0	0	0	0	513	509	0	0	
12	0	0	0	0	512	510	0	0	
13	0	0	0	0	510	507	0	0	
14	0	0	0	0	509	507	0	0	
15	0	0	0	0	506	508	0	0	
0	0	0	0	0	511	509	0	0	
1	0	0	0	0	512	508	0	0	
2	0	0	0	0	510	508	0	0	
3	0	0	0	0	509	509	0	0	
4	0	0	0	0	511	507	0	0	
5	0	0	0	0	512	508	0	0	
6	0	0	0	0	510	508	0	0	
7	0	0	0	0	513	510	0	0	
8	0	0	0	0	511	508	0	0	
9	0	0	0	0	510	509	0	0	
10	0	0	0	0	512	509	0	0	
11	0	0	0	0	515	514	0	0	
12	0	0	0	0	512	508	0	0	
13	0	0	0	0	511	509	0	0	
14	0	0	0	0	509	509	0	0	
15	0	0	0	0	512	508	0	0	
0	0	0	0	0	512	510	0	0	
1	0	0	0	0	509	508	0	0	
2	0	0	0	0	510	510	0	0	
3	0	0	0	0	513	510	0	0	
4	0	0	0	0	510	508	0	0	
5	0	0	0	0	510	508	1	0	
6	0	0	0	0	510	509	0	0	
7	0	0	0	0	512	508	0	0	
8	0	0	0	0	513	507	0	0	
9	0	0	0	0	512	507	0	0	
10	0	0	0	0	511	509	0	0	
11	0	0	0	0	511	508	0	0	
12	0	0	0	0	509	509	0	0	
13	0	0	0	0	505	508	0	0	
14	0	0	0	0	509	510	0	0	
15	0	0	0	0	512	506	0	0	
0	0	0	0	0	512	508	0	0	
1	0	0	0	0	510	506	0	0	
2	0	0	0	0	515	509	0	0	
3	0	0	0	0	511	508	0	0	
4	0	0	0	0	513	511	0	0	
5	0	0	0	0	513	509	0	0	
6	0	0	0	0	511	510	0	0	
7	0	0	0	0	512	508	0	0	
8	0	0	0	0	511	507	0	0	
9	0	0	0	0	508	509	0	0	
10	0	0	0	0	510	509	0	0	
11	0	0	0	0	507	509	0	0	
12	0	0	0	0	509	507	0	0	
13	0	0	0	0	512	509	0	0	
14	0	0	0	0	512	508	0	0	
15	0	0	0	0	512	509	0	0	
0	0	0	0	0	512	507	0	0	
1	0	0	0	0	512	508	0	0	
2	0	0	0	0	512	507	0	0	
3	0	0	0	0	511	509	0	0	
4	0	0	0	0	511	507	0	0	
5	0	0	0	0	512	509	0	0	
6	0	0	0	0	511	508	0	0	
7	0	0	0	0	511	509	0	0	
8	0	0	0	0	512	511	0	0	
9	0	0	0	0	510	509	0	0	
10	0	0	0	0	510	510	0	0	
11	0	0	0	0	509	507	0	0	
12	0	0	0	0	512	509	0	0	
13	0	0	0	0	515	511	0	0	
14	0	0	0	0	512	509	0	0	
15	0	0	0	0	513	511	0	0	
0	0	0	0	0	510	508	0	0	
1	0	0	0	0	507	509	0	0	
2	0	0	0	0	507	510	0	0	
3	0	0	0	0	509	510	0	0	
4	0	0	0	0	512	511	0	0	
5	0	0	0	0	508	508	0	0	
6	0	0	0	0	514	510	0	0	
7	0	0	0	0	520	508	1	0	
8	0	0	0	0	514	510	0	0	
9	0	0	0	0	508	508	0	0	
10	0	0	0	0	510	507	0	0	
11	0	0	0	0	514	511	0	0	
12	0	0	0	0	513	509	0	0	
13	0	0	0	0	509	509	0	0	
14	0	0	0	0	511	508	0	0	
15	0	0	0	0	510	506	0	0	
0	0	0	0	0	510	508	0	0	
1	0	0	0	0	511	510	0	0	
2	0	0	0	0	512	508	0	0	
3	0	0	0	0	510	507	0	0	
4	0	0	0	0	511	507	0	0	
5	0	0	0	0	513	510	0	0	
6	0	0	0	0	513	508	0	0	
7	0	0	0	0	511	508	0	0	
8	0	0	0	0	505	508	0	0	
9	0	0	0	0	508	508	0	0	
10	0	0	0	0	515	507	0	0	
11	0	0	0	0	512	508	0	0	
12	0	0	0	0	514	508	0	0	
13	0	0	0	0	510	508	0	0	
14	0	0	0	0	514	509	0	0	
15	0	0	0	0	509	507	0	0	
0	0	0	0	0	516	511	0	0	
1	0	0	0	0	512	511	0	0	
2	0	0	0	0	507	508	0	0	
3	0	0	0	0	510	507	0	0	
4	0	0	0	0	512	507	0	0	
5	0	0	0	0	509	508	0	0	
6	0	0	0	0	509	508	0	0	
7	0	0	0	0	507	509	0	0	
8	0	0	0	0	510	509	0	0	
9	0	0	0	0	511	508	0	0	
10	0	0	0	0	511	509	0	0	
11	0	0	0	0	512	508	0	0	
12	0	0	0	0	510	508	0	0	
13	0	0	0	0	511	506	0	0	
14	0	0	0	0	510	508	0	0	
15	0	0	0	0	513	509	0	0	
0	0	0	0	0	513	511	0	0	
1	0	0	0	0	509	508	0	0	
2	0	0	0	0	512	509	0	0	
3	0	0	0	0	512	508	0	0	
4	0	0	0	0	516	510	0	0	
5	0	0	0	0	511	507	0	0	
6	0	0	0	0	510	510	0	0	
7	0	0	0	0	507	508	0	0	
8	0	0	0	0	509	511	0	0	
9	0	0	0	0	509	507	1	0	
10	0	0	0	0	511	508	0	0	
11	0	0	0	0	514	510	0	0	
12	0	0	0	0	510	508	0	0	
13	0	0	0	0	511	507	0	0	
14	0	0	0	0	512	509	0	0	
15	0	0	0	0	511	509	0	0	
0	0	0	0	0	511	509	0	0	
1	0	0	0	0	511	507	0	0	
2	0	0	0	0	511	508	0	0	
3	0	0	0	0	511	511	0	0	
4	0	0	0	0	512	509	0	0	
5	0	0	0	0	511	506	0	0	
6	0	0	0	0	510	506	0	0	
7	0	0	0	0	511	507	0	0	
8	0	0	0	0	511	510	0	0	
9	0	0	0	0	507	508	0	0	
10	0	0	0	0	508	508	0	0	
11	0	0	0	0	511	506	0	0	
12	0	0	0	0	510	510	0	0	
13	0	0	0	0	510	511	0	0	
14	0	0	0	0	510	508	0	0	
15	0	0	0	0	514	510	0	0	
0	0	0	0	0	512	507	0	0	
1	0	0	0	0	510	509	0	0	
2	0	0	0	0	511	511	0	0	
3	0	0	0	0	512	508	0	0	
4	0	0	0	0	512	507	0	0	
5	0	0	0	0	512	509	0	0	
6	0	0	0	0	510	511	0	0	
7	0	0	0	0	515	511	0	0	
8	0	0	0	0	512	508	0	0	
9	0	0	0	0	510	508	0	0	
10	0	0	0	0	512	509	0	0	
11	0	0	0	0	513	510	0	0	
12	0	0	0	0	508	510	1	0	
13	0	0	0	0	509	508	0	0	
14	0	0	0	0	508	506	0	0	
15	0	0	0	0	510	507	0	0	
0	0	0	0	0	515	508	0	0	
1	0	0	0	0	512	508	0	0	
2	0	0	0	0	509	508	0	0	
3	0	0	0	0	509	509	0	0	
4	0	0	0	0	512	509	0	0	
5	0	0	0	0	512	510	0	0	
6	0	0	0	0	510	507	0	0	
7	0	0	0	0	511	508	0	0	
8	0	0	0	0	511	509	0	0	
9	0	0	0	0	511	506	0	0	
10	0	0	0	0	511	508	0	0	
11	0	0	0	0	513	508	0	0	
12	0	0	0	0	515	511	0	0	
13	0	0	0	0	511	508	0	0	
14	0	0	0	0	511	507	0	0	
15	0	0	0	0	512	509	0	0	
0	0	0	0	0	510	509	0	0	
1	0	0	0	0	512	510	0	0	
2	0	0	0	0	510	506	0	0	
3	0	0	0	0	511	508	0	0	
4	0	0	0	0	511	510	0	0	
5	0	0	0	0	511	507	1	0	
6	0	0	0	0	512	509	0	0	
7	0	0	0	0	511	507	0	0	
8	0	0	0	0	511	505	0	0	
9	0	0	0	0	511	507	0	0	
10	0	0	0	0	514	510	0	0	
11	0	0	0	0	512	507	0	0	
12	0	0	0	0	511	505	0	0	
13	0	0	0	0	512	508	0	0	
14	0	0	0	0	513	507	0	0	
15	0	0	0	0	510	508	0	0	
0	0	0	0	0	512	510	0	0	
1	0	0	0	0	510	507	0	0	
2	0	0	0	0	509	508	0	0	
3	0	0	0	0	510	508	0	0	
4	0	0	0	0	511	509	0	0	
5	0	0	0	0	511	509	0	0	
6	0	0	0	0	508	507	0	0	
7	0	0	0	0	511	507	0	0	
8	0	0	0	0	513	510	0	0	
9	0	0	0	0	510	509	1	0	
10	0	0	0	0	513	512	0	0	
11	0	0	0	0	512	509	0	0	
12	0	0	0	0	510	506	0	0	
13	0	0	0	0	513	511	0	0	
14	0	0	0	0	513	508	0	0	
15	0	0	0	0	512	510	0	0	
0	0	0	0	0	511	508	0	0	
1	0	0	0	0	511	506	0	0	
2	0	0	0	0	514	509	0	0	
3	0	0	0	0	512	509	0	0	
4	0	0	0	0	512	508	0	0	
5	0	0	0	0	515	507	0	0	
6	0	0	0	0	512	505	0	0	
7	0	0	0	0	510	506	0	0	
8	0	0	0	0	511	511	0	0	
9	0	0	0	0	511	509	0	0	
10	0	0	0	0	509	508	0	0	
11	0	0	0	0	509	508	0	0	
12	0	0	0	0	508	510	0	0	
13	0	0	0	0	513	511	0	0	
14	0	0	0	0	511	508	0	0	
15	0	0	0	0	513	510	0	0	
0	0	0	0	0	511	508	0	0	
1	0	0	0	0	510	509	0	0	
2	0	0	0	0	511	510	0	0	
3	0	0	0	0	509	508	0	0	
4	0	0	0	0	512	508	0	0	
5	0	0	0	0	511	508	0	0	
6	0	0	0	0	514	510	0	0	
7	0	0	0	0	511	509	0	0	
8	0	0	0	0	512	507	0	0	
9	0	0	0	0	508	508	0	0	
10	0	0	0	0	510	507	0	0	
11	0	0	0	0	511	507	0	0	
12	0	0	0	0	512	510	0	0	
13	0	0	0	0	514	510	0	0	
14	0	0	0	0	510	507	0	0	
15	0	0	0	0	509	510	0	0	
0	0	0	0	0	512	508	0	0	
1	0	0	0	0	509	508	0	0	
2	0	0	0	0	508	507	0	0	
3	0	0	0	0	509	508	0	0	
4	0	0	0	0	511	507	0	0	
5	0	0	0	0	511	506	0	0	
6	0	0	0	0	513	510	0	0	
7	0	0	0	0	511	510	0	0	
8	0	0	0	0	512	509	0	0	
9	0	0	0	0	509	509	0	0	
10	0	0	0	0	513	510	0	0	
11	0	0	0	0	513	512	0	0	
12	0	0	0	0	509	510	0	0	
13	0	0	0	0	510	508	0	0	
14	0	0	0	0	509	510	0	0	
15	0	0	0	0	514	510	0	0	
0	0	0	0	0	511	508	0	0	
1	0	0	0	0	511	506	0	0	
2	0	0	0	0	511	505	0	0	
3	0	0	0	0	509	508	0	0	
4	0	0	0	0	511	509	0	0	
5	0	0	0	0	508	511	0	0	
6	0	0	0	0	510	509	0	0	
7	0	0	0	0	507	508	0	0	
8	0	0	0	0	511	507	0	0	
9	0	0	0	0	510	508	0	0	
10	0	0	0	0	514	508	0	0	
11	0	0	0	0	514	510	0	0	
12	0	0	0	0	510	508	0	0	
13	0	0	0	0	509	506	0	0	
14	0	0	0	0	514	509	0	0	
15	0	0	0	0	515	510	0	0	
0	0	0	0	0	514	510	0	0	
1	0	0	0	0	514	510	0	0	
2	0	0	0	0	511	510	0	0	
3	0	0	0	0	510	509	0	0	
4	0	0	0	0	510	508	1	0	
5	0	0	0	0	510	511	0	0	
6	0	0	0	0	511	510	0	0	
7	0	0	0	0	510	507	0	0	
8	0	0	0	0	511	509	0	0	
9	0	0	0	0	512	510	0	0	
10	0	0	0	0	512	509	0	0	
11	0	0	0	0	511	505	0	0	
12	0	0	0	0	511	507	0	0	
13	0	0	0	0	509	508	0	0	
14	0	0	0	0	511	508	0	0	
15	0	0	0	0	512	508	0	0	
0	0	0	0	0	511	508	0	0	
1	0	0	0	0	512	507	0	0	
2	0	0	0	0	514	509	0	0	
3	0	0	0	0	515	508	0	0	
4	0	0	0	0	513	508	0	0	
5	0	0	0	0	512	508	0	0	
6	0	0	0	0	510	509	0	0	
7	0	0	0	0	507	510	0	0	
8	0	0	0	0	508	511	0	0	
9	0	0	0	0	509	508	0	0	
10	0	0	0	0	512	510	0	0	
11	0	0	0	0	512	509	0	0	
12	0	0	0	0	512	508	0	0	
13	0	0	0	0	511	507	1	0	
14	0	0	0	0	508	508	0	0	
15	0	0	0	0	511	509	0	0	
0	0	0	0	0	511	506	0	0	
1	0	0	0	0	513	509	0	0	
2	0	0	0	0	509	510	0	0	
3	0	0	0	0	511	507	0	0	
4	0	0	0	0	510	509	0	0	
5	0	0	0	0	511	507	0	0	
6	0	0	0	0	511	508	0	0	
7	0	0	0	0	512	510	0	0	
8	0	0	0	0	512	507	0	0	
9	0	0	0	0	510	507	0	0	
10	0	0	0	0	510	507	0	0	
11	0	0	0	0	512	508	0	0	
12	0	0	0	0	512	511	0	0	
13	0	0	0	0	513	507	0	0	
14	0	0	0	0	513	508	0	0	
15	0	0	0	0	509	507	0	0	
0	0	0	0	0	508	508	0	0	
1	0	0	0	0	516	513	0	0	
2	0	0	0	0	511	507	0	0	
3	0	0	0	0	507	508	0	0	
4	0	0	0	0	510	509	0	0	
5	0	0	0	0	511	509	0	0	
6	0	0	0	0	512	507	0	0	
7	0	0	0	0	514	508	0	0	
8	0	0	0	0	512	506	0	0	
9	0	0	0	0	515	510	0	0	
10	0	0	0	0	512	509	0	0	
11	0	0	0	0	512	508	1	0	
12	0	0	0	0	510	510	0	0	
13	0	0	0	0	511	508	0	0	
14	0	0	0	0	510	508	0	0	
15	0	0	0	0	511	509	0	0	
0	0	0	0	0	510	508	0	0	
1	0	0	0	0	513	509	0	0	
2	0	0	0	0	510	509	0	0	
3	0	0	0	0	511	508	0	0	
4	0	0	0	0	512	507	0	0	
5	0	0	0	0	512	509	0	0	
6	0	0	0	0	508	509	0	0	
7	0	0	0	0	510	508	0	0	
8	0	0	0	0	510	507	0	0	
9	0	0	0	0	509	510	0	0	
10	0	0	0	0	508	508	0	0	
11	0	0	0	0	510	508	0	0	
12	0	0	0	0	512	509	0	0	
13	0	0	0	0	511	507	0	0	
14	0	0	0	0	507	507	0	0	
15	0	0	0	0	512	512	0	0	
0	0	0	0	0	512	509	0	0	
1	0	0	0	0	509	509	0	0	
2	0	0	0	0	511	509	0	0	
3	0	0	0	0	510	509	0	0	
4	0	0	0	0	513	509	1	0	
5	0	0	0	0	515	508	0	0	
6	0	0	0	0	512	508	0	0	
7	0	0	0	0	509	508	0	0	
8	0	0	0	0	510	511	0	0	
9	0	0	0	0	509	507	0	0	
10	0	0	0	0	512	510	0	0	
11	0	0	0	0	513	509	0	0	
12	0	0	0	0	511	506	0	0	
13	0	0	0	0	512	508	0	0	
14	0	0	0	0	510	509	0	0	
15	0	0	0	0	511	509	0	0	
0	0	0	0	0	513	508	0	0	
1	0	0	0	0	510	505	0	0	
2	0	0	0	0	509	507	0	0	
3	0	0	0	0	511	508	0	0	
4	0	0	0	0	514	509	0	0	
5	0	0	0	0	511	509	0	0	
6	0	0	0	0	511	507	0	0	
7	0	0	0	0	511	508	0	0	
8	0	0	0	0	514	512	0	0	
9	0	0	0	0	510	507	0	0	
10	0	0	0	0	511	509	0	0	
11	0	0	0	0	508	507	0	0	
12	0	0	0	0	511	508	0	0	
13	0	0	0	0	509	508	1	0	
14	0	0	0	0	512	510	0	0	
15	0	0	0	0	512	509	0	0	
0	0	0	0	0	511	506	0	0	
1	0	0	0	0	511	509	0	0	
2	0	0	0	0	509	508	0	0	
3	0	0	0	0	515	510	0	0	
4	0	0	0	0	515	509	0	0	
5	0	0	0	0	514	511	0	0	
6	0	0	0	0	515	510	0	0	
7	0	0	0	0	511	509	0	0	
8	0	0	0	0	509	507	0	0	
9	0	0	0	0	510	508	0	0	
10	0	0	0	0	513	507	0	0	
11	0	0	0	0	514	508	0	0	
12	0	0	0	0	510	508	0	0	
13	0	0	0	0	511	507	0	0	
14	0	0	0	0	510	507	0	0	
15	0	0	0	0	507	506	0	0	
0	0	0	0	0	510	507	0	0	
1	0	0	0	0	511	511	0	0	
2	0	0	0	0	512	510	0	0	
3	0	0	0	0	509	507	0	0	
4	0	0	0	0	509	507	0	0	
5	0	0	0	0	512	507	0	0	
6	0	0	0	0	511	510	0	0	
7	0	0	0	0	511	509	0	0	
8	0	0	0	0	509	504	0	0	
9	0	0	0	0	510	506	0	0	
10	0	0	0	0	508	510	0	0	
11	0	0	0	0	510	512	0	0	
12	0	0	0	0	515	507	0	0	
13	0	0	0	0	516	510	0	0	
14	0	0	0	0	512	508	0	0	
15	0	0	0	0	514	508	0	0	
0	0	0	0	0	513	510	0	0	
1	0	0	0	0	509	508	0	0	
2	0	0	0	0	509	506	0	0	
3	0	0	0	0	508	509	0	0	
4	0	0	0	0	515	511	0	0	
5	0	0	0	0	512	508	0	0	
6	0	0	0	0	511	510	0	0	
7	0	0	0	0	512	508	0	0	
8	0	0	0	0	512	509	0	0	
9	0	0	0	0	510	508	0	0	
10	0	0	0	0	507	507	0	0	
11	0	0	0	0	512	510	0	0	
12	0	0	0	0	512	507	0	0	
13	0	0	0	0	511	508	0	0	
14	0	0	0	0	514	510	0	0	
15	0	0	0	0	512	507	1	0	
0	0	0	0	0	509	512	0	0	
1	0	0	0	0	510	509	0	0	
2	0	0	0	0	512	509	0	0	
3	0	0	0	0	512	508	0	0	
4	0	0	0	0	516	510	0	0	
5	0	0	0	0	512	507	0	0	
6	0	0	0	0	509	509	0	0	
7	0	0	0	0	510	508	0	0	
8	0	0	0	0	512	508	0	0	
9	0	0	0	0	512	508	0	0	
10	0	0	0	0	507	509	0	0	
11	0	0	0	0	510	508	0	0	
12	0	0	0	0	509	508	0	0	
13	0	0	0	0	509	510	0	0	
14	0	0	0	0	511	509	0	0	
15	0	0	0	0	509	510	0	0	
0	0	0	0	0	510	509	0	0	
1	0	0	0	0	509	506	0	0	
2	0	0	0	0	512	507	0	0	
3	0	0	0	0	515	511	0	0	
4	0	0	0	0	516	510	0	0	
5	0	0	0	0	514	509	0	0	
6	0	0	0	0	512	507	0	0	
7	0	0	0	0	514	509	0	0	
8	0	0	0	0	517	511	0	0	
9	0	0	0	0	514	509	0	0	
10	0	0	0	0	512	509	0	0	
11	0	0	0	0	511	505	0	0	
12	0	0	0	0	516	507	0	0	
13	0	0	0	0	521	510	0	0	
14	0	0	0	0	516	511	0	0	
15	0	0	0	0	512	508	0	0	
0	0	0	0	0	506	509	0	0	
1	0	0	0	0	504	508	0	0	
2	0	0	0	0	508	512	0	0	
3	0	0	0	0	504	509	0	0	
4	0	0	0	0	507	510	0	0	
5	0	0	0	0	500	509	0	0	
6	0	0	0	0	505	510	0	0	
7	0	0	0	0	507	506	0	0	
8	0	0	0	0	507	508	0	0	
9	0	0	0	0	508	509	0	0	
10	0	0	0	0	518	510	0	0	
11	0	0	0	0	524	509	0	0	
12	0	0	0	0	521	506	1	0	
13	0	0	0	0	514	511	0	0	
14	0	0	0	0	510	509	0	0	
15	0	0	0	0	508	508	0	0	
0	0	0	0	0	509	509	0	0	
1	0	0	0	0	510	511	0	0	
2	0	0	0	0	510	507	0	0	
3	0	0	0	0	508	509	0	0	
4	0	0	0	0	510	508	0	0	
5	0	0	0	0	510	510	0	0	
6	0	0	0	0	511	507	0	0	
7	0	0	0	0	510	508	0	0	
8	0	0	0	0	509	508	0	0	
9	0	0	0	0	508	508	0	0	
10	0	0	0	0	512	509	0	0	
11	0	0	0	0	516	510	0	0	
12	0	0	0	0	507	510	0	0	
13	0	0	0	0	511	508	0	0	
14	0	0	0	0	517	507	0	0	
15	0	0	0	0	515	509	0	0	
0	0	0	0	0	513	509	0	0	
1	0	0	0	0	512	505	0	0	
2	0	0	0	0	510	507	0	0	
3	0	0	0	0	510	506	0	0	
4	0	0	0	0	510	510	0	0	
5	0	0	0	0	512	512	0	0	
6	0	0	0	0	511	507	0	0	
7	0	0	0	0	512	507	0	0	
8	0	0	0	0	511	508	0	0	
9	0	0	0	0	511	509	0	0	
10	0	0	0	0	511	508	0	0	
11	0	0	0	0	506	509	0	0	
12	0	0	0	0	507	507	0	0	
13	0	0	0	0	509	510	0	0	
14	0	0	0	0	513	511	0	0	
15	0	0	0	0	514	507	1	0	
0	0	0	0	0	513	510	0	0	
1	0	0	0	0	508	509	0	0	
2	0	0	0	0	510	508	0	0	
3	0	0	0	0	512	509	0	0	
4	0	0	0	0	512	510	0	0	
5	0	0	0	0	509	510	0	0	
6	0	0	0	0	511	507	0	0	
7	0	0	0	0	512	507	0	0	
8	0	0	0	0	510	508	0	0	
9	0	0	0	0	511	508	0	0	
10	0	0	0	0	510	508	0	0	
11	0	0	0	0	510	508	0	0	
12	0	0	0	0	512	509	0	0	
13	0	0	0	0	512	508	0	0	
14	0	0	0	0	513	507	0	0	
15	0	0	0	0	511	508	0	0	
0	0	0	0	0	513	508	0	0	
1	0	0	0	0	514	510	0	0	
2	0	0	0	0	515	511	0	0	
3	0	0	0	0	512	507	1	0	
4	0	0	0	0	512	509	0	0	
5	0	0	0	0	514	509	0	0	
6	0	0	0	0	511	505	0	0	
7	0	0	0	0	500	510	0	0	
8	0	0	0	0	499	512	0	0	
9	0	0	0	0	503	509	0	0	
10	0	0	0	0	503	509	0	0	
11	0	0	0	0	505	508	0	0	
12	0	0	0	0	509	509	0	0	
13	0	0	0	0	520	510	0	0	
14	0	0	0	0	519	508	0	0	
15	0	0	0	0	520	508	0	0	
0	0	0	0	0	525	506	0	0	
1	0	0	0	0	524	508	0	0	
2	0	0	0	0	525	507	0	0	
3	0	0	0	0	513	508	0	0	
4	0	0	0	0	497	508	0	0	
5	0	0	0	0	500	510	0	0	
6	0	0	0	0	503	510	0	0	
7	0	0	0	0	509	507	0	0	
8	0	0	0	0	511	509	0	0	
9	0	0	0	0	510	508	0	0	
10	0	0	0	0	513	510	0	0	
11	0	0	0	0	515	509	0	0	
12	0	0	0	0	512	508	0	0	
13	0	0	0	0	512	508	0	0	
14	0	0	0	0	509	509	0	0	
15	0	0	0	0	509	510	0	0	
0	0	0	0	0	508	508	0	0	
1	0	0	0	0	510	509	1	0	
2	0	0	0	0	510	510	0	0	
3	0	0	0	0	508	508	0	0	
4	0	0	0	0	512	508	0	0	
5	0	0	0	0	515	508	0	0	
6	0	0	0	0	513	508	0	0	
7	0	0	0	0	509	509	0	0	
8	0	0	0	0	510	508	0	0	
9	0	0	0	0	510	507	0	0	
10	0	0	0	0	509	509	0	0	
11	0	0	0	0	513	510	0	0	
12	0	0	0	0	513	508	0	0	
13	0	0	0	0	511	508	0	0	
14	0	0	0	0	512	510	0	0	
15	0	0	0	0	515	510	0	0	
0	0	0	0	0	516	509	0	0	
1	0	0	0	0	511	509	0	0	
2	0	0	0	0	499	508	0	0	
3	0	0	0	0	499	509	0	0	
4	0	0	0	0	500	509	0	0	
5	0	0	0	0	503	508	0	0	
6	0	0	0	0	510	508	0	0	
7	0	0	0	0	511	505	0	0	
8	0	0	0	0	519	509	0	0	
9	0	0	0	0	532	507	0	0	
10	0	0	0	0	537	510	1	0	
11	0	0	0	0	535	508	0	0	
12	0	0	0	0	519	507	0	0	
13	0	0	0	0	511	508	0	0	
14	0	0	0	0	507	509	0	0	
15	0	0	0	0	508	508	0	0	
0	0	0	0	0	508	509	0	0	
1	0	0	0	0	510	506	0	0	
2	0	0	0	0	511	509	0	0	
3	0	0	0	0	509	510	0	0	
4	0	0	0	0	508	508	0	0	
5	0	0	0	0	509	507	0	0	
6	0	0	0	0	504	509	0	0	
7	0	0	0	0	507	510	0	0	
8	0	0	0	0	508	509	0	0	
9	0	0	0	0	509	508	0	0	
10	0	0	0	0	511	509	0	0	
11	0	0	0	0	508	509	0	0	
12	0	0	0	0	507	507	0	0	
13	0	0	0	0	511	508	0	0	
14	0	0	0	0	508	508	0	0	
15	0	0	0	0	510	511	0	0	
0	0	0	0	0	510	507	0	0	
1	0	0	0	0	515	510	0	0	
2	0	0	0	0	514	509	0	0	
3	0	0	0	0	514	506	1	0	
4	0	0	0	0	510	510	0	0	
5	0	0	0	0	507	509	0	0	
6	0	0	0	0	509	511	0	0	
7	0	0	0	0	510	507	0	0	
8	0	0	0	0	515	509	0	0	
9	0	0	0	0	510	511	0	0	
10	0	0	0	0	507	508	0	0	
11	0	0	0	0	506	507	0	0	
12	0	0	0	0	510	507	0	0	
13	0	0	0	0	511	508	0	0	
14	0	0	0	0	512	507	0	0	
15	0	0	0	0	518	509	0	0	
0	0	0	0	0	515	505	0	0	
1	0	0	0	0	512	509	0	0	
2	0	0	0	0	510	509	0	0	
3	0	0	0	0	511	507	0	0	
4	0	0	0	0	514	511	0	0	
5	0	0	0	0	513	509	0	0	
6	0	0	0	0	511	506	0	0	
7	0	0	0	0	514	509	0	0	
8	0	0	0	0	512	508	0	0	
9	0	0	0	0	512	510	0	0	
10	0	0	0	0	512	513	0	0	
11	0	0	0	0	512	511	0	0	
12	0	0	0	0	510	507	1	0	
13	0	0	0	0	513	510	0	0	
14	0	0	0	0	519	511	0	0	
15	0	0	0	0	519	508	0	0	
0	0	0	0	0	514	509	0	0	
1	0	0	0	0	509	507	0	0	
2	0	0	0	0	503	507	0	0	
3	0	0	0	0	496	507	0	0	
4	0	0	0	0	493	510	0	0	
5	0	0	0	0	496	508	0	0	
6	0	0	0	0	508	507	0	0	
7	0	0	0	0	514	509	0	0	
8	0	0	0	0	520	509	0	0	
9	0	0	0	0	516	510	0	0	
10	0	0	0	0	520	509	0	0	
11	0	0	0	0	520	509	0	0	
12	0	0	0	0	518	509	0	0	
13	0	0	0	0	517	509	0	0	
14	0	0	0	0	521	510	0	0	
15	0	0	0	0	517	511	0	0	
0	0	0	0	0	518	507	0	0	
1	0	0	0	0	511	507	0	0	
2	0	0	0	0	502	507	0	0	
3	0	0	0	0	503	508	0	0	
4	0	0	0	0	503	511	0	0	
5	0	0	0	0	496	508	0	0	
6	0	0	0	0	505	510	0	0	
7	0	0	0	0	504	506	0	0	
8	0	0	0	0	512	509	0	0	
9	0	0	0	0	508	510	0	0	
10	0	0	0	0	510	509	1	0	
11	0	0	0	0	510	507	0	0	
12	0	0	0	0	510	508	0	0	
13	0	0	0	0	518	508	0	0	
14	0	0	0	0	516	508	0	0	
15	0	0	0	0	517	510	0	0	
0	0	0	0	0	516	509	0	0	
1	0	0	0	0	515	509	0	0	
2	0	0	0	0	515	505	0	0	
3	0	0	0	0	512	508	0	0	
4	0	0	0	0	509	510	0	0	
5	0	0	0	0	508	507	0	0	
6	0	0	0	0	509	507	0	0	
7	0	0	0	0	510	509	0	0	
8	0	0	0	0	508	510	0	0	
9	0	0	0	0	507	511	0	0	
10	0	0	0	0	513	508	0	0	
11	0	0	0	0	510	509	0	0	
12	0	0	0	0	517	510	0	0	
13	0	0	0	0	513	509	0	0	
14	0	0	0	0	508	508	1	0	
15	0	0	0	0	512	507	0	0	
0	0	0	0	0	509	510	0	0	
1	0	0	0	0	510	508	0	0	
2	0	0	0	0	509	508	0	0	
3	0	0	0	0	509	510	0	0	
4	0	0	0	0	511	507	0	0	
5	0	0	0	0	511	508	0	0	
6	0	0	0	0	510	507	0	0	
7	0	0	0	0	511	509	0	0	
8	0	0	0	0	514	509	0	0	
9	0	0	0	0	515	510	0	0	
10	0	0	0	0	510	506	0	0	
11	0	0	0	0	507	508	0	0	
12	0	0	0	0	505	510	0	0	
13	0	0	0	0	511	510	0	0	
14	0	0	0	0	514	507	0	0	
15	0	0	0	0	510	507	0	0	
0	0	0	0	0	512	510	0	0	
1	0	0	0	0	512	509	0	0	
2	0	0	0	0	512	505	0	0	
3	0	0	0	0	514	508	0	0	
4	0	0	0	0	511	508	0	0	
5	0	0	0	0	520	510	0	0	
6	0	0	0	0	516	509	0	0	
7	0	0	0	0	508	508	1	0	
8	0	0	0	0	511	509	0	0	
9	0	0	0	0	510	509	0	0	
10	0	0	0	0	513	508	0	0	
11	0	0	0	0	518	509	0	0	
12	0	0	0	0	514	511	0	0	
13	0	0	0	0	509	508	0	0	
14	0	0	0	0	509	508	0	0	
15	0	0	0	0	505	508	0	0	
0	0	0	0	0	504	508	0	0	
1	0	0	0	0	511	508	0	0	
2	0	0	0	0	513	508	0	0	
3	0	0	0	0	511	504	0	0	
4	0	0	0	0	510	508	0	0	
5	0	0	0	0	515	509	0	0	
6	0	0	0	0	515	509	0	0	
7	0	0	0	0	509	510	0	0	
8	0	0	0	0	500	510	0	0	
9	0	0	0	0	499	511	0	0	
10	0	0	0	0	505	511	0	0	
11	0	0	0	0	506	508	0	0	
12	0	0	0	0	510	511	0	0	
13	0	0	0	0	512	508	0	0	
14	0	0	0	0	517	508	0	0	
15	0	0	0	0	520	507	0	0	
0	0	0	0	0	520	509	0	0	
1	0	0	0	0	517	508	0	0	
2	0	0	0	0	513	506	0	0	
3	0	0	0	0	519	509	0	0	
4	0	0	0	0	515	510	0	0	
5	0	0	0	0	513	512	0	0	
6	0	0	0	0	508	508	0	0	
7	0	0	0	0	512	509	0	0	
8	0	0	0	0	514	509	0	0	
9	0	0	0	0	512	508	0	0	
10	0	0	0	0	512	509	0	0	
11	0	0	0	0	508	508	0	0	
12	0	0	0	0	503	508	0	0	
13	0	0	0	0	503	507	0	0	
14	0	0	0	0	505	509	0	0	
15	0	0	0	0	508	508	0	0	
0	0	0	0	0	508	508	0	0	
1	0	0	0	0	508	506	0	0	
2	0	0	0	0	508	508	0	0	
3	0	0	0	0	508	508	0	0	
4	0	0	0	0	511	509	0	0	
5	0	0	0	0	515	509	0	0	
6	0	0	0	0	515	507	0	0	
7	0	0	0	0	513	506	0	0	
8	0	0	0	0	512	508	0	0	
9	0	0	0	0	519	508	0	0	
10	0	0	0	0	519	512	0	0	
11	0	0	0	0	516	509	0	0	
12	0	0	0	0	513	508	0	0	
13	0	0	0	0	511	508	0	0	
14	0	0	0	0	512	507	0	0	
15	0	0	0	0	516	508	0	0	
0	0	0	0	0	512	508	0	0	
1	0	0	0	0	505	508	0	0	
2	0	0	0	0	500	508	0	0	
3	0	0	0	0	508	508	0	0	
4	0	0	0	0	509	508	0	0	
5	0	0	0	0	510	508	0	0	
6	0	0	0	0	510	507	0	0	
7	0	0	0	0	513	509	0	0	
8	0	0	0	0	509	509	0	0	
9	0	0	0	0	510	508	0	0	
10	0	0	0	0	511	507	0	0	
11	0	0	0	0	512	508	0	0	
12	0	0	0	0	513	508	0	0	
13	0	0	0	0	511	508	0	0	
14	0	0	0	0	511	510	0	0	
15	0	0	0	0	509	511	0	0	
0	0	0	0	0	510	508	0	0	
1	0	0	0	0	509	506	0	0	
2	0	0	0	0	513	508	0	0	
3	0	0	0	0	513	508	0	0	
4	0	0	0	0	509	507	0	0	
5	0	0	0	0	517	509	0	0	
6	0	0	0	0	516	510	0	0	
7	0	0	0	0	512	510	0	0	
8	0	0	0	0	515	510	0	0	
9	0	0	0	0	513	508	0	0	
10	0	0	0	0	509	512	0	0	
11	0	0	0	0	509	512	0	0	
12	0	0	0	0	503	509	0	0	
13	0	0	0	0	510	509	0	0	
14	0	0	0	0	512	505	0	0	
15	0	0	0	0	513	508	0	0	
0	0	0	0	0	515	511	0	0	
1	0	0	0	0	515	508	0	0	
2	0	0	0	0	518	511	0	0	
3	0	0	0	0	515	508	0	0	
4	0	0	0	0	510	508	0	0	
5	0	0	0	0	509	510	0	0	
6	0	0	0	0	500	508	1	0	
7	0	0	0	0	502	508	0	0	
8	0	0	0	0	507	510	0	0	
9	0	0	0	0	508	508	0	0	
10	0	0	0	0	511	511	0	0	
11	0	0	0	0	512	508	0	0	
12	0	0	0	0	514	506	0	0	
13	0	0	0	0	516	509	0	0	
14	0	0	0	0	517	508	0	0	
15	0	0	0	0	516	509	0	0	
0	0	0	0	0	513	508	0	0	
1	0	0	0	0	509	508	0	0	
2	0	0	0	0	510	509	0	0	
3	0	0	0	0	508	509	0	0	
4	0	0	0	0	506	509	0	0	
5	0	0	0	0	507	509	0	0	
6	0	0	0	0	507	509	0	0	
7	0	0	0	0	510	511	0	0	
8	0	0	0	0	512	508	0	0	
9	0	0	0	0	516	507	0	0	
10	0	0	0	0	516	510	0	0	
11	0	0	0	0	512	509	0	0	
12	0	0	0	0	512	508	0	0	
13	0	0	0	0	514	508	0	0	
14	0	0	0	0	512	507	0	0	
15	0	0	0	0	516	510	1	0	
0	0	0	0	0	514	509	0	0	
1	0	0	0	0	513	511	0	0	
2	0	0	0	0	505	507	0	0	
3	0	0	0	0	505	509	0	0	
4	0	0	0	0	508	508	0	0	
5	0	0	0	0	509	508	0	0	
6	0	0	0	0	507	509	0	0	
7	0	0	0	0	519	507	0	0	
8	0	0	0	0	527	507	0	0	
9	0	0	0	0	525	509	0	0	
10	0	0	0	0	514	508	0	0	
11	0	0	0	0	511	507	0	0	
12	0	0	0	0	510	507	0	0	
13	0	0	0	0	504	509	0	0	
14	0	0	0	0	497	509	0	0	
15	0	0	0	0	498	507	0	0	
0	0	0	0	0	508	510	0	0	
1	0	0	0	0	511	507	0	0	
2	0	0	0	0	511	509	0	0	
3	0	0	0	0	514	513	0	0	
4	0	0	0	0	508	510	0	0	
5	0	0	0	0	513	507	0	0	
6	0	0	0	0	526	509	0	0	
7	0	0	0	0	526	509	0	0	
8	0	0	0	0	520	511	1	0	
9	0	0	0	0	515	509	0	0	
10	0	0	0	0	510	510	0	0	
11	0	0	0	0	505	510	0	0	
12	0	0	0	0	501	508	0	0	
13	0	0	0	0	499	507	0	0	
14	0	0	0	0	499	507	0	0	
15	0	0	0	0	507	507	0	0	
0	0	0	0	0	509	510	0	0	
1	0	0	0	0	514	508	0	0	
2	0	0	0	0	509	507	0	0	
3	0	0	0	0	504	507	0	0	
4	0	0	0	0	506	508	0	0	
5	0	0	0	0	520	509	0	0	
6	0	0	0	0	529	508	0	0	
7	0	0	0	0	530	507	0	0	
8	0	0	0	0	521	510	0	0	
9	0	0	0	0	518	508	0	0	
10	0	0	0	0	515	510	0	0	
11	0	0	0	0	509	509	0	0	
12	0	0	0	0	493	508	0	0	
13	0	0	0	0	500	509	0	0	
14	0	0	0	0	502	508	0	0	
15	0	0	0	0	511	509	0	0	
0	0	0	0	0	512	509	0	0	
1	0	0	0	0	516	507	1	0	
2	0	0	0	0	508	510	0	0	
3	0	0	0	0	509	508	0	0	
4	0	0	0	0	514	507	0	0	
5	0	0	0	0	511	508	0	0	
6	0	0	0	0	507	510	0	0	
7	0	0	0	0	509	507	0	0	
8	0	0	0	0	508	506	0	0	
9	0	0	0	0	510	508	0	0	
10	0	0	0	0	512	510	0	0	
11	0	0	0	0	513	509	0	0	
12	0	0	0	0	513	510	0	0	
13	0	0	0	0	513	508	0	0	
14	0	0	0	0	516	506	0	0	
15	0	0	0	0	507	508	0	0	
0	0	0	0	0	502	508	0	0	
1	0	0	0	0	505	509	0	0	
2	0	0	0	0	508	507	0	0	
3	0	0	0	0	509	510	0	0	
4	0	0	0	0	513	511	0	0	
5	0	0	0	0	512	508	0	0	
6	0	0	0	0	513	509	0	0	
7	0	0	0	0	513	508	0	0	
8	0	0	0	0	524	511	0	0	
9	0	0	0	0	528	508	0	0	
10	0	0	0	0	519	505	1	0	
11	0	0	0	0	509	508	0	0	
12	0	0	0	0	504	507	0	0	
13	0	0	0	0	503	508	0	0	
14	0	0	0	0	501	510	0	0	
15	0	0	0	0	507	508	0	0	
0	0	0	0	0	510	509	0	0	
1	0	0	0	0	509	509	0	0	
2	0	0	0	0	510	507	0	0	
3	0	0	0	0	512	509	0	0	
4	0	0	0	0	516	510	0	0	
5	0	0	0	0	519	506	0	0	
6	0	0	0	0	513	507	0	0	
7	0	0	0	0	509	508	0	0	
8	0	0	0	0	507	510	0	0	
9	0	0	0	0	506	509	0	0	
10	0	0	0	0	502	508	0	0	
11	0	0	0	0	503	509	0	0	
12	0	0	0	0	509	509	0	0	
13	0	0	0	0	515	510	0	0	
14	0	0	0	0	512	507	0	0	
15	0	0	0	0	512	505	0	0	
0	0	0	0	0	510	509	0	0	
1	0	0	0	0	513	509	0	0	
2	0	0	0	0	513	511	0	0	
3	0	0	0	0	518	508	1	0	
4	0	0	0	0	518	510	0	0	
5	0	0	0	0	515	509	0	0	
6	0	0	0	0	515	510	0	0	
7	0	0	0	0	510	509	0	0	
8	0	0	0	0	509	507	0	0	
9	0	0	0	0	503	505	0	0	
10	0	0	0	0	497	508	0	0	
11	0	0	0	0	505	507	0	0	
12	0	0	0	0	511	507	0	0	
13	0	0	0	0	522	510	0	0	
14	0	0	0	0	516	508	0	0	
15	0	0	0	0	510	508	0	0	
0	0	0	0	0	508	508	0	0	
1	0	0	0	0	506	509	0	0	
2	0	0	0	0	499	509	0	0	
3	0	0	0	0	498	509	0	0	
4	0	0	0	0	503	506	0	0	
5	0	0	0	0	516	507	0	0	
6	0	0	0	0	520	509	0	0	
7	0	0	0	0	514	510	1	0	
8	0	0	0	0	521	509	0	0	
9	0	0	0	0	511	509	0	0	
10	0	0	0	0	513	511	0	0	
11	0	0	0	0	512	509	0	0	
12	0	0	0	0	510	507	0	0	
13	0	0	0	0	512	508	0	0	
14	0	0	0	0	511	508	0	0	
15	0	0	0	0	515	511	0	0	
0	0	0	0	0	514	509	0	0	
1	0	0	0	0	512	508	0	0	
2	0	0	0	0	511	508	0	0	
3	0	0	0	0	512	509	0	0	
4	0	0	0	0	509	507	0	0	
5	0	0	0	0	511	509	0	0	
6	0	0	0	0	513	510	0	0	
7	0	0	0	0	510	508	0	0	
8	0	0	0	0	510	508	0	0	
9	0	0	0	0	514	509	0	0	
10	0	0	0	0	514	509	0	0	
11	0	0	0	0	513	510	0	0	
12	0	0	0	0	510	508	0	0	
13	0	0	0	0	513	509	0	0	
14	0	0	0	0	510	509	0	0	
15	0	0	0	0	512	506	0	0	
0	0	0	0	0	511	510	0	0	
1	0	0	0	0	508	510	0	0	
2	0	0	0	0	513	511	0	0	
3	0	0	0	0	513	507	0	0	
4	0	0	0	0	515	509	0	0	
5	0	0	0	0	510	509	1	0	
6	0	0	0	0	509	512	0	0	
7	0	0	0	0	513	509	0	0	
8	0	0	0	0	511	505	0	0	
9	0	0	0	0	503	508	0	0	
10	0	0	0	0	507	509	0	0	
11	0	0	0	0	517	507	0	0	
12	0	0	0	0	518	508	0	0	
13	0	0	0	0	512	509	0	0	
14	0	0	0	0	510	509	0	0	
15	0	0	0	0	511	508	0	0	
0	0	0	0	0	502	508	0	0	
1	0	0	0	0	498	507	0	0	
2	0	0	0	0	506	507	0	0	
3	0	0	0	0	512	508	0	0	
4	0	0	0	0	513	510	0	0	
5	0	0	0	0	511	508	0	0	
6	0	0	0	0	508	511	0	0	
7	0	0	0	0	512	510	0	0	
8	0	0	0	0	508	508	0	0	
9	0	0	0	0	514	512	0	0	
10	0	0	0	0	511	506	0	0	
11	0	0	0	0	514	508	0	0	
12	0	0	0	0	514	509	0	0	
13	0	0	0	0	514	513	0	0	
14	0	0	0	0	516	507	0	0	
15	0	0	0	0	517	509	0	0	
0	0	0	0	0	516	507	0	0	
1	0	0	0	0	509	510	0	0	
2	0	0	0	0	514	510	0	0	
3	0	0	0	0	514	509	1	0	
4	0	0	0	0	514	510	0	0	
5	0	0	0	0	509	509	0	0	
6	0	0	0	0	512	510	0	0	
7	0	0	0	0	512	511	0	0	
8	0	0	0	0	510	510	0	0	
9	0	0	0	0	509	508	0	0	
10	0	0	0	0	508	507	0	0	
11	0	0	0	0	514	507	0	0	
12	0	0	0	0	511	511	0	0	
13	0	0	0	0	510	508	0	0	
14	0	0	0	0	508	508	0	0	
15	0	0	0	0	510	507	0	0	
0	0	0	0	0	510	508	0	0	
1	0	0	0	0	512	509	0	0	
2	0	0	0	0	519	511	0	0	
3	0	0	0	0	515	509	0	0	
4	0	0	0	0	509	505	0	0	
5	0	0	0	0	507	508	0	0	
6	0	0	0	0	509	509	0	0	
7	0	0	0	0	511	510	0	0	
8	0	0	0	0	507	509	0	0	
9	0	0	0	0	510	508	0	0	
10	0	0	0	0	514	510	0	0	
11	0	0	0	0	517	509	0	0	
12	0	0	0	0	515	508	0	0	
13	0	0	0	0	514	508	0	0	
14	0	0	0	0	507	508	0	0	
15	0	0	0	0	509	509	0	0	
0	0	0	0	0	510	508	0	0	
1	0	0	0	0	510	507	1	0	
2	0	0	0	0	505	508	0	0	
3	0	0	0	0	510	507	0	0	
4	0	0	0	0	512	510	0	0	
5	0	0	0	0	510	509	0	0	
6	0	0	0	0	512	506	0	0	
7	0	0	0	0	513	507	0	0	
8	0	0	0	0	516	510	0	0	
9	0	0	0	0	512	508	0	0	
10	0	0	0	0	510	508	0	0	
11	0	0	0	0	509	508	0	0	
12	0	0	0	0	512	508	0	0	
13	0	0	0	0	510	510	0	0	
14	0	0	0	0	511	508	0	0	
15	0	0	0	0	512	509	0	0	
0	0	0	0	0	510	508	0	0	
1	0	0	0	0	509	510	0	0	
2	0	0	0	0	505	510	0	0	
3	0	0	0	0	511	510	0	0	
4	0	0	0	0	509	507	0	0	
5	0	0	0	0	510	507	1	0	
6	0	0	0	0	512	507	0	0	
7	0	0	0	0	509	506	0	0	
8	0	0	0	0	512	510	0	0	
9	0	0	0	0	511	509	0	0	
10	0	0	0	0	513	507	0	0	
11	0	0	0	0	518	510	0	0	
12	0	0	0	0	515	510	0	0	
13	0	0	0	0	511	508	0	0	
14	0	0	0	0	511	510	0	0	
15	0	0	0	0	512	508	0	0	
0	0	0	0	0	512	506	0	0	
1	0	0	0	0	505	508	0	0	
2	0	0	0	0	510	508	0	0	
3	0	0	0	0	512	509	0	0	
4	0	0	0	0	510	508	0	0	
5	0	0	0	0	509	508	0	0	
6	0	0	0	0	505	508	0	0	
7	0	0	0	0	509	509	0	0	
8	0	0	0	0	514	510	0	0	
9	0	0	0	0	515	508	0	0	
10	0	0	0	0	514	511	0	0	
11	0	0	0	0	511	504	0	0	
12	0	0	0	0	515	510	0	0	
13	0	0	0	0	512	510	0	0	
14	0	0	0	0	510	511	1	0	
15	0	0	0	0	510	510	0	0	
0	0	0	0	0	511	508	0	0	
1	0	0	0	0	512	508	0	0	
2	0	0	0	0	511	507	0	0	
3	0	0	0	0	513	508	0	0	
4	0	0	0	0	512	509	0	0	
5	0	0	0	0	511	507	0	0	
6	0	0	0	0	508	507	0	0	
7	0	0	0	0	508	509	0	0	
8	0	0	0	0	514	510	0	0	
9	0	0	0	0	515	512	0	0	
10	0	0	0	0	512	508	0	0	
11	0	0	0	0	511	506	0	0	
12	0	0	0	0	511	507	0	0	
13	0	0	0	0	508	506	0	0	
14	0	0	0	0	504	510	0	0	
15	0	0	0	0	506	508	0	0	
0	0	0	0	0	515	508	0	0	
1	0	0	0	0	519	510	0	0	
2	0	0	0	0	510	507	0	0	
3	0	0	0	0	511	511	0	0	
4	0	0	0	0	509	508	0	0	
5	0	0	0	0	506	507	0	0	
6	0	0	0	0	510	508	0	0	
7	0	0	0	0	518	511	0	0	
8	0	0	0	0	512	507	0	0	
9	0	0	0	0	511	508	0	0	
10	0	0	0	0	515	512	0	0	
11	0	0	0	0	516	510	0	0	
12	0	0	0	0	511	508	0	0	
13	0	0	0	0	514	510	0	0	
14	0	0	0	0	515	506	0	0	
15	0	0	0	0	511	507	0	0	
0	0	0	0	0	504	508	0	0	
1	0	0	0	0	500	508	0	0	
2	0	0	0	0	503	507	0	0	
3	0	0	0	0	494	508	0	0	
4	0	0	0	0	499	508	0	0	
5	0	0	0	0	503	510	0	0	
6	0	0	0	0	509	507	0	0	
7	0	0	0	0	515	510	0	0	
8	0	0	0	0	525	508	0	0	
9	0	0	0	0	530	508	0	0	
10	0	0	0	0	524	509	0	0	
11	0	0	0	0	520	514	0	0	
12	0	0	0	0	518	511	0	0	
13	0	0	0	0	512	510	0	0	
14	0	0	0	0	505	509	0	0	
15	0	0	0	0	499	508	0	0	
0	0	0	0	0	498	508	0	0	
1	0	0	0	0	508	509	0	0	
2	0	0	0	0	512	507	0	0	
3	0	0	0	0	514	508	0	0	
4	0	0	0	0	517	509	0	0	
5	0	0	0	0	513	507	0	0	
6	0	0	0	0	511	509	0	0	
7	0	0	0	0	509	508	0	0	
8	0	0	0	0	507	508	0	0	
9	0	0	0	0	511	507	0	0	
10	0	0	0	0	513	509	0	0	
11	0	0	0	0	515	507	0	0	
12	0	0	0	0	509	507	0	0	
13	0	0	0	0	510	508	0	0	
14	0	0	0	0	511	508	0	0	
15	0	0	0	0	515	509	0	0	
0	0	0	0	0	512	509	0	0	
1	0	0	0	0	511	507	0	0	
2	0	0	0	0	511	511	0	0	
3	0	0	0	0	512	510	0	0	
4	0	0	0	0	508	510	0	0	
5	0	0	0	0	510	508	0	0	
6	0	0	0	0	509	506	0	0	
7	0	0	0	0	510	511	0	0	
8	0	0	0	0	511	510	0	0	
9	0	0	0	0	519	509	1	0	
10	0	0	0	0	517	510	0	0	
11	0	0	0	0	512	507	0	0	
12	0	0	0	0	510	506	0	0	
13	0	0	0	0	511	508	0	0	
14	0	0	0	0	513	509	0	0	
15	0	0	0	0	512	509	0	0	
0	0	0	0	0	512	508	0	0	
1	0	0	0	0	512	506	0	0	
2	0	0	0	0	512	509	0	0	
3	0	0	0	0	509	509	0	0	
4	0	0	0	0	509	508	0	0	
5	0	0	0	0	507	505	0	0	
6	0	0	0	0	507	508	0	0	
7	0	0	0	0	510	511	0	0	
8	0	0	0	0	511	507	0	0	
9	0	0	0	0	510	510	0	0	
10	0	0	0	0	510	510	0	0	
11	0	0	0	0	513	508	0	0	
12	0	0	0	0	512	509	0	0	
13	0	0	0	0	512	511	0	0	
14	0	0	0	0	508	508	0	0	
15	0	0	0	0	514	508	0	0	
0	0	0	0	0	515	509	0	0	
1	0	0	0	0	510	509	0	0	
2	0	0	0	0	509	511	0	0	
3	0	0	0	0	508	509	0	0	
4	0	0	0	0	508	508	0	0	
5	0	0	0	0	510	508	0	0	
6	0	0	0	0	513	511	0	0	
7	0	0	0	0	510	508	0	0	
8	0	0	0	0	509	510	0	0	
9	0	0	0	0	511	507	0	0	
10	0	0	0	0	512	505	0	0	
11	0	0	0	0	515	508	0	0	
12	0	0	0	0	515	509	0	0	
13	0	0	0	0	513	508	0	0	
14	0	0	0	0	508	507	0	0	
15	0	0	0	0	507	509	0	0	
0	0	0	0	0	508	509	0	0	
1	0	0	0	0	507	508	0	0	
2	0	0	0	0	508	507	0	0	
3	0	0	0	0	510	507	0	0	
4	0	0	0	0	519	508	0	0	
5	0	0	0	0	517	508	0	0	
6	0	0	0	0	516	511	0	0	
7	0	0	0	0	514	509	0	0	
8	0	0	0	0	509	510	0	0	
9	0	0	0	0	508	508	0	0	
10	0	0	0	0	509	509	0	0	
11	0	0	0	0	513	513	0	0	
12	0	0	0	0	514	507	0	0	
13	0	0	0	0	510	506	0	0	
14	0	0	0	0	513	509	0	0	
15	0	0	0	0	515	510	0	0	
0	0	0	0	0	516	509	0	0	
1	0	0	0	0	511	508	0	0	
2	0	0	0	0	509	507	0	0	
3	0	0	0	0	509	507	0	0	
4	0	0	0	0	508	511	0	0	
5	0	0	0	0	509	510	0	0	
6	0	0	0	0	511	506	0	0	
7	0	0	0	0	508	507	0	0	
8	0	0	0	0	510	509	0	0	
9	0	0	0	0	509	507	0	0	
10	0	0	0	0	510	510	0	0	
11	0	0	0	0	510	508	0	0	
12	0	0	0	0	513	509	0	0	
13	0	0	0	0	513	508	0	0	
14	0	0	0	0	512	509	0	0	
15	0	0	0	0	515	512	0	0	
0	0	0	0	0	513	508	0	0	
1	0	0	0	0	510	511	0	0	
2	0	0	0	0	514	508	0	0	
3	0	0	0	0	511	507	0	0	
4	0	0	0	0	507	507	1	0	
5	0	0	0	0	504	508	0	0	
6	0	0	0	0	507	510	0	0	
7	0	0	0	0	512	508	0	0	
8	0	0	0	0	515	509	0	0	
9	0	0	0	0	511	510	1	0	
10	0	0	0	0	511	508	0	0	
11	0	0	0	0	510	507	0	0	
12	0	0	0	0	511	507	0	0	
13	0	0	0	0	510	508	0	0	
14	0	0	0	0	508	509	0	0	
15	0	0	0	0	510	508	0	0	
0	0	0	0	0	512	508	0	0	
1	0	0	0	0	513	509	0	0	
2	0	0	0	0	514	510	0	0	
3	0	0	0	0	512	512	0	0	
4	0	0	0	0	511	508	0	0	
5	0	0	0	0	511	508	0	0	
6	0	0	0	0	513	506	0	0	
7	0	0	0	0	511	507	0	0	
8	0	0	0	0	513	509	0	0	
9	0	0	0	0	511	509	0	0	
10	0	0	0	0	511	509	0	0	
11	0	0	0	0	511	510	0	0	
12	0	0	0	0	509	510	0	0	
13	0	0	0	0	513	511	0	0	
14	0	0	0	0	512	507	0	0	
15	0	0	0	0	512	508	0	0	
0	0	0	0	0	513	507	0	0	
1	0	0	0	0	509	510	0	0	
2	0	0	0	0	512	507	0	0	
3	0	0	0	0	507	509	0	0	
4	0	0	0	0	506	508	0	0	
5	0	0	0	0	508	508	0	0	
6	0	0	0	0	510	509	0	0	
7	0	0	0	0	510	510	0	0	
8	0	0	0	0	511	508	0	0	
9	0	0	0	0	513	508	0	0	
10	0	0	0	0	518	508	0	0	
11	0	0	0	0	522	508	0	0	
12	0	0	0	0	521	509	0	0	
13	0	0	0	0	515	506	0	0	
14	0	0	0	0	508	505	0	0	
15	0	0	0	0	505	509	0	0	
0	0	0	0	0	505	509	0	0	
1	0	0	0	0	502	510	0	0	
2	0	0	0	0	502	510	0	0	
3	0	0	0	0	509	510	0	0	
4	0	0	0	0	509	507	0	0	
5	0	0	0	0	514	512	0	0	
6	0	0	0	0	514	508	0	0	
7	0	0	0	0	509	507	0	0	
8	0	0	0	0	512	507	0	0	
9	0	0	0	0	510	507	0	0	
10	0	0	0	0	513	508	0	0	
11	0	0	0	0	516	512	0	0	
12	0	0	0	0	512	509	0	0	
13	0	0	0	0	514	509	0	0	
14	0	0	0	0	511	508	0	0	
15	0	0	0	0	515	508	0	0	
0	0	0	0	0	513	508	1	0	
1	0	0	0	0	518	509	0	0	
2	0	0	0	0	516	507	0	0	
3	0	0	0	0	514	508	0	0	
4	0	0	0	0	511	508	0	0	
5	0	0	0	0	509	508	0	0	
6	0	0	0	0	509	506	0	0	
7	0	0	0	0	509	507	0	0	
8	0	0	0	0	509	508	0	0	
9	0	0	0	0	507	508	0	0	
10	0	0	0	0	509	511	0	0	
11	0	0	0	0	510	510	0	0	
12	0	0	0	0	513	509	0	0	
13	0	0	0	0	513	509	0	0	
14	0	0	0	0	510	510	0	0	
15	0	0	0	0	508	507	0	0	
0	0	0	0	0	505	508	0	0	
1	0	0	0	0	506	507	0	0	
2	0	0	0	0	513	511	0	0	
3	0	0	0	0	518	511	0	0	
4	0	0	0	0	517	509	0	0	
5	0	0	0	0	512	509	0	0	
6	0	0	0	0	508	507	0	0	
7	0	0	0	0	502	508	0	0	
8	0	0	0	0	506	508	0	0	
9	0	0	0	0	510	512	0	0	
10	0	0	0	0	511	506	0	0	
11	0	0	0	0	516	507	0	0	
12	0	0	0	0	516	509	0	0	
13	0	0	0	0	511	508	0	0	
14	0	0	0	0	512	508	0	0	
15	0	0	0	0	509	508	0	0	
0	0	0	0	0	509	510	0	0	
1	0	0	0	0	511	508	0	0	
2	0	0	0	0	514	508	0	0	
3	0	0	0	0	511	508	0	0	
4	0	0	0	0	513	508	0	0	
5	0	0	0	0	515	505	0	0	
6	0	0	0	0	512	508	0	0	
7	0	0	0	0	515	510	0	0	
8	0	0	0	0	515	508	0	0	
9	0	0	0	0	512	508	0	0	
10	0	0	0	0	508	508	0	0	
11	0	0	0	0	509	509	0	0	
12	0	0	0	0	508	507	0	0	
13	0	0	0	0	512	510	0	0	
14	0	0	0	0	508	506	0	0	
15	0	0	0	0	511	509	0	0	
0	0	0	0	0	508	508	0	0	
1	0	0	0	0	509	508	0	0	
2	0	0	0	0	507	508	1	0	
3	0	0	0	0	514	510	0	0	
4	0	0	0	0	511	507	0	0	
5	0	0	0	0	510	507	0	0	
6	0	0	0	0	512	509	0	0	
7	0	0	0	0	511	508	0	0	
8	0	0	0	0	512	511	0	0	
9	0	0	0	0	512	508	0	0	
10	0	0	0	0	514	509	0	0	
11	0	0	0	0	513	509	0	0	
12	0	0	0	0	513	508	0	0	
13	0	0	0	0	510	508	0	0	
14	0	0	0	0	509	508	0	0	
15	0	0	0	0	508	507	0	0	
0	0	0	0	0	511	508	0	0	
1	0	0	0	0	511	508	0	0	
2	0	0	0	0	508	510	0	0	
3	0	0	0	0	509	509	0	0	
4	0	0	0	0	510	508	0	0	
5	0	0	0	0	509	509	0	0	
6	0	0	0	0	511	511	0	0	
7	0	0	0	0	510	506	0	0	
8	0	0	0	0	512	510	0	0	
9	0	0	0	0	515	508	0	0	
10	0	0	0	0	519	509	0	0	
11	0	0	0	0	512	508	1	0	
12	0	0	0	0	510	510	0	0	
13	0	0	0	0	506	511	0	0	
14	0	0	0	0	509	508	0	0	
15	0	0	0	0	514	508	0	0	
0	0	0	0	0	512	508	0	0	
1	0	0	0	0	513	507	0	0	
2	0	0	0	0	512	509	0	0	
3	0	0	0	0	515	508	0	0	
4	0	0	0	0	514	509	0	0	
5	0	0	0	0	512	508	0	0	
6	0	0	0	0	512	510	0	0	
7	0	0	0	0	508	506	0	0	
8	0	0	0	0	509	505	0	0	
9	0	0	0	0	508	508	0	0	
10	0	0	0	0	507	508	0	0	
11	0	0	0	0	509	508	0	0	
12	0	0	0	0	512	511	0	0	
13	0	0	0	0	511	509	0	0	
14	0	0	0	0	511	508	0	0	
15	0	0	0	0	512	513	0	0	
0	0	0	0	0	509	509	0	0	
1	0	0	0	0	513	509	0	0	
2	0	0	0	0	511	506	0	0	
3	0	0	0	0	514	508	0	0	
4	0	0	0	0	512	510	1	0	
5	0	0	0	0	513	511	0	0	
6	0	0	0	0	511	509	0	0	
7	0	0	0	0	514	508	0	0	
8	0	0	0	0	508	510	0	0	
9	0	0	0	0	509	507	0	0	
10	0	0	0	0	515	507	0	0	
11	0	0	0	0	514	507	0	0	
12	0	0	0	0	513	508	0	0	
13	0	0	0	0	509	511	0	0	
14	0	0	0	0	511	507	0	0	
15	0	0	0	0	510	510	0	0	
0	0	0	0	0	506	508	0	0	
1	0	0	0	0	508	507	0	0	
2	0	0	0	0	510	508	0	0	
3	0	0	0	0	513	509	0	0	
4	0	0	0	0	511	509	0	0	
5	0	0	0	0	510	511	0	0	
6	0	0	0	0	510	510	0	0	
7	0	0	0	0	511	507	0	0	
8	0	0	0	0	508	511	0	0	
9	0	0	0	0	508	507	0	0	
10	0	0	0	0	509	509	0	0	
11	0	0	0	0	516	508	0	0	
12	0	0	0	0	515	509	0	0	
13	0	0	0	0	511	507	0	0	
14	0	0	0	0	514	510	0	0	
15	0	0	0	0	517	508	0	0	
0	0	0	0	0	514	505	0	0	
1	0	0	0	0	507	508	0	0	
2	0	0	0	0	507	509	0	0	
3	0	0	0	0	507	509	0	0	
4	0	0	0	0	509	508	0	0	
5	0	0	0	0	517	508	0	0	
6	0	0	0	0	517	508	0	0	
7	0	0	0	0	515	510	0	0	
8	0	0	0	0	509	508	0	0	
9	0	0	0	0	508	507	0	0	
10	0	0	0	0	510	508	0	0	
11	0	0	0	0	512	510	0	0	
12	0	0	0	0	512	513	0	0	
13	0	0	0	0	511	507	0	0	
14	0	0	0	0	512	509	0	0	
15	0	0	0	0	513	509	0	0	
0	0	0	0	0	509	507	0	0	
1	0	0	0	0	511	510	0	0	
2	0	0	0	0	512	508	0	0	
3	0	0	0	0	514	508	0	0	
4	0	0	0	0	511	508	0	0	
5	0	0	0	0	516	511	0	0	
6	0	0	0	0	515	508	0	0	
7	0	0	0	0	512	509	0	0	
8	0	0	0	0	506	508	0	0	
9	0	0	0	0	508	510	0	0	
10	0	0	0	0	504	509	0	0	
11	0	0	0	0	504	505	0	0	
12	0	0	0	0	503	507	0	0	
13	0	0	0	0	510	508	0	0	
14	0	0	0	0	515	508	0	0	
15	0	0	0	0	515	510	0	0	
0	0	0	0	0	516	510	0	0	
1	0	0	0	0	519	508	0	0	
2	0	0	0	0	511	507	0	0	
3	0	0	0	0	510	510	0	0	
4	0	0	0	0	511	509	0	0	
5	0	0	0	0	514	511	0	0	
6	0	0	0	0	511	508	0	0	
7	0	0	0	0	510	509	0	0	
8	0	0	0	0	515	508	0	0	
9	0	0	0	0	513	507	0	0	
10	0	0	0	0	508	508	0	0	
11	0	0	0	0	507	511	0	0	
12	0	0	0	0	507	508	0	0	
13	0	0	0	0	507	510	0	0	
14	0	0	0	0	511	511	0	0	
15	0	0	0	0	515	508	1	0	
0	0	0	0	0	514	510	0	0	
1	0	0	0	0	518	508	0	0	
2	0	0	0	0	517	508	0	0	
3	0	0	0	0	513	507	0	0	
4	0	0	0	0	510	507	0	0	
5	0	0	0	0	507	509	0	0	
6	0	0	0	0	505	508	0	0	
7	0	0	0	0	508	508	0	0	
8	0	0	0	0	507	511	0	0	
9	0	0	0	0	511	509	0	0	
10	0	0	0	0	512	507	0	0	
11	0	0	0	0	514	508	0	0	
12	0	0	0	0	515	509	0	0	
13	0	0	0	0	513	510	0	0	
14	0	0	0	0	509	509	0	0	
15	0	0	0	0	512	507	0	0	
0	0	0	0	0	511	510	0	0	
1	0	0	0	0	515	508	0	0	
2	0	0	0	0	517	510	0	0	
3	0	0	0	0	513	509	0	0	
4	0	0	0	0	507	508	0	0	
5	0	0	0	0	511	507	0	0	
6	0	0	0	0	512	507	0	0	
7	0	0	0	0	514	511	0	0	
8	0	0	0	0	507	507	1	0	
9	0	0	0	0	511	510	0	0	
10	0	0	0	0	507	506	0	0	
11	0	0	0	0	508	507	0	0	
12	0	0	0	0	510	509	0	0	
13	0	0	0	0	508	510	0	0	
14	0	0	0	0	508	510	0	0	
15	0	0	0	0	509	508	0	0	
0	0	0	0	0	511	508	0	0	
1	0	0	0	0	513	510	0	0	
2	0	0	0	0	513	506	0	0	
3	0	0	0	0	512	509	0	0	
4	0	0	0	0	509	507	0	0	
5	0	0	0	0	509	509	0	0	
6	0	0	0	0	515	510	0	0	
7	0	0	0	0	512	510	0	0	
8	0	0	0	0	514	509	0	0	
9	0	0	0	0	509	506	0	0	
10	0	0	0	0	512	508	0	0	
11	0	0	0	0	513	508	0	0	
12	0	0	0	0	504	509	0	0	
13	0	0	0	0	511	507	0	0	
14	0	0	0	0	512	507	0	0	
15	0	0	0	0	510	508	0	0	
0	0	0	0	0	509	510	0	0	
1	0	0	0	0	513	512	0	0	
2	0	0	0	0	512	511	0	0	
3	0	0	0	0	510	509	0	0	
4	0	0	0	0	509	508	0	0	
5	0	0	0	0	515	508	0	0	
6	0	0	0	0	514	509	0	0	
7	0	0	0	0	515	509	0	0	
8	0	0	0	0	516	510	0	0	
9	0	0	0	0	512	509	0	0	
10	0	0	0	0	507	508	0	0	
11	0	0	0	0	511	510	0	0	
12	0	0	0	0	512	509	0	0	
13	0	0	0	0	513	508	0	0	
14	0	0	0	0	512	509	0	0	
15	0	0	0	0	510	508	0	0	
0	0	0	0	0	515	508	1	0	
1	0	0	0	0	515	509	0	0	
2	0	0	0	0	509	508	0	0	
3	0	0	0	0	509	510	0	0	
4	0	0	0	0	509	508	0	0	
5	0	0	0	0	508	509	0	0	
6	0	0	0	0	509	508	0	0	
7	0	0	0	0	507	508	0	0	
8	0	0	0	0	508	508	0	0	
9	0	0	0	0	510	510	0	0	
10	0	0	0	0	512	509	0	0	
11	0	0	0	0	511	508	0	0	
12	0	0	0	0	508	508	0	0	
13	0	0	0	0	509	508	0	0	
14	0	0	0	0	514	511	0	0	
15	0	0	0	0	511	508	0	0	
0	0	0	0	0	511	507	0	0	
1	0	0	0	0	511	507	0	0	
2	0	0	0	0	514	508	0	0	
3	0	0	0	0	514	508	0	0	
4	0	0	0	0	515	509	0	0	
5	0	0	0	0	518	512	0	0	
6	0	0	0	0	513	509	0	0	
7	0	0	0	0	513	507	0	0	
8	0	0	0	0	515	511	0	0	
9	0	0	0	0	511	510	1	0	
10	0	0	0	0	508	509	0	0	
11	0	0	0	0	507	508	0	0	
12	0	0	0	0	511	508	0	0	
13	0	0	0	0	510	509	0	0	
14	0	0	0	0	510	511	0	0	
15	0	0	0	0	511	509	0	0	
0	0	0	0	0	511	508	0	0	
1	0	0	0	0	514	508	0	0	
2	0	0	0	0	509	508	0	0	
3	0	0	0	0	507	508	0	0	
4	0	0	0	0	508	511	0	0	
5	0	0	0	0	511	508	0	0	
6	0	0	0	0	516	507	0	0	
7	0	0	0	0	515	508	0	0	
8	0	0	0	0	521	509	0	0	
9	0	0	0	0	520	509	0	0	
10	0	0	0	0	508	507	0	0	
11	0	0	0	0	506	509	0	0	
12	0	0	0	0	506	509	0	0	
13	0	0	0	0	506	507	0	0	
14	0	0	0	0	511	507	0	0	
15	0	0	0	0	507	508	0	0	
0	0	0	0	0	508	508	0	0	
1	0	0	0	0	506	510	0	0	
2	0	0	0	0	516	512	0	0	
3	0	0	0	0	515	510	0	0	
4	0	0	0	0	514	510	0	0	
5	0	0	0	0	513	510	0	0	
6	0	0	0	0	515	510	0	0	
7	0	0	0	0	513	511	0	0	
8	0	0	0	0	514	510	0	0	
9	0	0	0	0	512	507	0	0	
10	0	0	0	0	509	508	0	0	
11	0	0	0	0	507	508	0	0	
12	0	0	0	0	504	508	0	0	
13	0	0	0	0	508	505	0	0	
14	0	0	0	0	514	506	0	0	
15	0	0	0	0	519	508	0	0	
0	0	0	0	0	518	508	0	0	
1	0	0	0	0	513	509	0	0	
2	0	0	0	0	513	508	0	0	
3	0	0	0	0	508	508	0	0	
4	0	0	0	0	511	507	0	0	
5	0	0	0	0	511	510	0	0	
6	0	0	0	0	511	509	0	0	
7	0	0	0	0	511	509	0	0	
8	0	0	0	0	506	508	0	0	
9	0	0	0	0	507	509	0	0	
10	0	0	0	0	508	508	0	0	
11	0	0	0	0	506	508	1	0	
12	0	0	0	0	509	511	0	0	
13	0	0	0	0	513	510	0	0	
14	0	0	0	0	514	509	0	0	
15	0	0	0	0	518	510	0	0	
0	0	0	0	0	518	507	1	0	
1	0	0	0	0	516	509	0	0	
2	0	0	0	0	510	511	0	0	
3	0	0	0	0	508	508	0	0	
4	0	0	0	0	513	508	0	0	
5	0	0	0	0	510	508	0	0	
6	0	0	0	0	512	509	0	0	
7	0	0	0	0	511	508	0	0	
8	0	0	0	0	513	509	0	0	
9	0	0	0	0	510	509	0	0	
10	0	0	0	0	509	508	0	0	
11	0	0	0	0	509	508	0	0	
12	0	0	0	0	512	509	0	0	
13	0	0	0	0	510	508	0	0	
14	0	0	0	0	511	507	0	0	
15	0	0	0	0	512	509	0	0	
0	0	0	0	0	509	507	0	0	
1	0	0	0	0	509	507	0	0	
2	0	0	0	0	511	509	0	0	
3	0	0	0	0	511	507	0	0	
4	0	0	0	0	513	510	0	0	
5	0	0	0	0	511	511	0	0	
6	0	0	0	0	509	508	0	0	
7	0	0	0	0	508	508	0	0	
8	0	0	0	0	513	511	0	0	
9	0	0	0	0	512	508	0	0	
10	0	0	0	0	511	508	0	0	
11	0	0	0	0	507	508	0	0	
12	0	0	0	0	508	507	0	0	
13	0	0	0	0	508	509	0	0	
14	0	0	0	0	512	509	0	0	
15	0	0	0	0	512	508	0	0	
0	0	0	0	0	512	507	0	0	
1	0	0	0	0	512	506	0	0	
2	0	0	0	0	518	510	0	0	
3	0	0	0	0	516	508	0	0	
4	0	0	0	0	514	511	0	0	
5	0	0	0	0	510	508	0	0	
6	0	0	0	0	513	510	0	0	
7	0	0	0	0	514	510	0	0	
8	0	0	0	0	515	513	0	0	
9	0	0	0	0	508	509	0	0	
10	0	0	0	0	507	510	0	0	
11	0	0	0	0	509	508	0	0	
12	0	0	0	0	510	509	0	0	
13	0	0	0	0	512	511	0	0	
14	0	0	0	0	509	511	0	0	
15	0	0	0	0	510	507	0	0	
0	0	0	0	0	513	510	0	0	
1	0	0	0	0	511	507	0	0	
2	0	0	0	0	512	510	0	0	
3	0	0	0	0	514	508	0	0	
4	0	0	0	0	512	508	0	0	
5	0	0	0	0	512	508	0	0	
6	0	0	0	0	509	510	0	0	
7	0	0	0	0	513	509	0	0	
8	0	0	0	0	512	506	0	0	
9	0	0	0	0	510	508	0	0	
10	0	0	0	0	510	508	0	0	
11	0	0	0	0	511	509	0	0	
12	0	0	0	0	512	509	0	0	
13	0	0	0	0	511	509	0	0	
14	0	0	0	0	512	507	0	0	
15	0	0	0	0	511	507	0	0	
0	0	0	0	0	509	508	0	0	
1	0	0	0	0	514	510	0	0	
2	0	0	0	0	509	507	0	0	
3	0	0	0	0	510	508	0	0	
4	0	0	0	0	507	508	0	0	
5	0	0	0	0	509	508	0	0	
6	0	0	0	0	519	510	0	0	
7	0	0	0	0	514	509	0	0	
8	0	0	0	0	514	511	0	0	
9	0	0	0	0	508	507	0	0	
10	0	0	0	0	508	512	0	0	
11	0	0	0	0	507	509	1	0	
12	0	0	0	0	507	506	0	0	
13	0	0	0	0	513	508	0	0	
14	0	0	0	0	511	508	0	0	
15	0	0	0	0	518	509	0	0	
0	0	0	0	0	519	510	0	0	
1	0	0	0	0	514	510	0	0	
2	0	0	0	0	510	508	0	0	
3	0	0	0	0	511	507	0	0	
4	0	0	0	0	510	509	0	0	
5	0	0	0	0	510	509	0	0	
6	0	0	0	0	509	508	0	0	
7	0	0	0	0	508	506	0	0	
8	0	0	0	0	512	508	0	0	
9	0	0	0	0	511	510	0	0	
10	0	0	0	0	511	509	0	0	
11	0	0	0	0	509	508	0	0	
12	0	0	0	0	509	510	0	0	
13	0	0	0	0	509	509	0	0	
14	0	0	0	0	511	508	0	0	
15	0	0	0	0	514	508	0	0	
0	0	0	0	0	515	509	0	0	
1	0	0	0	0	518	509	0	0	
2	0	0	0	0	514	508	0	0	
3	0	0	0	0	510	509	0	0	
4	0	0	0	0	515	515	0	0	
5	0	0	0	0	508	510	0	0	
6	0	0	0	0	505	509	0	0	
7	0	0	0	0	504	508	0	0	
8	0	0	0	0	502	510	0	0	
9	0	0	0	0	508	506	0	0	
10	0	0	0	0	512	510	1	0	
11	0	0	0	0	508	508	0	0	
12	0	0	0	0	516	509	0	0	
13	0	0	0	0	516	510	0	0	
14	0	0	0	0	514	507	1	0	
15	0	0	0	0	514	510	0	0	
0	0	0	0	0	512	508	0	0	
1	0	0	0	0	513	510	0	0	
2	0	0	0	0	510	507	0	0	
3	0	0	0	0	513	507	0	0	
4	0	0	0	0	508	508	0	0	
5	0	0	0	0	512	505	0	0	
6	0	0	0	0	511	508	0	0	
7	0	0	0	0	513	510	0	0	
8	0	0	0	0	512	508	0	0	
9	0	0	0	0	513	511	0	0	
10	0	0	0	0	511	507	0	0	
11	0	0	0	0	510	509	0	0	
12	0	0	0	0	510	510	0	0	
13	0	0	0	0	508	509	0	0	
14	0	0	0	0	508	507	0	0	
15	0	0	0	0	512	508	0	0	
0	0	0	0	0	515	509	0	0	
1	0	0	0	0	511	510	0	0	
2	0	0	0	0	508	508	0	0	
3	0	0	0	0	507	508	0	0	
4	0	0	0	0	507	507	0	0	
5	0	0	0	0	510	508	0	0	
6	0	0	0	0	509	510	0	0	
7	0	0	0	0	517	509	0	0	
8	0	0	0	0	516	509	0	0	
9	0	0	0	0	514	508	0	0	
10	0	0	0	0	521	508	0	0	
11	0	0	0	0	521	508	0	0	
12	0	0	0	0	514	508	0	0	
13	0	0	0	0	511	508	0	0	
14	0	0	0	0	511	509	0	0	
15	0	0	0	0	509	507	0	0	
0	0	0	0	0	510	510	0	0	
1	0	0	0	0	509	509	0	0	
2	0	0	0	0	505	508	0	0	
3	0	0	0	0	505	506	0	0	
4	0	0	0	0	507	507	0	0	
5	0	0	0	0	508	507	0	0	
6	0	0	0	0	511	510	0	0	
7	0	0	0	0	507	512	0	0	
8	0	0	0	0	513	512	0	0	
9	0	0	0	0	513	507	0	0	
10	0	0	0	0	512	510	0	0	
11	0	0	0	0	516	511	0	0	
12	0	0	0	0	514	507	0	0	
13	0	0	0	0	513	510	0	0	
14	0	0	0	0	511	510	0	0	
15	0	0	0	0	514	510	0	0	
0	0	0	0	0	511	508	0	0	
1	0	0	0	0	513	508	0	0	
2	0	0	0	0	512	508	0	0	
3	0	0	0	0	509	509	0	0	
4	0	0	0	0	511	509	0	0	
5	0	0	0	0	512	510	0	0	
6	0	0	0	0	515	508	0	0	
7	0	0	0	0	509	506	0	0	
8	0	0	0	0	508	508	0	0	
9	0	0	0	0	510	508	0	0	
10	0	0	0	0	511	508	0	0	
11	0	0	0	0	510	508	0	0	
12	0	0	0	0	507	508	0	0	
13	0	0	0	0	507	508	0	0	
14	0	0	0	0	512	509	0	0	
15	0	0	0	0	515	510	0	0	
0	0	0	0	0	514	507	0	0	
1	0	0	0	0	513	510	0	0	
2	0	0	0	0	507	510	0	0	
3	0	0	0	0	510	510	0	0	
4	0	0	0	0	510	511	0	0	
5	0	0	0	0	506	508	0	0	
6	0	0	0	0	509	507	0	0	
7	0	0	0	0	505	508	0	0	
8	0	0	0	0	511	507	0	0	
9	0	0	0	0	517	509	0	0	
10	0	0	0	0	513	508	0	0	
11	0	0	0	0	511	508	0	0	
12	0	0	0	0	514	508	0	0	
13	0	0	0	0	522	510	0	0	
14	0	0	0	0	519	511	0	0	
15	0	0	0	0	519	508	0	0	
0	0	0	0	0	513	507	0	0	
1	0	0	0	0	511	506	0	0	
2	0	0	0	0	507	508	0	0	
3	0	0	0	0	509	510	0	0	
4	0	0	0	0	511	509	0	0	
5	0	0	0	0	512	508	0	0	
6	0	0	0	0	507	508	0	0	
7	0	0	0	0	503	507	0	0	
8	0	0	0	0	511	512	0	0	
9	0	0	0	0	505	507	0	0	
10	0	0	0	0	507	510	0	0	
11	0	0	0	0	513	506	0	0	
12	0	0	0	0	511	508	0	0	
13	0	0	0	0	509	510	1	0	
14	0	0	0	0	507	509	0	0	
15	0	0	0	0	512	507	0	0	
0	0	0	0	0	510	510	0	0	
1	0	0	0	0	509	509	0	0	
2	0	0	0	0	511	510	0	0	
3	0	0	0	0	509	509	0	0	
4	0	0	0	0	511	508	0	0	
5	0	0	0	0	513	510	0	0	
6	0	0	0	0	514	510	0	0	
7	0	0	0	0	512	509	0	0	
8	0	0	0	0	511	508	0	0	
9	0	0	0	0	510	507	0	0	
10	0	0	0	0	510	507	0	0	
11	0	0	0	0	509	508	0	0	
12	0	0	0	0	508	508	0	0	
13	0	0	0	0	509	508	0	0	
14	0	0	0	0	509	511	0	0	
15	0	0	0	0	511	507	0	0	
0	0	0	0	0	510	508	0	0	
1	0	0	0	0	515	513	0	0	
2	0	0	0	0	512	507	0	0	
3	0	0	0	0	514	507	0	0	
4	0	0	0	0	512	508	0	0	
5	0	0	0	0	515	511	0	0	
6	0	0	0	0	515	510	1	0	
7	0	0	0	0	514	510	0	0	
8	0	0	0	0	515	509	0	0	
9	0	0	0	0	511	508	1	0	
10	0	0	0	0	506	510	0	0	
11	0	0	0	0	508	508	0	0	
12	0	0	0	0	510	508	0	0	
13	0	0	0	0	507	509	0	0	
14	0	0	0	0	512	507	0	0	
15	0	0	0	0	512	507	0	0	
0	0	0	0	0	515	509	0	0	
1	0	0	0	0	513	507	0	0	
2	0	0	0	0	513	505	0	0	
3	0	0	0	0	513	507	0	0	
4	0	0	0	0	513	510	0	0	
5	0	0	0	0	512	510	0	0	
6	0	0	0	0	510	509	0	0	
7	0	0	0	0	508	508	0	0	
8	0	0	0	0	507	508	0	0	
9	0	0	0	0	508	507	0	0	
10	0	0	0	0	514	513	0	0	
11	0	0	0	0	513	508	0	0	
12	0	0	0	0	510	508	0	0	
13	0	0	0	0	509	507	0	0	
14	0	0	0	0	512	509	0	0	
15	0	0	0	0	512	511	0	0	
0	0	0	0	0	508	508	0	0	
1	0	0	0	0	511	508	0	0	
2	0	0	0	0	513	507	0	0	
3	0	0	0	0	509	509	0	0	
4	0	0	0	0	510	509	0	0	
5	0	0	0	0	509	509	0	0	
6	0	0	0	0	504	509	0	0	
7	0	0	0	0	509	508	0	0	
8	0	0	0	0	509	508	0	0	
9	0	0	0	0	509	508	0	0	
10	0	0	0	0	512	507	0	0	
11	0	0	0	0	518	508	0	0	
12	0	0	0	0	518	508	0	0	
13	0	0	0	0	519	507	0	0	
14	0	0	0	0	513	508	0	0	
15	0	0	0	0	510	509	0	0	
0	0	0	0	0	510	508	0	0	
1	0	0	0	0	508	510	0	0	
2	0	0	0	0	508	511	0	0	
3	0	0	0	0	508	508	0	0	
4	0	0	0	0	510	509	0	0	
5	0	0	0	0	507	507	0	0	
6	0	0	0	0	512	511	0	0	
7	0	0	0	0	514	511	0	0	
8	0	0	0	0	515	509	1	0	
9	0	0	0	0	513	510	0	0	
10	0	0	0	0	512	507	0	0	
11	0	0	0	0	522	505	0	0	
12	0	0	0	0	519	506	0	0	
13	0	0	0	0	508	507	0	0	
14	0	0	0	0	509	509	0	0	
15	0	0	0	0	509	509	0	0	
0	0	0	0	0	498	509	0	0	
1	0	0	0	0	490	510	0	0	
2	0	0	0	0	493	510	0	0	
3	0	0	0	0	501	508	0	0	
4	0	0	0	0	505	506	0	0	
5	0	0	0	0	511	506	0	0	
6	0	0	0	0	515	508	0	0	
7	0	0	0	0	513	509	0	0	
8	0	0	0	0	519	511	0	0	
9	0	0	0	0	524	507	0	0	
10	0	0	0	0	519	509	0	0	
11	0	0	0	0	511	510	0	0	
12	0	0	0	0	505	510	0	0	
13	0	0	0	0	511	507	0	0	
14	0	0	0	0	508	509	0	0	
15	0	0	0	0	512	507	0	0	
0	0	0	0	0	513	509	0	0	
1	0	0	0	0	520	509	1	0	
2	0	0	0	0	522	509	0	0	
3	0	0	0	0	522	509	0	0	
4	0	0	0	0	513	508	0	0	
5	0	0	0	0	505	508	0	0	
6	0	0	0	0	507	510	0	0	
7	0	0	0	0	509	506	0	0	
8	0	0	0	0	504	508	0	0	
9	0	0	0	0	505	509	0	0	
10	0	0	0	0	514	511	0	0	
11	0	0	0	0	524	508	0	0	
12	0	0	0	0	519	509	0	0	
13	0	0	0	0	510	507	0	0	
14	0	0	0	0	515	510	0	0	
15	0	0	0	0	514	510	0	0	
0	0	0	0	0	511	508	0	0	
1	0	0	0	0	514	508	0	0	
2	0	0	0	0	511	508	0	0	
3	0	0	0	0	504	509	0	0	
4	0	0	0	0	500	510	0	0	
5	0	0	0	0	486	507	0	0	
6	0	0	0	0	491	505	0	0	
7	0	0	0	0	513	509	0	0	
8	0	0	0	0	521	509	0	0	
9	0	0	0	0	523	508	0	0	
10	0	0	0	0	525	509	1	0	
11	0	0	0	0	522	509	0	0	
12	0	0	0	0	512	507	0	0	
13	0	0	0	0	508	508	0	0	
14	0	0	0	0	508	508	0	0	
15	0	0	0	0	508	510	0	0	
0	0	0	0	0	509	510	0	0	
1	0	0	0	0	508	507	0	0	
2	0	0	0	0	511	508	0	0	
3	0	0	0	0	507	512	0	0	
4	0	0	0	0	511	509	0	0	
5	0	0	0	0	515	509	0	0	
6	0	0	0	0	515	507	0	0	
7	0	0	0	0	515	508	0	0	
8	0	0	0	0	513	509	0	0	
9	0	0	0	0	515	510	0	0	
10	0	0	0	0	507	510	0	0	
11	0	0	0	0	505	509	0	0	
12	0	0	0	0	511	506	0	0	
13	0	0	0	0	510	508	0	0	
14	0	0	0	0	512	512	0	0	
15	0	0	0	0	510	508	0	0	
0	0	0	0	0	513	509	0	0	
1	0	0	0	0	514	510	0	0	
2	0	0	0	0	518	512	0	0	
3	0	0	0	0	516	507	1	0	
4	0	0	0	0	512	506	0	0	
5	0	0	0	0	506	508	0	0	
6	0	0	0	0	507	511	0	0	
7	0	0	0	0	506	509	0	0	
8	0	0	0	0	507	511	0	0	
9	0	0	0	0	503	507	0	0	
10	0	0	0	0	507	507	0	0	
11	0	0	0	0	515	509	0	0	
12	0	0	0	0	520	510	0	0	
13	0	0	0	0	518	509	0	0	
14	0	0	0	0	515	507	0	0	
15	0	0	0	0	512	507	0	0	
0	0	0	0	0	510	508	0	0	
1	0	0	0	0	507	507	0	0	
2	0	0	0	0	510	508	0	0	
3	0	0	0	0	510	511	0	0	
4	0	0	0	0	512	508	0	0	
5	0	0	0	0	518	509	0	0	
6	0	0	0	0	515	511	0	0	
7	0	0	0	0	510	507	0	0	
8	0	0	0	0	505	509	0	0	
9	0	0	0	0	489	510	0	0	
10	0	0	0	0	506	508	0	0	
11	0	0	0	0	515	509	0	0	
12	0	0	0	0	519	508	0	0	
13	0	0	0	0	525	508	0	0	
14	0	0	0	0	515	509	0	0	
15	0	0	0	0	519	510	0	0	
0	0	0	0	0	518	511	0	0	
1	0	0	0	0	517	512	0	0	
2	0	0	0	0	516	509	0	0	
3	0	0	0	0	508	509	0	0	
4	0	0	0	0	500	506	0	0	
5	0	0	0	0	495	505	0	0	
6	0	0	0	0	501	506	0	0	
7	0	0	0	0	499	508	0	0	
8	0	0	0	0	510	509	0	0	
9	0	0	0	0	518	512	0	0	
10	0	0	0	0	523	505	0	0	
11	0	0	0	0	521	503	0	0	
12	0	0	0	0	514	507	0	0	
13	0	0	0	0	502	505	0	0	
14	0	0	0	0	498	507	0	0	
15	0	0	0	0	500	509	0	0	
0	0	0	0	0	500	507	0	0	
1	0	0	0	0	485	512	0	0	
2	0	0	0	0	497	511	0	0	
3	0	0	0	0	517	512	0	0	
4	0	0	0	0	524	510	0	0	
5	0	0	0	0	530	507	0	0	
6	0	0	0	0	524	511	0	0	
7	0	0	0	0	514	513	0	0	
8	0	0	0	0	505	506	0	0	
9	0	0	0	0	515	506	0	0	
10	0	0	0	0	512	507	0	0	
11	0	0	0	0	530	511	0	0	
12	0	0	0	0	537	508	0	0	
13	0	0	0	0	531	505	0	0	
14	0	0	0	0	523	505	0	0	
15	0	0	0	0	518	507	0	0	
0	0	0	0	0	509	512	0	0	
1	0	0	0	0	492	510	0	0	
2	0	0	0	0	490	506	0	0	
3	0	0	0	0	501	509	0	0	
4	0	0	0	0	508	510	0	0	
5	0	0	0	0	507	509	0	0	
6	0	0	0	0	509	509	0	0	
7	0	0	0	0	510	510	0	0	
8	0	0	0	0	511	510	0	0	
9	0	0	0	0	511	512	0	0	
10	0	0	0	0	509	511	0	0	
11	0	0	0	0	499	509	0	0	
12	0	0	0	0	496	509	0	0	
13	0	0	0	0	516	508	0	0	
14	0	0	0	0	515	508	0	0	
15	0	0	0	0	519	512	0	0	
0	0	0	0	0	526	512	0	0	
1	0	0	0	0	527	509	0	0	
2	0	0	0	0	525	508	0	0	
3	0	0	0	0	542	503	0	0	
4	0	0	0	0	517	505	0	0	
5	0	0	0	0	509	505	0	0	
6	0	0	0	0	503	506	0	0	
7	0	0	0	0	496	508	0	0	
8	0	0	0	0	516	513	1	0	
9	0	0	0	0	522	521	1	0	
10	0	0	0	0	539	536	0	0	
11	0	0	0	0	562	542	0	0	
12	0	0	0	0	515	534	0	0	
13	0	0	0	0	492	526	0	0	
14	0	0	0	0	471	510	10	0	
15	0	0	0	0	476	495	19	0	
0	0	0	0	0	486	492	26	0	
1	0	0	0	0	487	493	28	0	
2	0	0	0	0	486	473	29	0	
3	0	0	0	0	514	460	28	0	
4	0	0	0	0	523	467	35	0	
5	0	0	0	0	503	496	34	0	
6	0	0	0	0	486	494	34	0	
7	0	0	0	0	484	497	38	0	
8	0	0	0	0	474	507	44	0	
9	0	0	0	0	492	549	44	0	
10	0	0	0	0	493	558	47	0	
11	0	0	0	0	509	573	49	0	
12	0	0	0	0	532	552	46	0	
13	0	0	0	0	566	517	48	0	
14	0	0	0	0	601	529	54	0	
15	0	0	0	0	607	527	55	0	
0	0	0	0	0	564	465	56	0	
1	0	0	0	0	525	447	59	0	
2	0	0	0	0	508	463	60	0	
3	0	0	0	0	479	414	63	0	
4	0	0	0	0	446	428	70	0	
5	0	0	0	0	478	515	71	0	
6	0	0	0	0	542	599	78	0	
7	0	0	0	0	573	502	76	0	
8	0	0	0	0	545	522	77	0	
9	0	0	0	0	541	544	78	0	
10	0	0	0	0	499	592	79	0	
11	0	0	0	0	434	698	79	0	
12	0	0	0	0	420	660	81	0	
13	0	0	0	0	444	499	81	0	
14	0	0	0	0	471	380	84	0	
15	0	0	0	0	492	300	85	0	
0	0	0	0	0	502	307	88	0	
1	0	0	0	0	486	429	93	0	
2	0	0	0	0	483	498	94	0	
3	0	0	0	0	504	532	96	0	
4	0	0	0	0	559	563	97	0	
5	0	0	0	0	598	546	100	0	
6	0	0	0	0	606	565	98	0	
7	0	0	0	0	568	509	98	0	
8	0	0	0	0	553	525	98	0	
9	0	0	0	0	485	572	96	0	
10	0	0	0	0	498	538	95	0	
11	0	0	0	0	513	465	95	0	
12	0	0	0	0	451	561	93	0	
13	0	0	0	0	397	602	96	0	
14	0	0	0	0	435	479	100	0	
15	0	0	0	0	442	439	97	0	
0	0	0	0	0	489	388	101	0	
1	0	0	0	0	554	341	99	0	
2	0	0	0	0	643	404	106	0	
3	0	0	0	0	596	455	107	0	
4	0	0	0	0	534	542	110	0	
5	0	0	0	0	513	582	108	0	
6	0	0	0	0	454	721	112	0	
7	0	0	0	0	404	791	121	0	
8	0	0	0	0	497	510	122	0	
9	0	0	0	0	613	388	124	0	
10	0	0	0	0	629	379	124	0	
11	0	0	0	0	593	391	130	0	
12	0	0	0	0	515	457	134	0	
13	0	0	0	0	487	553	137	0	
14	0	0	0	0	485	594	147	0	
15	0	0	0	0	499	511	154	0	
0	0	0	0	0	488	602	159	0	
1	0	0	0	0	478	592	163	0	
2	0	0	0	0	541	383	166	0	
3	0	0	0	0	535	442	168	0	
4	0	0	0	0	495	495	172	0	
5	0	0	0	0	466	519	172	0	
6	0	0	0	0	445	557	172	0	
7	0	0	0	0	422	621	176	0	
8	0	0	0	0	435	665	177	0	
9	0	0	0	0	505	530	182	0	
10	0	0	0	0	544	480	183	0	
11	0	0	0	0	562	437	187	0	
12	0	0	0	0	575	443	192	0	
13	0	0	0	0	503	544	198	0	
14	0	0	0	0	513	580	207	0	
15	0	0	0	0	620	478	213	0	
0	0	0	0	0	590	482	221	0	
1	0	0	0	0	512	469	220	0	
2	0	0	0	0	523	421	232	0	
3	0	0	0	0	501	410	240	0	
4	0	0	0	0	449	437	245	0	
5	0	0	0	0	429	539	251	0	
6	0	0	0	0	432	572	255	0	
7	0	0	0	0	429	541	262	0	
8	0	0	0	0	460	575	269	0	
9	0	0	0	0	546	646	276	0	
10	0	0	0	0	570	545	280	0	
11	0	0	0	0	532	415	281	0	
12	0	0	0	0	551	415	291	0	
13	0	0	0	0	571	406	293	0	
14	0	0	0	0	533	425	298	0	
15	0	0	0	0	472	487	308	0	
0	0	0	0	0	460	512	315	0	
1	0	0	0	0	454	558	318	0	
2	0	0	0	0	468	613	321	0	
3	0	0	0	0	510	552	323	0	
4	0	0	0	0	530	495	323	0	
5	0	0	0	0	461	496	325	0	
6	0	0	0	0	493	519	328	0	
7	0	0	0	0	611	547	331	0	
8	0	0	0	0	618	519	333	0	
9	0	0	0	0	589	603	334	0	
10	0	0	0	0	565	654	338	0	
11	0	0	0	0	511	572	341	0	
12	0	0	0	0	447	562	345	0	
13	0	0	0	0	470	495	347	0	
14	0	0	0	0	556	353	350	0	
15	0	0	0	0	564	296	358	0	
0	0	0	0	0	524	285	357	0	
1	0	0	0	0	563	353	359	0	
2	0	0	0	0	508	481	361	0	
3	0	0	0	0	557	603	362	0	
4	0	0	0	0	478	603	362	0	
5	0	0	0	0	491	534	363	0	
6	0	0	0	0	513	533	365	0	
7	0	0	0	0	445	521	368	0	
8	0	0	0	0	454	556	370	0	
9	0	0	0	0	528	563	371	0	
10	0	0	0	0	556	539	372	0	
11	0	0	0	0	439	530	371	0	
12	0	0	0	0	436	509	372	0	
13	0	0	0	0	454	514	372	0	
14	0	0	0	0	413	520	372	0	
15	0	0	0	0	464	520	375	0	
0	0	0	0	0	561	511	377	0	
1	0	0	0	0	682	487	379	0	
2	0	0	0	0	666	499	379	0	
3	0	0	0	0	583	522	380	0	
4	0	0	0	0	508	530	381	0	
5	0	0	0	0	478	543	380	0	
6	0	0	0	0	489	527	382	0	
7	0	0	0	0	460	520	381	0	
8	0	0	0	0	420	526	383	6	
9	0	0	0	0	372	479	383	19	
10	0	0	0	0	402	450	384	19	
11	0	0	0	0	470	431	386	23	
12	0	0	0	0	598	442	386	28	
13	0	0	0	0	682	540	386	51	
14	0	0	0	0	666	558	387	54	
15	0	0	0	0	614	583	388	52	
0	0	0	0	0	482	563	387	51	
1	0	0	0	0	349	526	387	52	
2	0	0	0	0	383	616	390	55	
3	0	0	0	0	432	585	391	52	
4	0	0	0	0	489	479	393	55	
5	0	0	0	0	542	316	391	56	
6	0	0	0	0	611	362	392	60	
7	0	0	0	0	605	466	393	59	
8	0	0	0	0	577	388	393	63	
9	0	0	0	0	518	438	395	66	
10	0	0	0	0	472	509	395	64	
11	0	0	0	0	439	553	398	66	
12	0	0	0	0	435	553	398	67	
13	0	0	0	0	457	554	400	62	
14	0	0	0	0	478	586	402	66	
15	0	0	0	0	519	625	403	72	
0	0	0	0	0	595	577	404	78	
1	0	0	0	0	650	499	405	82	
2	0	0	0	0	740	643	410	89	
3	0	0	0	0	663	713	413	89	
4	0	0	0	0	504	535	414	92	
5	0	0	0	0	416	322	415	97	
6	0	0	0	0	392	191	419	94	
7	0	0	0	0	365	333	422	97	
8	0	0	0	0	471	515	422	100	
9	0	0	0	0	526	629	424	101	
10	0	0	0	0	474	590	426	102	
11	0	0	0	0	445	610	429	108	
12	0	0	0	0	499	590	430	119	
13	0	0	0	0	577	496	433	129	
14	0	0	0	0	499	403	435	129	
15	0	0	0	0	461	481	438	137	
0	0	0	0	0	506	470	438	140	
1	0	0	0	0	525	471	441	141	
2	0	0	0	0	522	484	441	140	
3	0	0	0	0	530	518	445	146	
4	0	0	0	0	528	526	446	162	
5	0	0	0	0	496	490	447	172	
6	0	0	0	0	485	508	450	167	
7	0	0	0	0	564	546	452	173	
8	0	0	0	0	655	530	454	179	
9	0	0	0	0	653	536	455	186	
10	0	0	0	0	561	453	455	200	
11	0	0	0	0	451	499	455	200	
12	0	0	0	0	318	471	455	206	
13	0	0	0	0	312	442	461	210	
14	0	0	0	0	422	498	464	206	
15	0	0	0	0	506	497	465	209	
0	0	0	0	0	542	496	467	211	
1	0	0	0	0	548	581	470	207	
2	0	0	0	0	557	548	474	224	
3	0	0	0	0	547	507	475	231	
4	0	0	0	0	537	536	475	264	
5	0	0	0	0	526	631	480	258	
6	0	0	0	0	528	607	486	262	
7	0	0	0	0	600	525	486	272	
8	0	0	0	0	592	430	485	280	
9	0	0	0	0	500	413	485	282	
10	0	0	0	0	400	427	488	287	
11	0	0	0	0	350	480	491	291	
12	0	0	0	0	399	498	493	293	
13	0	0	0	0	467	520	494	295	
14	0	0	0	0	498	554	496	301	
15	0	0	0	0	541	547	496	306	
0	0	0	0	0	634	513	495	312	
1	0	0	0	0	635	477	496	315	
2	0	0	0	0	577	507	496	315	
3	0	0	0	0	583	511	496	318	
4	0	0	0	0	522	496	496	321	
5	0	0	0	0	515	513	496	324	
6	0	0	0	0	517	514	495	326	
7	0	0	0	0	488	514	494	328	
8	0	0	0	0	465	547	494	329	
9	0	0	0	0	476	559	492	328	
10	0	0	0	0	433	567	490	332	
11	0	0	0	0	496	524	486	334	
12	0	0	0	0	540	506	483	334	
13	0	0	0	0	503	528	482	334	
14	0	0	0	0	496	501	479	337	
15	0	0	0	0	519	460	475	336	
0	0	0	0	0	532	551	475	335	
1	0	0	0	0	523	610	475	336	
2	0	0	0	0	430	515	473	334	
3	0	0	0	0	460	272	472	336	
4	0	0	0	0	604	305	472	337	
5	0	0	0	0	606	373	471	339	
6	0	0	0	0	582	547	472	343	
7	0	0	0	0	562	591	472	348	
8	0	0	0	0	537	549	472	350	
9	0	0	0	0	538	596	472	348	
10	0	0	0	0	496	630	473	349	
11	0	0	0	0	409	544	473	348	
12	0	0	0	0	437	545	474	347	
13	0	0	0	0	461	550	474	350	
14	0	0	0	0	472	529	473	350	
15	0	0	0	0	554	558	473	352	
0	0	0	0	0	660	405	473	351	
1	0	0	0	0	635	356	473	350	
2	0	0	0	0	572	339	474	355	
3	0	0	0	0	498	408	473	358	
4	0	0	0	0	367	492	473	357	
5	0	0	0	0	327	583	473	357	
6	0	0	0	0	410	639	473	358	
7	0	0	0	0	469	596	474	359	
8	0	0	0	0	506	549	475	360	
9	0	0	0	0	560	540	475	356	
10	0	0	0	0	582	511	475	357	
11	0	0	0	0	539	511	476	355	
12	0	0	0	0	508	521	477	354	
13	0	0	0	0	527	575	479	356	
14	0	0	0	0	537	537	479	355	
15	0	0	0	0	630	465	481	355	
0	0	0	0	0	643	460	482	357	
1	0	0	0	0	524	475	482	358	
2	0	0	0	0	384	505	483	357	
3	0	0	0	0	360	487	484	357	
4	0	0	0	0	401	503	484	355	
5	0	0	0	0	508	490	484	356	
6	0	0	0	0	541	523	485	358	
7	0	0	0	0	499	516	486	357	
8	0	0	0	0	482	541	486	358	
9	0	0	0	0	540	534	486	360	
10	0	0	0	0	528	551	489	358	
11	0	0	0	0	516	547	490	357	
12	0	0	0	0	508	504	490	357	
13	0	0	0	0	557	574	490	358	
14	0	0	0	0	592	569	491	359	
15	0	0	0	0	556	448	491	360	
0	0	0	0	0	540	373	491	359	
1	0	0	0	0	462	395	491	356	
2	0	0	0	0	434	437	492	360	
3	0	0	0	0	433	477	492	359	
4	0	0	0	0	503	566	492	359	
5	0	0	0	0	522	749	492	360	
6	0	0	0	0	550	782	492	358	
7	0	0	0	0	514	508	492	359	
8	0	0	0	0	558	248	492	358	
9	0	0	0	0	568	127	491	356	
10	0	0	0	0	549	340	491	355	
11	0	0	0	0	560	513	492	356	
12	0	0	0	0	594	627	491	358	
13	0	0	0	0	475	614	491	348	
14	0	0	0	0	432	549	492	349	
15	0	0	0	0	464	534	492	353	
0	0	0	0	0	455	527	493	354	
1	0	0	0	0	529	572	494	355	
2	0	0	0	0	509	504	494	355	
3	0	0	0	0	530	461	494	357	
4	0	0	0	0	560	479	495	358	
5	0	0	0	0	556	523	495	357	
6	0	0	0	0	551	511	495	359	
7	0	0	0	0	483	608	495	361	
8	0	0	0	0	423	619	496	364	
9	0	0	0	0	450	560	497	364	
10	0	0	0	0	491	482	496	362	
11	0	0	0	0	518	495	497	367	
12	0	0	0	0	505	464	499	366	
13	0	0	0	0	488	455	499	368	
14	0	0	0	0	483	460	499	368	
15	0	0	0	0	505	480	499	368	
0	0	0	0	0	514	514	499	370	
1	0	0	0	0	502	525	499	370	
2	0	0	0	0	464	522	499	371	
3	0	0	0	0	487	519	499	370	
4	0	0	0	0	498	522	499	370	
5	0	0	0	0	504	535	499	371	
6	0	0	0	0	615	487	499	370	
7	0	0	0	0	676	483	499	369	
8	0	0	0	0	617	594	499	367	
9	0	0	0	0	539	587	498	368	
10	0	0	0	0	474	541	498	368	
11	0	0	0	0	473	541	498	368	
12	0	0	0	0	498	477	498	368	
13	0	0	0	0	438	409	498	369	
14	0	0	0	0	492	384	498	368	
15	0	0	0	0	497	403	498	369	
0	0	0	0	0	510	502	497	371	
1	0	0	0	0	570	544	497	370	
2	0	0	0	0	489	572	497	370	
3	0	0	0	0	528	582	496	369	
4	0	0	0	0	478	529	496	368	
5	0	0	0	0	450	565	496	368	
6	0	0	0	0	414	565	496	367	
7	0	0	0	0	489	502	495	367	
8	0	0	0	0	589	442	496	366	
9	0	0	0	0	564	444	496	367	
10	0	0	0	0	507	444	495	366	
11	0	0	0	0	538	468	495	364	
12	0	0	0	0	488	477	494	364	
13	0	0	0	0	437	599	494	363	
14	0	0	0	0	523	597	495	361	
15	0	0	0	0	569	586	495	360	
0	0	0	0	0	545	557	495	360	
1	0	0	0	0	527	472	495	356	
2	0	0	0	0	486	408	494	355	
3	0	0	0	0	513	376	494	354	
4	0	0	0	0	554	508	493	354	
5	0	0	0	0	566	517	493	354	
6	0	0	0	0	517	496	493	353	
7	0	0	0	0	518	487	492	354	
8	0	0	0	0	477	560	492	354	
9	0	0	0	0	487	577	491	352	
10	0	0	0	0	515	496	492	352	
11	0	0	0	0	505	462	492	352	
12	0	0	0	0	499	509	491	352	
13	0	0	0	0	502	560	491	352	
14	0	0	0	0	516	530	490	351	
15	0	0	0	0	544	518	490	353	
0	0	0	0	0	521	565	489	353	
1	0	0	0	0	483	593	490	353	
2	0	0	0	0	475	548	489	353	
3	0	0	0	0	480	497	489	353	
4	0	0	0	0	514	424	488	353	
5	0	0	0	0	499	404	487	353	
6	0	0	0	0	519	404	487	353	
7	0	0	0	0	528	464	487	352	
8	0	0	0	0	447	540	487	351	
9	0	0	0	0	455	561	487	352	
10	0	0	0	0	564	529	486	352	
11	0	0	0	0	559	491	487	352	
12	0	0	0	0	525	535	487	352	
13	0	0	0	0	508	511	486	354	
14	0	0	0	0	499	508	486	352	
15	0	0	0	0	452	524	484	353	
0	0	0	0	0	484	554	485	354	
1	0	0	0	0	527	549	485	352	
2	0	0	0	0	509	563	485	352	
3	0	0	0	0	511	527	485	352	
4	0	0	0	0	568	498	485	352	
5	0	0	0	0	508	458	483	351	
6	0	0	0	0	487	473	484	349	
7	0	0	0	0	520	477	484	349	
8	0	0	0	0	511	460	483	350	
9	0	0	0	0	540	489	483	349	
10	0	0	0	0	558	508	482	350	
11	0	0	0	0	548	581	481	351	
12	0	0	0	0	504	593	481	352	
13	0	0	0	0	556	538	480	346	
14	0	0	0	0	507	433	480	345	
15	0	0	0	0	494	415	479	346	
0	0	0	0	0	518	407	479	345	
1	0	0	0	0	498	419	478	348	
2	0	0	0	0	507	570	477	348	
3	0	0	0	0	516	629	475	348	
4	0	0	0	0	495	579	474	347	
5	0	0	0	0	463	500	473	348	
6	0	0	0	0	505	504	471	348	
7	0	0	0	0	512	481	470	348	
8	0	0	0	0	493	438	469	347	
9	0	0	0	0	468	484	468	347	
10	0	0	0	0	455	584	468	346	
11	0	0	0	0	492	607	466	345	
12	0	0	0	0	511	537	467	345	
13	0	0	0	0	545	477	465	345	
14	0	0	0	0	567	490	465	344	
15	0	0	0	0	563	437	464	342	
0	0	0	0	0	538	428	463	341	
1	0	0	0	0	525	487	463	341	
2	0	0	0	0	511	537	462	339	
3	0	0	0	0	471	543	461	338	
4	0	0	0	0	500	573	461	336	
5	0	0	0	0	498	618	460	335	
6	0	0	0	0	568	540	458	333	
7	0	0	0	0	577	453	458	331	
8	0	0	0	0	482	407	457	328	
9	0	0	0	0	422	449	457	314	
10	0	0	0	0	470	514	456	312	
11	0	0	0	0	552	512	457	310	
12	0	0	0	0	611	515	457	302	
13	0	0	0	0	544	531	457	300	
14	0	0	0	0	463	520	456	297	
15	0	0	0	0	457	529	455	296	
0	0	0	0	0	490	526	456	296	
1	0	0	0	0	523	528	456	295	
2	0	0	0	0	507	507	456	293	
3	0	0	0	0	515	479	455	292	
4	0	0	0	0	513	512	454	291	
5	0	0	0	0	496	542	455	289	
6	0	0	0	0	521	562	454	289	
7	0	0	0	0	505	521	453	288	
8	0	0	0	0	534	460	452	288	
9	0	0	0	0	558	474	451	287	
10	0	0	0	0	521	455	449	287	
11	0	0	0	0	486	493	449	287	
12	0	0	0	0	472	478	449	287	
13	0	0	0	0	467	471	449	287	
14	0	0	0	0	473	485	448	286	
15	0	0	0	0	491	556	448	286	
0	0	0	0	0	494	555	448	286	
1	0	0	0	0	534	518	448	285	
2	0	0	0	0	525	496	448	284	
3	0	0	0	0	554	510	448	284	
4	0	0	0	0	594	531	448	285	
5	0	0	0	0	503	522	447	284	
6	0	0	0	0	520	527	447	283	
7	0	0	0	0	545	603	445	280	
8	0	0	0	0	521	622	444	277	
9	0	0	0	0	495	523	444	276	
10	0	0	0	0	457	426	444	270	
11	0	0	0	0	435	418	444	264	
12	0	0	0	0	486	422	443	262	
13	0	0	0	0	527	456	442	260	
14	0	0	0	0	518	529	441	259	
15	0	0	0	0	586	510	440	256	
0	0	0	0	0	608	498	441	255	
1	0	0	0	0	556	533	438	250	
2	0	0	0	0	488	537	439	248	
3	0	0	0	0	400	526	438	248	
4	0	0	0	0	431	501	437	248	
5	0	0	0	0	484	459	437	250	
6	0	0	0	0	547	513	436	247	
7	0	0	0	0	551	545	436	248	
8	0	0	0	0	520	573	435	247	
9	0	0	0	0	508	554	434	246	
10	0	0	0	0	512	508	432	245	
11	0	0	0	0	492	504	432	244	
12	0	0	0	0	495	480	432	244	
13	0	0	0	0	525	473	432	241	
14	0	0	0	0	557	452	433	241	
15	0	0	0	0	544	418	433	241	
0	0	0	0	0	495	510	432	244	
1	0	0	0	0	479	527	432	245	
2	0	0	0	0	488	547	432	243	
3	0	0	0	0	505	535	432	244	
4	0	0	0	0	535	548	432	244	
5	0	0	0	0	528	529	433	244	
6	0	0	0	0	486	493	432	243	
7	0	0	0	0	488	482	433	244	
8	0	0	0	0	507	518	433	244	
9	0	0	0	0	455	563	433	244	
10	0	0	0	0	492	512	433	245	
11	0	0	0	0	528	483	433	244	
12	0	0	0	0	532	472	434	244	
13	0	0	0	0	554	481	433	244	
14	0	0	0	0	540	492	433	242	
15	0	0	0	0	527	519	433	243	
0	0	0	0	0	499	538	433	244	
1	0	0	0	0	494	545	433	244	
2	0	0	0	0	518	508	432	245	
3	0	0	0	0	505	520	433	248	
4	0	0	0	0	481	524	433	248	
5	0	0	0	0	492	510	432	248	
6	0	0	0	0	499	496	432	249	
7	0	0	0	0	506	487	431	249	
8	0	0	0	0	505	493	431	249	
9	0	0	0	0	541	509	430	249	
10	0	0	0	0	550	509	430	249	
11	0	0	0	0	581	491	430	249	
12	0	0	0	0	544	535	429	249	
13	0	0	0	0	499	524	428	249	
14	0	0	0	0	474	510	428	250	
15	0	0	0	0	454	490	426	250	
0	0	0	0	0	493	505	426	251	
1	0	0	0	0	517	517	426	250	
2	0	0	0	0	513	506	425	250	
3	0	0	0	0	509	508	424	249	
4	0	0	0	0	517	490	422	248	
5	0	0	0	0	518	471	422	248	
6	0	0	0	0	517	471	422	246	
7	0	0	0	0	489	542	420	248	
8	0	0	0	0	488	553	420	246	
9	0	0	0	0	536	509	420	247	
10	0	0	0	0	520	527	420	248	
11	0	0	0	0	545	531	419	248	
12	0	0	0	0	510	526	419	248	
13	0	0	0	0	527	504	418	249	
14	0	0	0	0	528	498	417	247	
15	0	0	0	0	550	503	418	248	
0	0	0	0	0	543	471	417	249	
1	0	0	0	0	506	468	417	249	
2	0	0	0	0	466	502	417	249	
3	0	0	0	0	464	529	416	249	
4	0	0	0	0	473	530	417	249	
5	0	0	0	0	482	533	417	248	
6	0	0	0	0	452	532	417	248	
7	0	0	0	0	470	523	417	249	
8	0	0	0	0	559	494	416	248	
9	0	0	0	0	534	492	416	249	
10	0	0	0	0	561	489	417	249	
11	0	0	0	0	587	494	417	250	
12	0	0	0	0	566	505	416	251	
13	0	0	0	0	577	504	414	252	
14	0	0	0	0	476	514	414	252	
15	0	0	0	0	468	518	415	254	
0	0	0	0	0	495	559	413	252	
1	0	0	0	0	509	573	413	252	
2	0	0	0	0	499	511	412	253	
3	0	0	0	0	510	472	413	252	
4	0	0	0	0	485	482	412	251	
5	0	0	0	0	467	440	411	251	
6	0	0	0	0	451	498	411	250	
7	0	0	0	0	496	521	411	249	
8	0	0	0	0	531	507	411	249	
9	0	0	0	0	537	493	411	249	
10	0	0	0	0	540	507	412	245	
11	0	0	0	0	524	512	411	245	
12	0	0	0	0	475	538	410	245	
13	0	0	0	0	507	540	410	244	
14	0	0	0	0	536	536	411	244	
15	0	0	0	0	564	569	411	243	
0	0	0	0	0	534	530	410	241	
1	0	0	0	0	502	472	410	240	
2	0	0	0	0	480	450	410	239	
3	0	0	0	0	451	476	410	239	
4	0	0	0	0	469	505	409	239	
5	0	0	0	0	507	543	409	236	
6	0	0	0	0	554	522	409	236	
7	0	0	0	0	551	477	409	236	
8	0	0	0	0	525	494	409	233	
9	0	0	0	0	542	457	408	234	
10	0	0	0	0	555	448	409	228	
11	0	0	0	0	502	491	409	223	
12	0	0	0	0	501	516	409	219	
13	0	0	0	0	497	537	408	212	
14	0	0	0	0	501	537	408	209	
15	0	0	0	0	494	529	408	208	
0	0	0	0	0	484	529	408	207	
1	0	0	0	0	512	555	408	207	
2	0	0	0	0	526	529	407	207	
3	0	0	0	0	496	524	407	207	
4	0	0	0	0	496	509	407	208	
5	0	0	0	0	524	487	407	208	
6	0	0	0	0	522	474	407	208	
7	0	0	0	0	509	478	408	210	
8	0	0	0	0	506	501	408	209	
9	0	0	0	0	498	518	407	210	
10	0	0	0	0	511	542	407	210	
11	0	0	0	0	500	534	407	217	
12	0	0	0	0	515	521	407	212	
13	0	0	0	0	545	500	405	211	
14	0	0	0	0	515	502	406	207	
15	0	0	0	0	481	511	405	206	
0	0	0	0	0	509	516	405	206	
1	0	0	0	0	481	518	405	206	
2	0	0	0	0	512	530	404	203	
3	0	0	0	0	531	505	405	203	
4	0	0	0	0	518	493	404	201	
5	0	0	0	0	516	476	403	201	
6	0	0	0	0	579	492	405	202	
7	0	0	0	0	567	509	405	199	
8	0	0	0	0	553	511	403	200	
9	0	0	0	0	559	503	402	202	
10	0	0	0	0	459	496	403	200	
11	0	0	0	0	392	481	402	200	
12	0	0	0	0	445	488	403	200	
13	0	0	0	0	485	508	404	200	
14	0	0	0	0	467	529	402	201	
15	0	0	0	0	511	535	402	199	
0	0	0	0	0	557	546	403	199	
1	0	0	0	0	563	547	399	199	
2	0	0	0	0	565	542	400	199	
3	0	0	0	0	538	531	400	198	
4	0	0	0	0	531	508	401	195	
5	0	0	0	0	549	467	401	193	
6	0	0	0	0	525	444	401	192	
7	0	0	0	0	505	472	402	193	
8	0	0	0	0	458	506	402	191	
9	0	0	0	0	467	504	401	192	
10	0	0	0	0	452	498	401	192	
11	0	0	0	0	450	499	401	195	
12	0	0	0	0	527	526	402	195	
13	0	0	0	0	542	523	400	192	
14	0	0	0	0	529	514	401	192	
15	0	0	0	0	530	511	399	188	
0	0	0	0	0	524	509	399	191	
1	0	0	0	0	495	533	398	186	
2	0	0	0	0	501	545	396	186	
3	0	0	0	0	526	529	396	186	
4	0	0	0	0	508	515	397	187	
5	0	0	0	0	538	515	396	186	
6	0	0	0	0	552	510	396	186	
7	0	0	0	0	551	506	396	187	
8	0	0	0	0	553	453	397	187	
9	0	0	0	0	516	408	397	187	
10	0	0	0	0	434	504	396	187	
11	0	0	0	0	485	543	395	188	
12	0	0	0	0	439	532	395	188	
13	0	0	0	0	488	511	394	188	
14	0	0	0	0	515	513	394	188	
15	0	0	0	0	526	512	393	187	
0	0	0	0	0	524	511	392	186	
1	0	0	0	0	505	511	392	186	
2	0	0	0	0	499	514	392	185	
3	0	0	0	0	515	525	391	185	
4	0	0	0	0	533	524	390	185	
5	0	0	0	0	536	526	390	185	
6	0	0	0	0	528	514	388	184	
7	0	0	0	0	487	511	385	182	
8	0	0	0	0	525	502	385	177	
9	0	0	0	0	552	486	383	176	
10	0	0	0	0	549	494	383	176	
11	0	0	0	0	514	521	384	176	
12	0	0	0	0	482	522	383	175	
13	0	0	0	0	454	515	382	173	
14	0	0	0	0	436	503	382	172	
15	0	0	0	0	476	484	383	172	
0	0	0	0	0	529	485	383	172	
1	0	0	0	0	545	464	383	171	
2	0	0	0	0	532	492	382	172	
3	0	0	0	0	510	536	381	173	
4	0	0	0	0	472	541	382	174	
5	0	0	0	0	515	539	382	174	
6	0	0	0	0	561	534	382	174	
7	0	0	0	0	557	530	381	175	
8	0	0	0	0	526	504	381	174	
9	0	0	0	0	487	485	380	175	
10	0	0	0	0	480	470	377	175	
11	0	0	0	0	519	492	378	174	
12	0	0	0	0	510	501	377	176	
13	0	0	0	0	516	491	377	175	
14	0	0	0	0	554	500	375	175	
15	0	0	0	0	553	521	372	175	
0	0	0	0	0	536	503	369	174	
1	0	0	0	0	527	501	368	174	
2	0	0	0	0	467	527	366	173	
3	0	0	0	0	425	545	368	173	
4	0	0	0	0	500	555	367	174	
5	0	0	0	0	545	519	366	172	
6	0	0	0	0	560	496	364	172	
7	0	0	0	0	529	494	365	173	
8	0	0	0	0	467	510	365	173	
9	0	0	0	0	462	568	366	171	
10	0	0	0	0	475	502	366	171	
11	0	0	0	0	506	464	366	170	
12	0	0	0	0	529	462	367	171	
13	0	0	0	0	519	464	366	170	
14	0	0	0	0	510	497	367	169	
15	0	0	0	0	521	528	368	171	
0	0	0	0	0	526	526	367	170	
1	0	0	0	0	519	530	366	171	
2	0	0	0	0	488	536	365	170	
3	0	0	0	0	482	580	365	168	
4	0	0	0	0	492	545	366	169	
5	0	0	0	0	507	483	366	169	
6	0	0	0	0	553	442	365	167	
7	0	0	0	0	532	460	365	168	
8	0	0	0	0	521	461	365	167	
9	0	0	0	0	520	468	365	168	
10	0	0	0	0	503	513	365	168	
11	0	0	0	0	511	520	365	168	
12	0	0	0	0	510	521	365	167	
13	0	0	0	0	485	535	365	167	
14	0	0	0	0	490	547	365	165	
15	0	0	0	0	491	529	365	166	
0	0	0	0	0	515	501	366	166	
1	0	0	0	0	540	487	365	166	
2	0	0	0	0	561	473	366	166	
3	0	0	0	0	552	492	366	165	
4	0	0	0	0	540	545	365	165	
5	0	0	0	0	531	538	367	164	
6	0	0	0	0	547	510	366	164	
7	0	0	0	0	517	520	367	163	
8	0	0	0	0	499	514	367	163	
9	0	0	0	0	428	535	368	163	
10	0	0	0	0	479	530	368	161	
11	0	0	0	0	469	501	369	161	
12	0	0	0	0	477	501	367	162	
13	0	0	0	0	489	487	367	161	
14	0	0	0	0	496	496	367	160	
15	0	0	0	0	530	489	365	160	
0	0	0	0	0	579	484	364	160	
1	0	0	0	0	566	501	360	160	
2	0	0	0	0	542	523	358	161	
3	0	0	0	0	518	522	358	161	
4	0	0	0	0	484	538	358	160	
5	0	0	0	0	449	534	356	159	
6	0	0	0	0	484	501	354	159	
7	0	0	0	0	534	496	354	159	
8	0	0	0	0	499	491	350	159	
9	0	0	0	0	511	486	350	160	
10	0	0	0	0	519	500	350	160	
11	0	0	0	0	539	501	347	160	
12	0	0	0	0	538	512	344	160	
13	0	0	0	0	503	524	345	159	
14	0	0	0	0	520	533	344	159	
15	0	0	0	0	529	530	340	159	
0	0	0	0	0	492	547	341	160	
1	0	0	0	0	498	536	343	160	
2	0	0	0	0	528	515	342	159	
3	0	0	0	0	503	444	340	158	
4	0	0	0	0	521	427	342	158	
5	0	0	0	0	504	450	341	156	
6	0	0	0	0	494	505	340	158	
7	0	0	0	0	495	517	341	157	
8	0	0	0	0	501	534	342	156	
9	0	0	0	0	491	549	341	155	
10	0	0	0	0	493	541	342	155	
11	0	0	0	0	515	527	343	155	
12	0	0	0	0	504	516	341	155	
13	0	0	0	0	532	526	342	153	
14	0	0	0	0	564	514	342	152	
15	0	0	0	0	568	516	343	152	
0	0	0	0	0	531	518	344	152	
1	0	0	0	0	534	511	343	152	
2	0	0	0	0	500	472	343	153	
3	0	0	0	0	448	511	344	151	
4	0	0	0	0	469	509	344	152	
5	0	0	0	0	476	439	344	152	
6	0	0	0	0	452	455	344	151	
7	0	0	0	0	501	501	344	148	
8	0	0	0	0	511	520	344	147	
9	0	0	0	0	526	523	343	145	
10	0	0	0	0	527	518	344	145	
11	0	0	0	0	533	523	343	145	
12	0	0	0	0	549	519	344	144	
13	0	0	0	0	526	504	343	143	
14	0	0	0	0	519	489	343	143	
15	0	0	0	0	507	529	343	144	
0	0	0	0	0	491	537	345	144	
1	0	0	0	0	511	525	345	144	
2	0	0	0	0	525	521	344	144	
3	0	0	0	0	495	522	342	145	
4	0	0	0	0	461	514	343	145	
5	0	0	0	0	500	501	344	145	
6	0	0	0	0	492	497	343	144	
7	0	0	0	0	519	485	342	143	
8	0	0	0	0	542	501	342	143	
9	0	0	0	0	537	525	341	143	
10	0	0	0	0	524	516	341	142	
11	0	0	0	0	515	513	340	141	
12	0	0	0	0	528	500	341	143	
13	0	0	0	0	530	501	340	143	
14	0	0	0	0	554	504	338	144	
15	0	0	0	0	522	511	338	143	
0	0	0	0	0	483	506	339	142	
1	0	0	0	0	476	508	339	143	
2	0	0	0	0	482	518	340	143	
3	0	0	0	0	513	508	339	143	
4	0	0	0	0	541	510	339	143	
5	0	0	0	0	545	525	339	140	
6	0	0	0	0	551	516	339	141	
7	0	0	0	0	524	519	336	138	
8	0	0	0	0	504	515	336	140	
9	0	0	0	0	477	537	335	137	
10	0	0	0	0	444	516	335	137	
11	0	0	0	0	454	475	336	137	
12	0	0	0	0	493	472	337	132	
13	0	0	0	0	473	486	335	137	
14	0	0	0	0	546	467	334	136	
15	0	0	0	0	583	467	332	139	
0	0	0	0	0	508	508	332	137	
1	0	0	0	0	508	542	333	138	
2	0	0	0	0	520	543	332	138	
3	0	0	0	0	519	539	333	136	
4	0	0	0	0	554	520	333	136	
5	0	0	0	0	563	526	334	135	
6	0	0	0	0	485	509	332	135	
7	0	0	0	0	490	480	332	135	
8	0	0	0	0	495	464	332	133	
9	0	0	0	0	505	512	332	134	
10	0	0	0	0	526	546	332	133	
11	0	0	0	0	521	544	331	133	
12	0	0	0	0	537	524	331	134	
13	0	0	0	0	533	503	331	134	
14	0	0	0	0	548	494	330	133	
15	0	0	0	0	524	515	332	134	
0	0	0	0	0	475	508	329	131	
1	0	0	0	0	460	481	331	134	
2	0	0	0	0	469	495	328	133	
3	0	0	0	0	450	500	329	132	
4	0	0	0	0	478	496	329	132	
5	0	0	0	0	497	505	328	132	
6	0	0	0	0	510	508	329	132	
7	0	0	0	0	505	527	329	127	
8	0	0	0	0	529	521	329	132	
9	0	0	0	0	546	505	329	132	
10	0	0	0	0	534	508	330	133	
11	0	0	0	0	529	507	331	132	
12	0	0	0	0	509	516	331	132	
13	0	0	0	0	520	518	331	131	
14	0	0	0	0	521	509	329	131	
15	0	0	0	0	520	497	331	133	
0	0	0	0	0	512	501	331	133	
1	0	0	0	0	515	511	330	133	
2	0	0	0	0	511	516	329	132	
3	0	0	0	0	501	529	330	132	
4	0	0	0	0	469	512	329	133	
5	0	0	0	0	500	506	330	134	
6	0	0	0	0	492	517	330	134	
7	0	0	0	0	483	512	330	132	
8	0	0	0	0	543	499	330	131	
9	0	0	0	0	546	489	330	132	
10	0	0	0	0	521	515	330	132	
11	0	0	0	0	501	516	328	131	
12	0	0	0	0	521	519	329	126	
13	0	0	0	0	517	491	327	127	
14	0	0	0	0	528	504	329	128	
15	0	0	0	0	526	500	330	126	
0	0	0	0	0	527	504	329	127	
1	0	0	0	0	529	508	329	124	
2	0	0	0	0	519	534	329	129	
3	0	0	0	0	496	570	328	115	
4	0	0	0	0	497	543	327	116	
5	0	0	0	0	521	510	327	114	
6	0	0	0	0	523	458	327	113	
7	0	0	0	0	502	423	327	111	
8	0	0	0	0	499	459	327	113	
9	0	0	0	0	499	492	328	110	
10	0	0	0	0	486	512	327	107	
11	0	0	0	0	502	509	327	106	
12	0	0	0	0	519	523	326	105	
13	0	0	0	0	517	545	326	104	
14	0	0	0	0	505	529	325	103	
15	0	0	0	0	488	524	326	105	
0	0	0	0	0	534	517	324	102	
1	0	0	0	0	545	507	323	104	
2	0	0	0	0	545	525	322	104	
3	0	0	0	0	518	533	320	105	
4	0	0	0	0	496	515	319	104	
5	0	0	0	0	495	497	318	104	
6	0	0	0	0	478	501	318	102	
7	0	0	0	0	503	497	317	101	
8	0	0	0	0	509	489	317	102	
9	0	0	0	0	521	496	317	100	
10	0	0	0	0	536	510	317	96	
11	0	0	0	0	519	522	318	96	
12	0	0	0	0	516	527	315	92	
13	0	0	0	0	503	507	315	88	
14	0	0	0	0	478	496	316	86	
15	0	0	0	0	490	505	316	86	
0	0	0	0	0	510	504	315	85	
1	0	0	0	0	509	502	315	86	
2	0	0	0	0	520	520	316	87	
3	0	0	0	0	501	518	314	88	
4	0	0	0	0	492	513	314	86	
5	0	0	0	0	499	494	313	88	
6	0	0	0	0	519	503	313	88	
7	0	0	0	0	529	504	313	88	
8	0	0	0	0	513	507	313	88	
9	0	0	0	0	525	506	313	89	
10	0	0	0	0	528	493	314	89	
11	0	0	0	0	543	509	314	89	
12	0	0	0	0	513	516	315	90	
13	0	0	0	0	473	512	315	89	
14	0	0	0	0	476	529	315	89	
15	0	0	0	0	466	526	315	89	
0	0	0	0	0	506	511	315	88	
1	0	0	0	0	587	509	316	88	
2	0	0	0	0	583	510	316	88	
3	0	0	0	0	545	483	315	87	
4	0	0	0	0	519	499	316	88	
5	0	0	0	0	502	499	315	87	
6	0	0	0	0	501	500	315	86	
7	0	0	0	0	517	499	315	87	
8	0	0	0	0	531	509	314	86	
9	0	0	0	0	502	512	314	85	
10	0	0	0	0	474	508	314	85	
11	0	0	0	0	483	517	313	84	
12	0	0	0	0	481	521	311	84	
13	0	0	0	0	466	530	310	84	
14	0	0	0	0	488	525	310	83	
15	0	0	0	0	511	512	309	83	
0	0	0	0	0	516	513	308	83	
1	0	0	0	0	518	502	308	82	
2	0	0	0	0	521	509	308	80	
3	0	0	0	0	494	491	309	81	
4	0	0	0	0	507	488	307	79	
5	0	0	0	0	531	482	308	80	
6	0	0	0	0	531	496	307	80	
7	0	0	0	0	534	525	308	80	
8	0	0	0	0	518	550	308	80	
9	0	0	0	0	505	548	307	80	
10	0	0	0	0	507	511	307	80	
11	0	0	0	0	524	517	308	79	
12	0	0	0	0	522	494	309	80	
13	0	0	0	0	525	506	308	79	
14	0	0	0	0	507	488	308	78	
15	0	0	0	0	494	511	310	78	
0	0	0	0	0	503	516	310	77	
1	0	0	0	0	505	509	310	77	
2	0	0	0	0	512	501	310	78	
3	0	0	0	0	522	487	310	77	
4	0	0	0	0	531	478	312	76	
5	0	0	0	0	514	472	311	76	
6	0	0	0	0	495	476	310	75	
7	0	0	0	0	490	515	312	74	
8	0	0	0	0	489	526	313	74	
9	0	0	0	0	488	512	313	74	
10	0	0	0	0	519	530	313	75	
11	0	0	0	0	524	519	313	75	
12	0	0	0	0	492	531	313	74	
13	0	0	0	0	503	527	312	73	
14	0	0	0	0	518	510	312	72	
15	0	0	0	0	541	500	310	72	
0	0	0	0	0	543	510	311	72	
1	0	0	0	0	536	512	310	71	
2	0	0	0	0	524	505	311	71	
3	0	0	0	0	508	508	308	70	
4	0	0	0	0	501	511	308	70	
5	0	0	0	0	534	506	308	71	
6	0	0	0	0	527	500	308	70	
7	0	0	0	0	477	511	307	70	
8	0	0	0	0	487	543	308	71	
9	0	0	0	0	488	536	306	70	
10	0	0	0	0	489	496	308	68	
11	0	0	0	0	488	465	307	69	
12	0	0	0	0	505	477	307	68	
13	0	0	0	0	530	494	308	66	
14	0	0	0	0	527	507	308	64	
15	0	0	0	0	516	533	307	64	
0	0	0	0	0	489	529	307	64	
1	0	0	0	0	489	519	307	63	
2	0	0	0	0	501	512	307	63	
3	0	0	0	0	520	510	306	63	
4	0	0	0	0	522	507	307	63	
5	0	0	0	0	495	494	307	63	
6	0	0	0	0	523	499	307	63	
7	0	0	0	0	541	508	308	63	
8	0	0	0	0	523	510	307	63	
9	0	0	0	0	533	520	307	63	
10	0	0	0	0	562	503	307	63	
11	0	0	0	0	544	505	307	63	
12	0	0	0	0	526	519	307	63	
13	0	0	0	0	525	514	308	63	
14	0	0	0	0	461	513	307	63	
15	0	0	0	0	438	520	306	63	
0	0	0	0	0	464	527	305	63	
1	0	0	0	0	511	519	306	63	
2	0	0	0	0	559	516	305	63	
3	0	0	0	0	560	497	304	63	
4	0	0	0	0	537	481	304	63	
5	0	0	0	0	509	511	303	63	
6	0	0	0	0	499	527	302	63	
7	0	0	0	0	517	499	302	63	
8	0	0	0	0	515	472	301	63	
9	0	0	0	0	512	453	300	63	
10	0	0	0	0	502	512	300	62	
11	0	0	0	0	464	548	300	62	
12	0	0	0	0	498	527	300	63	
13	0	0	0	0	523	505	300	62	
14	0	0	0	0	517	503	300	62	
15	0	0	0	0	509	502	300	62	
0	0	0	0	0	496	516	300	62	
1	0	0	0	0	483	512	299	62	
2	0	0	0	0	470	508	300	62	
3	0	0	0	0	498	511	299	63	
4	0	0	0	0	522	520	299	62	
5	0	0	0	0	536	494	298	62	
6	0	0	0	0	540	489	298	62	
7	0	0	0	0	528	532	297	62	
8	0	0	0	0	531	520	297	62	
9	0	0	0	0	518	509	297	62	
10	0	0	0	0	489	500	296	62	
11	0	0	0	0	495	498	297	62	
12	0	0	0	0	516	506	296	62	
13	0	0	0	0	514	527	296	62	
14	0	0	0	0	523	536	295	62	
15	0	0	0	0	520	556	296	62	
0	0	0	0	0	523	524	295	62	
1	0	0	0	0	515	490	296	62	
2	0	0	0	0	507	486	296	62	
3	0	0	0	0	505	481	295	62	
4	0	0	0	0	494	487	295	62	
5	0	0	0	0	502	469	295	61	
6	0	0	0	0	523	490	295	61	
7	0	0	0	0	520	525	295	62	
8	0	0	0	0	532	534	295	61	
9	0	0	0	0	523	531	296	61	
10	0	0	0	0	481	510	296	61	
11	0	0	0	0	487	505	295	61	
12	0	0	0	0	507	511	296	61	
13	0	0	0	0	513	514	296	61	
14	0	0	0	0	508	508	296	61	
15	0	0	0	0	505	505	297	61	
0	0	0	0	0	502	508	296	61	
1	0	0	0	0	523	508	296	61	
2	0	0	0	0	534	508	296	61	
3	0	0	0	0	521	498	296	61	
4	0	0	0	0	496	534	295	61	
5	0	0	0	0	505	510	296	61	
6	0	0	0	0	491	486	296	60	
7	0	0	0	0	486	508	296	60	
8	0	0	0	0	482	529	296	60	
9	0	0	0	0	513	522	296	60	
10	0	0	0	0	541	496	297	60	
11	0	0	0	0	546	480	296	60	
12	0	0	0	0	537	468	295	60	
13	0	0	0	0	540	508	296	60	
14	0	0	0	0	526	518	296	60	
15	0	0	0	0	494	531	295	60	
0	0	0	0	0	512	524	295	60	
1	0	0	0	0	519	518	294	60	
2	0	0	0	0	523	524	294	60	
3	0	0	0	0	510	519	294	60	
4	0	0	0	0	495	511	294	60	
5	0	0	0	0	531	496	293	60	
6	0	0	0	0	532	494	292	59	
7	0	0	0	0	511	511	291	59	
8	0	0	0	0	490	510	292	59	
9	0	0	0	0	467	522	291	59	
10	0	0	0	0	441	522	292	59	
11	0	0	0	0	481	519	291	59	
12	0	0	0	0	504	503	292	58	
13	0	0	0	0	517	496	291	59	
14	0	0	0	0	512	483	290	59	
15	0	0	0	0	518	484	290	58	
0	0	0	0	0	527	499	289	58	
1	0	0	0	0	534	519	288	57	
2	0	0	0	0	524	523	288	58	
3	0	0	0	0	513	505	287	57	
4	0	0	0	0	516	507	287	57	
5	0	0	0	0	536	529	285	57	
6	0	0	0	0	556	498	286	56	
7	0	0	0	0	511	511	285	56	
8	0	0	0	0	485	538	284	55	
9	0	0	0	0	478	553	284	56	
10	0	0	0	0	491	512	282	55	
11	0	0	0	0	543	482	281	54	
12	0	0	0	0	570	481	281	55	
13	0	0	0	0	569	484	279	55	
14	0	0	0	0	543	498	277	55	
15	0	0	0	0	505	498	277	54	
0	0	0	0	0	470	529	276	55	
1	0	0	0	0	454	519	273	55	
2	0	0	0	0	464	507	273	56	
3	0	0	0	0	519	509	272	55	
4	0	0	0	0	502	491	271	55	
5	0	0	0	0	507	488	272	55	
6	0	0	0	0	519	494	271	55	
7	0	0	0	0	500	535	271	55	
8	0	0	0	0	510	540	271	55	
9	0	0	0	0	524	510	271	55	
10	0	0	0	0	511	503	270	54	
11	0	0	0	0	511	496	270	54	
12	0	0	0	0	512	511	270	54	
13	0	0	0	0	492	510	270	53	
14	0	0	0	0	500	507	270	53	
15	0	0	0	0	535	512	269	54	
0	0	0	0	0	529	530	270	53	
1	0	0	0	0	498	519	270	50	
2	0	0	0	0	492	509	270	50	
3	0	0	0	0	496	509	269	49	
4	0	0	0	0	505	488	270	48	
5	0	0	0	0	534	476	271	47	
6	0	0	0	0	552	489	270	45	
7	0	0	0	0	550	496	269	44	
8	0	0	0	0	552	513	270	43	
9	0	0	0	0	508	516	269	41	
10	0	0	0	0	469	542	269	41	
11	0	0	0	0	489	523	268	39	
12	0	0	0	0	483	511	269	37	
13	0	0	0	0	487	517	268	37	
14	0	0	0	0	513	508	268	36	
15	0	0	0	0	512	497	270	38	
0	0	0	0	0	507	505	271	36	
1	0	0	0	0	521	503	270	36	
2	0	0	0	0	529	511	268	34	
3	0	0	0	0	524	536	269	33	
4	0	0	0	0	505	551	269	34	
5	0	0	0	0	488	515	270	32	
6	0	0	0	0	501	515	269	31	
7	0	0	0	0	538	525	269	29	
8	0	0	0	0	499	511	270	27	
9	0	0	0	0	470	488	270	24	
10	0	0	0	0	488	453	271	20	
11	0	0	0	0	504	452	270	24	
12	0	0	0	0	515	467	270	29	
13	0	0	0	0	541	485	270	22	
14	0	0	0	0	536	536	271	27	
15	0	0	0	0	534	540	270	33	
0	0	0	0	0	539	506	269	36	
1	0	0	0	0	528	519	270	18	
2	0	0	0	0	493	526	270	18	
3	0	0	0	0	476	539	270	16	
4	0	0	0	0	486	522	270	18	
5	0	0	0	0	526	512	271	17	
6	0	0	0	0	531	535	270	8	
7	0	0	0	0	531	512	270	8	
8	0	0	0	0	550	494	271	8	
9	0	0	0	0	529	481	271	7	
10	0	0	0	0	497	493	270	7	
11	0	0	0	0	496	493	271	7	
12	0	0	0	0	511	491	270	7	
13	0	0	0	0	488	498	271	7	
14	0	0	0	0	485	511	271	6	
15	0	0	0	0	501	516	271	6	
0	0	0	0	0	519	515	270	6	
1	0	0	0	0	519	521	272	6	
2	0	0	0	0	547	513	272	6	
3	0	0	0	0	536	509	271	6	
4	0	0	0	0	467	515	271	6	
5	0	0	0	0	462	508	270	6	
6	0	0	0	0	476	516	271	6	
7	0	0	0	0	465	521	271	6	
8	0	0	0	0	502	514	272	6	
9	0	0	0	0	503	493	273	6	
10	0	0	0	0	497	510	273	6	
11	0	0	0	0	534	504	272	6	
12	0	0	0	0	556	515	272	6	
13	0	0	0	0	559	505	272	6	
14	0	0	0	0	559	505	274	6	
15	0	0	0	0	533	501	275	6	
0	0	0	0	0	533	491	273	6	
1	0	0	0	0	547	497	273	6	
2	0	0	0	0	562	502	274	5	
3	0	0	0	0	524	524	272	6	
4	0	0	0	0	510	541	273	5	
5	0	0	0	0	485	523	271	5	
6	0	0	0	0	448	505	271	5	
7	0	0	0	0	482	516	272	5	
8	0	0	0	0	497	491	271	5	
9	0	0	0	0	487	505	269	5	
10	0	0	0	0	492	494	269	5	
11	0	0	0	0	489	503	268	5	
12	0	0	0	0	479	508	265	5	
13	0	0	0	0	480	507	266	5	
14	0	0	0	0	501	524	265	5	
15	0	0	0	0	505	532	265	5	
0	0	0	0	0	504	524	265	5	
1	0	0	0	0	530	495	266	5	
2	0	0	0	0	540	487	265	5	
3	0	0	0	0	545	498	265	5	
4	0	0	0	0	531	502	266	5	
5	0	0	0	0	524	512	266	5	
6	0	0	0	0	558	541	265	5	
7	0	0	0	0	585	533	265	5	
8	0	0	0	0	528	530	265	5	
9	0	0	0	0	511	500	264	5	
10	0	0	0	0	449	485	265	5	
11	0	0	0	0	449	460	265	5	
12	0	0	0	0	495	475	265	5	
13	0	0	0	0	499	498	265	4	
14	0	0	0	0	507	509	266	4	
15	0	0	0	0	551	499	266	5	
0	0	0	0	0	527	525	265	4	
1	0	0	0	0	505	529	265	4	
2	0	0	0	0	488	526	265	4	
3	0	0	0	0	480	538	266	4	
4	0	0	0	0	502	543	266	4	
5	0	0	0	0	491	550	268	4	
6	0	0	0	0	509	509	266	4	
7	0	0	0	0	544	482	266	4	
8	0	0	0	0	547	467	267	4	
9	0	0	0	0	533	465	268	4	
10	0	0	0	0	519	461	266	4	
11	0	0	0	0	511	488	266	4	
12	0	0	0	0	501	522	266	4	
13	0	0	0	0	495	560	266	4	
14	0	0	0	0	498	523	267	4	
15	0	0	0	0	499	515	266	4	
0	0	0	0	0	505	475	266	4	
1	0	0	0	0	512	483	266	4	
2	0	0	0	0	533	516	267	4	
3	0	0	0	0	537	519	267	4	
4	0	0	0	0	527	524	268	4	
5	0	0	0	0	499	509	268	4	
6	0	0	0	0	497	494	267	4	
7	0	0	0	0	519	526	269	4	
8	0	0	0	0	513	563	269	5	
9	0	0	0	0	525	543	270	4	
10	0	0	0	0	524	540	270	4	
11	0	0	0	0	514	500	270	4	
12	0	0	0	0	462	462	271	4	
13	0	0	0	0	469	476	272	4	
14	0	0	0	0	486	479	272	3	
15	0	0	0	0	486	477	272	4	
0	0	0	0	0	507	491	271	4	
1	0	0	0	0	526	509	273	4	
2	0	0	0	0	516	526	274	4	
3	0	0	0	0	522	536	274	4	
4	0	0	0	0	519	522	273	4	
5	0	0	0	0	516	515	273	4	
6	0	0	0	0	480	526	273	3	
7	0	0	0	0	500	511	274	4	
8	0	0	0	0	526	511	273	3	
9	0	0	0	0	523	517	273	4	
10	0	0	0	0	530	535	272	4	
11	0	0	0	0	558	510	272	4	
12	0	0	0	0	531	501	274	4	
13	0	0	0	0	536	479	272	3	
14	0	0	0	0	537	513	272	4	
15	0	0	0	0	543	502	272	3	
0	0	0	0	0	543	517	272	3	
1	0	0	0	0	524	507	271	4	
2	0	0	0	0	515	463	270	3	
3	0	0	0	0	498	494	271	4	
4	0	0	0	0	496	499	269	3	
5	0	0	0	0	486	499	270	3	
6	0	0	0	0	475	516	267	3	
7	0	0	0	0	452	531	268	3	
8	0	0	0	0	447	540	267	4	
9	0	0	0	0	488	541	266	4	
10	0	0	0	0	527	526	267	4	
11	0	0	0	0	558	501	266	4	
12	0	0	0	0	564	498	265	4	
13	0	0	0	0	540	492	265	3	
14	0	0	0	0	496	477	264	3	
15	0	0	0	0	497	483	263	3	
0	0	0	0	0	502	498	264	3	
1	0	0	0	0	517	535	262	4	
2	0	0	0	0	457	544	262	4	
3	0	0	0	0	484	516	262	3	
4	0	0	0	0	486	512	261	4	
5	0	0	0	0	508	510	261	3	
6	0	0	0	0	516	481	261	3	
7	0	0	0	0	505	500	260	4	
8	0	0	0	0	489	559	261	4	
9	0	0	0	0	541	526	260	4	
10	0	0	0	0	517	541	260	5	
11	0	0	0	0	509	528	259	4	
12	0	0	0	0	501	516	259	3	
13	0	0	0	0	487	553	258	4	
14	0	0	0	0	486	534	256	3	
15	0	0	0	0	584	486	256	5	
0	0	0	0	0	611	451	256	3	
1	0	0	0	0	567	412	256	3	
2	0	0	0	0	555	404	255	4	
3	0	0	0	0	510	452	256	3	
4	0	0	0	0	499	532	257	3	
5	0	0	0	0	496	548	256	3	
6	0	0	0	0	495	497	256	3	
7	0	0	0	0	494	522	256	4	
8	0	0	0	0	485	530	258	3	
9	0	0	0	0	495	511	258	3	
10	0	0	0	0	511	518	259	4	
11	0	0	0	0	492	507	259	3	
12	0	0	0	0	479	513	259	3	
13	0	0	0	0	515	547	260	3	
14	0	0	0	0	539	548	260	3	
15	0	0	0	0	522	522	261	4	
0	0	0	0	0	492	470	260	3	
1	0	0	0	0	466	464	261	3	
2	0	0	0	0	474	497	262	4	
3	0	0	0	0	507	515	262	4	
4	0	0	0	0	524	582	263	3	
5	0	0	0	0	506	526	264	3	
6	0	0	0	0	534	506	264	3	
7	0	0	0	0	554	465	266	3	
8	0	0	0	0	544	461	265	3	
9	0	0	0	0	486	506	266	3	
10	0	0	0	0	477	488	266	4	
11	0	0	0	0	485	533	266	3	
12	0	0	0	0	485	514	268	3	
13	0	0	0	0	497	499	267	3	
14	0	0	0	0	532	502	269	3	
15	0	0	0	0	547	519	271	3	
0	0	0	0	0	541	511	270	3	
1	0	0	0	0	533	517	271	3	
2	0	0	0	0	499	531	271	4	
3	0	0	0	0	489	507	271	5	
4	0	0	0	0	488	511	271	5	
5	0	0	0	0	540	525	271	5	
6	0	0	0	0	553	535	272	4	
7	0	0	0	0	544	541	273	4	
8	0	0	0	0	552	515	272	4	
9	0	0	0	0	501	489	273	4	
10	0	0	0	0	472	511	274	4	
11	0	0	0	0	485	538	273	4	
12	0	0	0	0	498	482	274	4	
13	0	0	0	0	512	457	274	4	
14	0	0	0	0	508	467	273	3	
15	0	0	0	0	505	481	274	4	
0	0	0	0	0	518	492	273	4	
1	0	0	0	0	504	515	273	4	
2	0	0	0	0	504	512	273	4	
3	0	0	0	0	516	505	273	4	
4	0	0	0	0	498	520	274	3	
5	0	0	0	0	510	543	274	3	
6	0	0	0	0	504	534	274	4	
7	0	0	0	0	511	513	274	4	
8	0	0	0	0	538	522	274	5	
9	0	0	0	0	517	523	273	6	
10	0	0	0	0	523	524	275	6	
11	0	0	0	0	487	544	273	6	
12	0	0	0	0	481	524	274	8	
13	0	0	0	0	505	481	274	12	
14	0	0	0	0	543	450	273	14	
15	0	0	0	0	571	468	274	17	
0	0	0	0	0	519	519	274	20	
1	0	0	0	0	456	520	274	20	
2	0	0	0	0	454	494	275	18	
3	0	0	0	0	459	521	275	20	
4	0	0	0	0	532	550	275	17	
5	0	0	0	0	568	520	276	21	
6	0	0	0	0	563	519	277	19	
7	0	0	0	0	526	500	278	20	
8	0	0	0	0	518	488	280	19	
9	0	0	0	0	524	480	281	20	
10	0	0	0	0	531	471	286	21	
11	0	0	0	0	495	455	284	22	
12	0	0	0	0	455	474	284	22	
13	0	0	0	0	479	516	285	20	
14	0	0	0	0	547	550	287	19	
15	0	0	0	0	567	565	287	24	
0	0	0	0	0	545	539	288	23	
1	0	0	0	0	500	518	288	23	
2	0	0	0	0	483	493	289	25	
3	0	0	0	0	468	488	291	25	
4	0	0	0	0	472	503	291	26	
5	0	0	0	0	521	513	293	25	
6	0	0	0	0	576	510	294	24	
7	0	0	0	0	557	511	295	26	
8	0	0	0	0	506	523	297	27	
9	0	0	0	0	503	520	296	25	
10	0	0	0	0	506	517	297	27	
11	0	0	0	0	509	511	298	30	
12	0	0	0	0	507	515	299	28	
13	0	0	0	0	496	512	300	29	
14	0	0	0	0	479	501	301	30	
15	0	0	0	0	487	500	303	29	
0	0	0	0	0	501	515	304	31	
1	0	0	0	0	506	517	304	29	
2	0	0	0	0	518	518	307	31	
3	0	0	0	0	527	513	307	29	
4	0	0	0	0	525	510	306	31	
5	0	0	0	0	522	506	308	28	
6	0	0	0	0	512	504	307	32	
7	0	0	0	0	494	504	308	29	
8	0	0	0	0	505	503	308	31	
9	0	0	0	0	485	500	309	31	
10	0	0	0	0	499	500	310	28	
11	0	0	0	0	522	501	310	28	
12	0	0	0	0	501	508	311	30	
13	0	0	0	0	519	503	312	31	
14	0	0	0	0	569	507	313	31	
15	0	0	0	0	520	512	313	35	
0	0	0	0	0	454	515	313	31	
1	0	0	0	0	454	511	313	30	
2	0	0	0	0	493	513	313	30	
3	0	0	0	0	512	517	312	30	
4	0	0	0	0	551	503	311	32	
5	0	0	0	0	565	499	310	31	
6	0	0	0	0	557	508	311	34	
7	0	0	0	0	526	505	310	36	
8	0	0	0	0	495	506	309	33	
9	0	0	0	0	467	506	309	37	
10	0	0	0	0	485	506	309	36	
11	0	0	0	0	521	504	309	36	
12	0	0	0	0	502	511	309	39	
13	0	0	0	0	510	513	309	35	
14	0	0	0	0	497	513	309	37	
15	0	0	0	0	543	512	309	36	
0	0	0	0	0	536	512	308	39	
1	0	0	0	0	524	512	309	36	
2	0	0	0	0	516	521	308	32	
3	0	0	0	0	502	524	306	32	
4	0	0	0	0	534	515	305	32	
5	0	0	0	0	516	508	306	32	
6	0	0	0	0	471	500	305	33	
7	0	0	0	0	482	504	305	31	
8	0	0	0	0	525	507	305	33	
9	0	0	0	0	553	532	305	31	
10	0	0	0	0	519	528	306	33	
11	0	0	0	0	503	522	304	27	
12	0	0	0	0	555	515	302	29	
13	0	0	0	0	557	503	300	29	
14	0	0	0	0	508	486	300	27	
15	0	0	0	0	451	482	299	23	
0	0	0	0	0	427	465	299	24	
1	0	0	0	0	464	453	297	28	
2	0	0	0	0	495	493	295	23	
3	0	0	0	0	542	519	294	23	
4	0	0	0	0	567	523	294	23	
5	0	0	0	0	540	516	292	20	
6	0	0	0	0	500	515	291	23	
7	0	0	0	0	512	512	288	24	
8	0	0	0	0	504	511	285	19	
9	0	0	0	0	501	511	284	21	
10	0	0	0	0	538	516	279	30	
11	0	0	0	0	514	526	278	26	
12	0	0	0	0	399	520	275	23	
13	0	0	0	0	503	515	272	32	
14	0	0	0	0	589	502	269	25	
15	0	0	0	0	583	517	265	16	
0	0	0	0	0	479	515	263	24	
1	0	0	0	0	418	497	261	25	
2	0	0	0	0	507	496	259	27	
3	0	0	0	0	596	507	255	22	
4	0	0	0	0	542	512	252	21	
5	0	0	0	0	540	504	251	32	
6	0	0	0	0	528	513	249	25	
7	0	0	0	0	490	524	245	25	
8	0	0	0	0	440	519	242	23	
9	0	0	0	0	440	518	241	25	
10	0	0	0	0	514	519	235	31	
11	0	0	0	0	549	510	234	28	
12	0	0	0	0	518	512	230	28	
13	0	0	0	0	529	522	220	28	
14	0	0	0	0	558	520	216	27	
15	0	0	0	0	512	502	206	31	
0	0	0	0	0	492	493	198	38	
1	0	0	0	0	456	495	193	36	
2	0	0	0	0	511	488	192	30	
3	0	0	0	0	551	478	187	38	
4	0	0	0	0	560	495	177	32	
5	0	0	0	0	525	512	170	31	
6	0	0	0	0	461	524	162	25	
7	0	0	0	0	443	527	158	22	
8	0	0	0	0	509	525	154	24	
9	0	0	0	0	551	513	151	21	
10	0	0	0	0	664	492	147	21	
11	0	0	0	0	617	489	148	15	
12	0	0	0	0	500	493	147	14	
13	0	0	0	0	447	483	142	11	
14	0	0	0	0	407	490	136	12	
15	0	0	0	0	407	508	135	12	
0	0	0	0	0	425	516	125	7	
1	0	0	0	0	475	528	121	5	
2	0	0	0	0	497	532	118	2	
3	0	0	0	0	525	522	113	0	
4	0	0	0	0	564	512	111	0	
5	0	0	0	0	566	508	106	0	
6	0	0	0	0	546	507	100	0	
7	0	0	0	0	527	507	97	0	
8	0	0	0	0	505	507	93	0	
9	0	0	0	0	507	507	91	0	
10	0	0	0	0	514	507	90	0	
11	0	0	0	0	519	512	85	0	
12	0	0	0	0	523	516	78	0	
13	0	0	0	0	523	512	70	0	
14	0	0	0	0	540	510	66	0	
15	0	0	0	0	552	510	62	0	
0	0	0	0	0	554	509	60	0	
1	0	0	0	0	521	511	61	0	
2	0	0	0	0	487	504	61	0	
3	0	0	0	0	435	509	59	0	
4	0	0	0	0	380	512	58	0	
5	0	0	0	0	451	508	58	0	
6	0	0	0	0	520	512	60	0	
7	0	0	0	0	590	509	58	0	
8	0	0	0	0	627	511	58	0	
9	0	0	0	0	598	515	55	0	
10	0	0	0	0	487	513	54	0	
11	0	0	0	0	454	511	53	0	
12	0	0	0	0	446	509	51	0	
13	0	0	0	0	441	511	48	0	
14	0	0	0	0	511	513	49	0	
15	0	0	0	0	535	512	47	0	
0	0	0	0	0	567	510	42	0	
1	0	0	0	0	552	506	40	0	
2	0	0	0	0	568	510	37	0	
3	0	0	0	0	527	504	33	0	
4	0	0	0	0	525	489	30	0	
5	0	0	0	0	488	488	26	0	
6	0	0	0	0	446	495	21	0	
7	0	0	0	0	491	501	10	0	
8	0	0	0	0	505	512	6	0	
9	0	0	0	0	493	518	0	0	
10	0	0	0	0	539	518	0	0	
11	0	0	0	0	576	508	0	0	
12	0	0	0	0	531	508	0	0	
13	0	0	0	0	457	516	0	0	
14	0	0	0	0	521	511	0	0	
15	0	0	0	0	526	505	0	0	
0	0	0	0	0	524	508	0	0	
1	0	0	0	0	496	505	0	0	
2	0	0	0	0	505	510	0	0	
3	0	0	0	0	494	509	0	0	
4	0	0	0	0	497	511	0	0	
5	0	0	0	0	482	510	0	0	
6	0	0	0	0	467	509	0	0	
7	0	0	0	0	482	510	3	0	
8	0	0	0	0	498	508	5	0	
9	0	0	0	0	512	509	9	0	
10	0	0	0	0	556	511	11	0	
11	0	0	0	0	575	508	14	0	
12	0	0	0	0	550	509	13	0	
13	0	0	0	0	527	510	14	0	
14	0	0	0	0	510	508	15	0	
15	0	0	0	0	500	508	15	0	
0	0	0	0	0	508	507	15	0	
1	0	0	0	0	513	508	15	0	
2	0	0	0	0	504	512	15	0	
3	0	0	0	0	503	506	14	0	
4	0	0	0	0	503	505	15	0	
5	0	0	0	0	504	505	14	0	
6	0	0	0	0	507	511	14	0	
7	0	0	0	0	509	511	14	0	
8	0	0	0	0	507	509	14	0	
9	0	0	0	0	508	510	15	0	
10	0	0	0	0	506	509	13	0	
11	0	0	0	0	509	507	15	0	
12	0	0	0	0	510	508	15	0	
13	0	0	0	0	506	507	17	0	
14	0	0	0	0	510	510	17	0	
15	0	0	0	0	512	505	17	0	
0	0	0	0	0	511	510	18	0	
1	0	0	0	0	508	509	17	0	
2	0	0	0	0	508	511	18	1	
3	0	0	0	0	511	510	18	0	
4	0	0	0	0	510	508	19	0	
5	0	0	0	0	512	508	19	0	
6	0	0	0	0	513	509	22	0	
7	0	0	0	0	515	507	24	0	
8	0	0	0	0	513	512	27	0	
9	0	0	0	0	511	508	29	0	
10	0	0	0	0	513	508	32	0	
11	0	0	0	0	511	508	34	0	
12	0	0	0	0	513	510	35	0	
13	0	0	0	0	514	508	36	0	
14	0	0	0	0	508	507	37	0	
15	0	0	0	0	511	508	39	0	
0	0	0	0	0	511	509	39	0	
1	0	0	0	0	512	508	39	0	
2	0	0	0	0	510	507	40	0	
3	0	0	0	0	512	508	42	0	
4	0	0	0	0	512	511	42	0	
5	0	0	0	0	511	508	44	0	
6	0	0	0	0	512	510	43	0	
7	0	0	0	0	511	508	44	0	
8	0	0	0	0	514	510	44	0	
9	0	0	0	0	511	510	45	0	
10	0	0	0	0	512	509	44	0	
11	0	0	0	0	512	508	45	1	
12	0	0	0	0	513	508	44	0	
13	0	0	0	0	509	508	45	0	
14	0	0	0	0	512	508	45	0	
15	0	0	0	0	512	508	44	0	
0	0	0	0	0	513	509	45	0	
1	0	0	0	0	513	509	45	0	
2	0	0	0	0	508	508	46	0	
3	0	0	0	0	510	508	48	0	
4	0	0	0	0	510	507	47	0	
5	0	0	0	0	513	510	48	0	
6	0	0	0	0	512	510	49	0	
7	0	0	0	0	507	506	48	0	
8	0	0	0	0	509	507	48	0	
9	0	0	0	0	512	507	49	0	
10	0	0	0	0	509	509	49	0	
11	0	0	0	0	512	507	48	0	
12	0	0	0	0	512	508	48	0	
13	0	0	0	0	512	511	48	0	
14	0	0	0	0	511	508	47	0	
15	0	0	0	0	516	510	45	0	
0	0	0	0	0	514	507	44	0	
1	0	0	0	0	513	511	43	0	
2	0	0	0	0	511	509	42	0	
3	0	0	0	0	511	508	44	0	
4	0	0	0	0	512	507	42	1	
5	0	0	0	0	515	508	41	0	
6	0	0	0	0	510	509	40	0	
7	0	0	0	0	513	508	40	0	
8	0	0	0	0	511	509	36	0	
9	0	0	0	0	511	508	35	0	
10	0	0	0	0	509	509	34	0	
11	0	0	0	0	508	508	36	0	
12	0	0	0	0	509	507	32	0	
13	0	0	0	0	510	507	32	0	
14	0	0	0	0	512	509	25	0	
15	0	0	0	0	510	508	28	0	
0	0	0	0	0	513	509	6	0	
1	0	0	0	0	512	508	6	0	
2	0	0	0	0	511	507	4	0	
3	0	0	0	0	509	508	4	0	
4	0	0	0	0	510	508	3	0	
5	0	0	0	0	512	509	0	0	
6	0	0	0	0	509	511	0	0	
7	0	0	0	0	512	509	0	0	
8	0	0	0	0	513	510	0	0	
9	0	0	0	0	510	506	0	0	
10	0	0	0	0	511	507	0	0	
11	0	0	0	0	510	510	1	0	
12	0	0	0	0	509	510	0	0	
13	0	0	0	0	508	508	0	0	
14	0	0	0	0	510	509	0	0	
15	0	0	0	0	507	506	0	0	
0	0	0	0	0	509	507	0	0	
1	0	0	0	0	511	509	0	0	
2	0	0	0	0	513	508	0	0	
3	0	0	0	0	512	509	0	0	
4	0	0	0	0	512	508	1	0	
5	0	0	0	0	509	508	0	0	
6	0	0	0	0	513	510	0	0	
7	0	0	0	0	512	508	0	0	
8	0	0	0	0	512	507	0	0	
9	0	0	0	0	509	508	0	0	
10	0	0	0	0	511	509	0	0	
11	0	0	0	0	513	508	0	0	
12	0	0	0	0	514	511	0	0	
13	0	0	0	0	508	506	0	0	
14	0	0	0	0	512	509	0	0	
15	0	0	0	0	511	508	0	0	
0	0	0	0	0	508	510	0	0	
1	0	0	0	0	513	512	0	0	
2	0	0	0	0	513	507	0	0	
3	0	0	0	0	508	507	0	0	
4	0	0	0	0	510	508	0	0	
5	0	0	0	0	512	506	0	0	
6	0	0	0	0	512	509	0	0	
7	0	0	0	0	511	511	0	0	
8	0	0	0	0	511	509	0	0	
9	0	0	0	0	514	508	0	0	
10	0	0	0	0	514	508	0	0	
11	0	0	0	0	512	509	0	0	
12	0	0	0	0	512	509	0	0	
13	0	0	0	0	512	506	0	0	
14	0	0	0	0	512	509	0	0	
15	0	0	0	0	511	509	0	0	
0	0	0	0	0	513	508	0	0	
1	0	0	0	0	510	510	0	0	
2	0	0	0	0	509	506	0	0	
3	0	0	0	0	509	509	0	0	
4	0	0	0	0	510	507	0	0	
5	0	0	0	0	508	509	0	0	
6	0	0	0	0	509	509	0	0	
7	0	0	0	0	512	508	0	0	
8	0	0	0	0	512	509	0	0	
9	0	0	0	0	511	509	0	0	
10	0	0	0	0	511	509	0	0	
11	0	0	0	0	514	508	0	0	
12	0	0	0	0	509	506	0	0	
13	0	0	0	0	509	507	0	0	
14	0	0	0	0	509	508	0	0	
15	0	0	0	0	509	510	0	0	
0	0	0	0	0	511	508	0	0	
1	0	0	0	0	510	507	0	0	
2	0	0	0	0	512	510	0	0	
3	0	0	0	0	511	508	0	0	
4	0	0	0	0	513	510	0	0	
5	0	0	0	0	514	509	0	0	
6	0	0	0	0	511	506	0	0	
7	0	0	0	0	509	507	0	0	
8	0	0	0	0	511	509	0	0	
9	0	0	0	0	511	508	0	0	
10	0	0	0	0	512	511	0	0	
11	0	0	0	0	515	510	0	0	
12	0	0	0	0	516	506	0	0	
13	0	0	0	0	512	510	0	0	
14	0	0	0	0	511	507	0	0	
15	0	0	0	0	509	508	0	0	
0	0	0	0	0	509	505	0	0	
1	0	0	0	0	514	511	0	0	
2	0	0	0	0	517	513	0	0	
3	0	0	0	0	519	509	0	0	
4	0	0	0	0	513	508	0	0	
5	0	0	0	0	509	507	0	0	
6	0	0	0	0	510	509	0	0	
7	0	0	0	0	510	509	0	0	
8	0	0	0	0	515	508	0	0	
9	0	0	0	0	511	510	0	0	
10	0	0	0	0	513	510	0	0	
11	0	0	0	0	511	507	0	0	
12	0	0	0	0	510	509	0	0	
13	0	0	0	0	510	509	0	0	
14	0	0	0	0	510	509	0	0	
15	0	0	0	0	507	510	0	0	
0	0	0	0	0	507	509	0	0	
1	0	0	0	0	507	509	0	0	
2	0	0	0	0	508	509	0	1	
3	0	0	0	0	505	508	0	0	
4	0	0	0	0	509	508	0	0	
5	0	0	0	0	517	508	0	0	
6	0	0	0	0	518	508	0	0	
7	0	0	0	0	515	508	0	0	
8	0	0	0	0	512	508	0	0	
9	0	0	0	0	511	508	0	0	
10	0	0	0	0	514	510	0	0	
11	0	0	0	0	513	510	0	0	
12	0	0	0	0	511	511	0	0	
13	0	0	0	0	510	508	0	0	
14	0	0	0	0	509	506	0	0	
15	0	0	0	0	509	508	0	0	
0	0	0	0	0	509	506	0	0	
1	0	0	0	0	509	507	0	0	
2	0	0	0	0	509	510	0	0	
3	0	0	0	0	513	506	0	0	
4	0	0	0	0	514	511	0	0	
5	0	0	0	0	510	511	0	0	
6	0	0	0	0	509	507	0	0	
7	0	0	0	0	512	509	0	0	
8	0	0	0	0	510	508	0	0	
9	0	0	0	0	511	511	0	0	
10	0	0	0	0	512	508	0	0	
11	0	0	0	0	515	511	0	0	
12	0	0	0	0	510	508	0	0	
13	0	0	0	0	513	511	0	0	
14	0	0	0	0	512	511	0	0	
15	0	0	0	0	513	508	0	0	
0	0	0	0	0	511	507	0	0	
1	0	0	0	0	510	509	0	0	
2	0	0	0	0	507	508	0	0	
3	0	0	0	0	510	509	0	0	
4	0	0	0	0	511	508	0	0	
5	0	0	0	0	510	507	0	0	
6	0	0	0	0	511	509	0	0	
7	0	0	0	0	507	507	0	0	
8	0	0	0	0	508	509	0	0	
9	0	0	0	0	511	508	0	0	
10	0	0	0	0	514	510	0	0	
11	0	0	0	0	515	507	0	0	
12	0	0	0	0	513	507	0	0	
13	0	0	0	0	511	507	0	0	
14	0	0	0	0	508	509	0	0	
15	0	0	0	0	513	510	0	0	
0	0	0	0	0	511	509	0	0	
1	0	0	0	0	514	509	0	0	
2	0	0	0	0	511	510	0	0	
3	0	0	0	0	511	507	0	0	
4	0	0	0	0	511	507	0	1	
5	0	0	0	0	510	510	0	0	
6	0	0	0	0	508	508	0	0	
7	0	0	0	0	511	507	0	0	
8	0	0	0	0	510	510	0	0	
9	0	0	0	0	507	510	0	0	
10	0	0	0	0	512	506	0	0	
11	0	0	0	0	508	508	0	0	
12	0	0	0	0	511	509	0	0	
13	0	0	0	0	512	509	0	0	
14	0	0	0	0	514	509	0	0	
15	0	0	0	0	515	508	0	0	
0	0	0	0	0	506	506	0	0	
1	0	0	0	0	509	508	0	0	
2	0	0	0	0	515	508	0	0	
3	0	0	0	0	510	508	0	0	
4	0	0	0	0	510	509	0	0	
5	0	0	0	0	511	509	0	0	
6	0	0	0	0	512	508	0	0	
7	0	0	0	0	510	508	0	0	
8	0	0	0	0	513	510	0	0	
9	0	0	0	0	513	510	0	0	
10	0	0	0	0	519	510	0	0	
11	0	0	0	0	514	511	0	0	
12	0	0	0	0	509	508	0	0	
13	0	0	0	0	508	506	0	1	
14	0	0	0	0	508	509	0	0	
15	0	0	0	0	505	510	0	0	
0	0	0	0	0	502	512	0	0	
1	0	0	0	0	507	511	0	0	
2	0	0	0	0	514	507	0	0	
3	0	0	0	0	514	510	0	0	
4	0	0	0	0	512	508	0	0	
5	0	0	0	0	515	507	0	0	
6	0	0	0	0	516	507	0	0	
7	0	0	0	0	514	508	0	0	
8	0	0	0	0	507	507	0	0	
9	0	0	0	0	507	508	0	0	
10	0	0	0	0	510	508	0	0	
11	0	0	0	0	510	510	0	0	
12	0	0	0	0	511	508	0	0	
13	0	0	0	0	512	508	0	0	
14	0	0	0	0	512	510	0	0	
15	0	0	0	0	509	507	0	0	
0	0	0	0	0	506	508	0	0	
1	0	0	0	0	511	511	0	0	
2	0	0	0	0	508	510	0	0	
3	0	0	0	0	510	509	0	0	
4	0	0	0	0	510	511	0	0	
5	0	0	0	0	520	508	0	0	
6	0	0	0	0	515	508	0	0	
7	0	0	0	0	513	507	0	0	
8	0	0	0	0	513	508	0	0	
9	0	0	0	0	513	508	0	0	
10	0	0	0	0	515	509	0	0	
11	0	0	0	0	512	508	0	0	
12	0	0	0	0	512	508	0	0	
13	0	0	0	0	509	507	0	0	
14	0	0	0	0	510	510	0	0	
15	0	0	0	0	511	507	0	0	
0	0	0	0	0	514	507	0	0	
1	0	0	0	0	513	508	0	0	
2	0	0	0	0	510	507	0	0	
3	0	0	0	0	509	511	0	0	
4	0	0	0	0	507	510	0	0	
5	0	0	0	0	513	508	0	0	
6	0	0	0	0	509	509	0	0	
7	0	0	0	0	506	510	0	0	
8	0	0	0	0	507	513	0	0	
9	0	0	0	0	505	508	0	0	
10	0	0	0	0	509	510	0	0	
11	0	0	0	0	504	508	0	0	
12	0	0	0	0	509	508	0	0	
13	0	0	0	0	525	508	0	0	
14	0	0	0	0	526	508	0	0	
15	0	0	0	0	519	508	0	0	
0	0	0	0	0	512	508	0	0	
1	0	0	0	0	511	507	0	0	
2	0	0	0	0	511	508	0	0	
3	0	0	0	0	511	509	0	0	
4	0	0	0	0	511	509	0	0	
5	0	0	0	0	511	506	0	0	
6	0	0	0	0	511	507	0	0	
7	0	0	0	0	510	509	0	0	
8	0	0	0	0	511	509	0	0	
9	0	0	0	0	509	508	0	0	
10	0	0	0	0	507	507	0	0	
11	0	0	0	0	507	508	0	0	
12	0	0	0	0	506	507	0	0	
13	0	0	0	0	513	510	0	0	
14	0	0	0	0	515	513	0	0	
15	0	0	0	0	512	509	0	0	
0	0	0	0	0	518	511	0	0	
1	0	0	0	0	512	509	0	0	
2	0	0	0	0	516	508	0	0	
3	0	0	0	0	519	512	0	0	
4	0	0	0	0	513	510	0	0	
5	0	0	0	0	505	507	0	0	
6	0	0	0	0	503	507	0	0	
7	0	0	0	0	489	508	0	0	
8	0	0	0	0	497	510	0	0	
9	0	0	0	0	507	509	0	0	
10	0	0	0	0	511	506	0	0	
11	0	0	0	0	514	509	0	0	
12	0	0	0	0	514	509	0	0	
13	0	0	0	0	514	509	0	0	
14	0	0	0	0	517	506	0	0	
15	0	0	0	0	519	508	0	0	
0	0	0	0	0	519	509	0	0	
1	0	0	0	0	513	509	0	0	
2	0	0	0	0	514	510	0	0	
3	0	0	0	0	512	508	0	0	
4	0	0	0	0	507	507	0	0	
5	0	0	0	0	510	509	0	0	
6	0	0	0	0	511	508	0	0	
7	0	0	0	0	511	506	0	0	
8	0	0	0	0	513	511	0	0	
9	0	0	0	0	511	507	0	0	
10	0	0	0	0	510	509	0	0	
11	0	0	0	0	513	511	0	0	
12	0	0	0	0	510	509	0	0	
13	0	0	0	0	513	509	0	0	
14	0	0	0	0	507	505	0	0	
15	0	0	0	0	510	507	0	0	
0	0	0	0	0	511	508	0	0	
1	0	0	0	0	513	506	0	1	
2	0	0	0	0	515	509	0	0	
3	0	0	0	0	511	508	0	0	
4	0	0	0	0	509	508	0	0	
5	0	0	0	0	513	508	0	0	
6	0	0	0	0	512	507	0	0	
7	0	0	0	0	512	508	0	0	
8	0	0	0	0	508	509	0	0	
9	0	0	0	0	509	509	0	0	
10	0	0	0	0	512	508	0	0	
11	0	0	0	0	513	510	0	0	
12	0	0	0	0	517	508	0	0	
13	0	0	0	0	508	507	0	0	
14	0	0	0	0	512	508	0	0	
15	0	0	0	0	513	511	0	0	
0	0	0	0	0	510	509	0	0	
1	0	0	0	0	509	510	0	0	
2	0	0	0	0	511	507	0	0	
3	0	0	0	0	513	511	0	0	
4	0	0	0	0	514	509	0	0	
5	0	0	0	0	510	508	0	0	
6	0	0	0	0	512	509	0	0	
7	0	0	0	0	509	507	0	0	
8	0	0	0	0	512	508	0	0	
9	0	0	0	0	511	509	0	0	
10	0	0	0	0	512	510	0	0	
11	0	0	0	0	511	507	0	0	
12	0	0	0	0	508	507	0	0	
13	0	0	0	0	511	508	0	0	
14	0	0	0	0	512	506	0	0	
15	0	0	0	0	510	509	0	0	
0	0	0	0	0	509	509	0	0	
1	0	0	0	0	505	507	0	0	
2	0	0	0	0	512	508	0	0	
3	0	0	0	0	510	509	0	0	
4	0	0	0	0	514	509	0	0	
5	0	0	0	0	515	508	0	0	
6	0	0	0	0	515	507	0	0	
7	0	0	0	0	513	511	0	0	
8	0	0	0	0	513	511	0	0	
9	0	0	0	0	508	507	0	0	
10	0	0	0	0	510	510	0	0	
11	0	0	0	0	507	508	0	0	
12	0	0	0	0	509	510	0	0	
13	0	0	0	0	512	508	0	0	
14	0	0	0	0	512	508	0	0	
15	0	0	0	0	512	509	0	0	
0	0	0	0	0	510	507	0	0	
1	0	0	0	0	513	507	0	0	
2	0	0	0	0	511	508	0	0	
3	0	0	0	0	510	509	0	0	
4	0	0	0	0	511	509	0	0	
5	0	0	0	0	513	508	0	0	
6	0	0	0	0	512	508	0	0	
7	0	0	0	0	511	509	0	0	
8	0	0	0	0	518	509	0	0	
9	0	0	0	0	518	508	0	0	
10	0	0	0	0	509	507	0	0	
11	0	0	0	0	504	508	0	0	
12	0	0	0	0	505	509	0	0	
13	0	0	0	0	505	512	0	0	
14	0	0	0	0	510	506	0	0	
15	0	0	0	0	510	505	0	0	
0	0	0	0	0	512	508	0	0	
1	0	0	0	0	513	509	0	0	
2	0	0	0	0	513	509	0	0	
3	0	0	0	0	509	509	0	0	
4	0	0	0	0	509	508	0	0	
5	0	0	0	0	512	510	0	0	
6	0	0	0	0	510	507	0	0	
7	0	0	0	0	513	511	0	0	
8	0	0	0	0	510	508	0	0	
9	0	0	0	0	509	507	0	0	
10	0	0	0	0	515	507	0	0	
11	0	0	0	0	514	510	0	0	
12	0	0	0	0	511	509	0	0	
13	0	0	0	0	512	509	0	0	
14	0	0	0	0	511	508	0	0	
15	0	0	0	0	512	509	0	0	
0	0	0	0	0	510	507	0	0	
1	0	0	0	0	509	508	0	0	
2	0	0	0	0	520	508	0	0	
3	0	0	0	0	518	508	0	0	
4	0	0	0	0	513	511	0	0	
5	0	0	0	0	512	509	0	0	
6	0	0	0	0	510	507	0	0	
7	0	0	0	0	505	508	0	0	
8	0	0	0	0	499	508	0	0	
9	0	0	0	0	508	509	0	0	
10	0	0	0	0	507	510	0	0	
11	0	0	0	0	511	510	0	0	
12	0	0	0	0	513	508	0	0	
13	0	0	0	0	515	509	0	0	
14	0	0	0	0	513	511	0	0	
15	0	0	0	0	514	508	0	0	
0	0	0	0	0	517	510	0	1	
1	0	0	0	0	514	510	0	0	
2	0	0	0	0	510	508	0	0	
3	0	0	0	0	511	510	0	0	
4	0	0	0	0	515	510	0	0	
5	0	0	0	0	511	508	0	1	
6	0	0	0	0	511	508	0	0	
7	0	0	0	0	508	509	0	0	
8	0	0	0	0	511	505	0	0	
9	0	0	0	0	511	508	0	0	
10	0	0	0	0	513	510	0	0	
11	0	0	0	0	512	506	0	0	
12	0	0	0	0	508	508	0	0	
13	0	0	0	0	513	509	0	0	
14	0	0	0	0	511	507	0	0	
15	0	0	0	0	510	508	0	0	
0	0	0	0	0	504	509	0	0	
1	0	0	0	0	510	507	0	0	
2	0	0	0	0	513	508	0	0	
3	0	0	0	0	514	508	0	0	
4	0	0	0	0	512	511	0	0	
5	0	0	0	0	510	505	0	0	
6	0	0	0	0	515	509	0	0	
7	0	0	0	0	516	509	0	0	
8	0	0	0	0	519	509	0	0	
9	0	0	0	0	521	511	0	0	
10	0	0	0	0	518	509	0	0	
11	0	0	0	0	515	509	0	0	
12	0	0	0	0	510	510	0	0	
13	0	0	0	0	507	507	0	0	
14	0	0	0	0	502	511	0	0	
15	0	0	0	0	491	508	0	0	
0	0	0	0	0	491	506	0	0	
1	0	0	0	0	498	509	0	0	
2	0	0	0	0	511	511	0	0	
3	0	0	0	0	515	508	0	0	
4	0	0	0	0	516	507	0	0	
5	0	0	0	0	514	509	0	0	
6	0	0	0	0	514	508	0	0	
7	0	0	0	0	513	507	0	0	
8	0	0	0	0	516	507	0	0	
9	0	0	0	0	521	507	0	0	
10	0	0	0	0	517	508	0	0	
11	0	0	0	0	517	510	0	0	
12	0	0	0	0	516	510	0	0	
13	0	0	0	0	514	509	0	0	
14	0	0	0	0	503	508	0	0	
15	0	0	0	0	503	507	0	0	
0	0	0	0	0	508	507	0	0	
1	0	0	0	0	509	508	0	0	
2	0	0	0	0	509	510	0	0	
3	0	0	0	0	490	510	0	0	
4	0	0	0	0	514	510	0	0	
5	0	0	0	0	526	508	0	0	
6	0	0	0	0	509	510	0	0	
7	0	0	0	0	505	510	0	0	
8	0	0	0	0	514	509	0	0	
9	0	0	0	0	514	508	0	0	
10	0	0	0	0	522	511	0	0	
11	0	0	0	0	521	510	0	0	
12	0	0	0	0	515	507	0	0	
13	0	0	0	0	513	507	0	0	
14	0	0	0	0	508	510	0	0	
15	0	0	0	0	510	510	0	0	
0	0	0	0	0	512	509	0	0	
1	0	0	0	0	509	510	0	0	
2	0	0	0	0	507	507	0	0	
3	0	0	0	0	505	508	0	0	
4	0	0	0	0	515	509	0	0	
5	0	0	0	0	513	507	0	0	
