# OpenSignals Text File Format. Version 1
# {"20:18:06:13:21:78": {"position": 0, "device": "bitalino_rev", "device name": "20:18:06:13:21:78", "device connection": "BTH20:18:06:13:21:78", "sampling rate": 1000, "resolution": [4, 1, 1, 1, 1, 10, 10, 10, 10], "firmware version": 1281, "comments": "", "keywords": "", "mode": 0, "sync interval": 2, "date": "2023-6-5", "time": "23:38:50.224", "channels": [1, 2, 3, 4], "sensor": ["EMGBITREV", "EMGBITREV", "RAW", "RAW"], "label": ["A1", "A2", "A3", "A4"], "column": ["nSeq", "I1", "I2", "O1", "O2", "A1", "A2", "A3", "A4"], "special": [{}, {}, {}, {}], "digital IO": [0, 0, 1, 1]}}
# EndOfHeader
0	0	0	0	0	515	512	0	0	
1	0	0	0	0	515	511	0	0	
2	0	0	0	0	511	511	0	0	
3	0	0	0	0	508	509	0	0	
4	0	0	0	0	506	513	0	0	
5	0	0	0	0	506	512	0	0	
6	0	0	0	0	513	514	0	0	
7	0	0	0	0	513	515	0	0	
8	0	0	0	0	506	511	0	0	
9	0	0	0	0	502	511	0	0	
10	0	0	0	0	503	511	0	0	
11	0	0	0	0	507	510	0	0	
12	0	0	0	0	504	509	0	0	
13	0	0	0	0	502	509	0	0	
14	0	0	0	0	504	508	0	0	
15	0	0	0	0	508	510	0	0	
0	0	0	0	0	511	508	0	0	
1	0	0	0	0	511	508	0	0	
2	0	0	0	0	513	510	0	0	
3	0	0	0	0	514	510	0	0	
4	0	0	0	0	513	509	0	0	
5	0	0	0	0	512	511	0	0	
6	0	0	0	0	508	510	0	0	
7	0	0	0	0	508	510	0	0	
8	0	0	0	0	508	509	0	0	
9	0	0	0	0	510	509	0	0	
10	0	0	0	0	505	509	0	0	
11	0	0	0	0	510	510	0	0	
12	0	0	0	0	510	508	0	0	
13	0	0	0	0	503	508	0	0	
14	0	0	0	0	501	509	0	0	
15	0	0	0	0	506	511	0	0	
0	0	0	0	0	508	511	0	0	
1	0	0	0	0	506	511	0	0	
2	0	0	0	0	505	512	0	0	
3	0	0	0	0	505	511	0	0	
4	0	0	0	0	509	511	0	0	
5	0	0	0	0	512	513	0	0	
6	0	0	0	0	511	510	0	0	
7	0	0	0	0	513	510	0	0	
8	0	0	0	0	513	511	0	0	
9	0	0	0	0	513	512	0	0	
10	0	0	0	0	513	510	0	0	
11	0	0	0	0	510	510	0	0	
12	0	0	0	0	512	511	0	0	
13	0	0	0	0	507	511	0	0	
14	0	0	0	0	507	510	0	0	
15	0	0	0	0	505	508	0	0	
0	0	0	0	0	506	512	0	0	
1	0	0	0	0	505	512	0	0	
2	0	0	0	0	505	511	0	0	
3	0	0	0	0	504	511	0	0	
4	0	0	0	0	506	510	0	0	
5	0	0	0	0	505	510	0	0	
6	0	0	0	0	504	508	0	0	
7	0	0	0	0	504	510	0	0	
8	0	0	0	0	508	511	0	0	
9	0	0	0	0	511	511	0	0	
10	0	0	0	0	515	510	0	0	
11	0	0	0	0	515	511	0	0	
12	0	0	0	0	517	511	0	0	
13	0	0	0	0	516	513	0	0	
14	0	0	0	0	513	511	0	0	
15	0	0	0	0	510	511	0	0	
0	0	0	0	0	506	511	0	0	
1	0	0	0	0	506	509	0	0	
2	0	0	0	0	504	508	0	0	
3	0	0	0	0	506	511	0	0	
4	0	0	0	0	506	509	0	0	
5	0	0	0	0	505	511	0	0	
6	0	0	0	0	503	510	0	0	
7	0	0	0	0	504	512	0	0	
8	0	0	0	0	505	509	0	0	
9	0	0	0	0	507	508	0	0	
10	0	0	0	0	511	509	0	0	
11	0	0	0	0	509	508	0	0	
12	0	0	0	0	511	511	0	0	
13	0	0	0	0	513	510	0	0	
14	0	0	0	0	509	513	0	0	
15	0	0	0	0	509	511	0	0	
0	0	0	0	0	513	512	0	0	
1	0	0	0	0	515	511	0	0	
2	0	0	0	0	511	513	0	0	
3	0	0	0	0	509	512	0	0	
4	0	0	0	0	510	511	0	0	
5	0	0	0	0	511	513	0	0	
6	0	0	0	0	508	512	0	0	
7	0	0	0	0	507	511	0	0	
8	0	0	0	0	506	511	0	0	
9	0	0	0	0	501	510	0	0	
10	0	0	0	0	502	508	0	0	
11	0	0	0	0	501	510	0	0	
12	0	0	0	0	507	509	0	0	
13	0	0	0	0	510	509	0	0	
14	0	0	0	0	508	509	0	0	
15	0	0	0	0	509	511	0	0	
0	0	0	0	0	509	511	0	0	
1	0	0	0	0	511	509	0	0	
2	0	0	0	0	511	511	0	0	
3	0	0	0	0	511	511	0	0	
4	0	0	0	0	514	511	0	0	
5	0	0	0	0	515	511	0	0	
6	0	0	0	0	513	512	0	0	
7	0	0	0	0	512	510	0	0	
8	0	0	0	0	510	513	0	0	
9	0	0	0	0	504	511	0	0	
10	0	0	0	0	504	511	0	0	
11	0	0	0	0	507	509	0	0	
12	0	0	0	0	504	509	0	0	
13	0	0	0	0	503	512	0	0	
14	0	0	0	0	504	510	0	0	
15	0	0	0	0	507	510	0	0	
0	0	0	0	0	506	511	0	0	
1	0	0	0	0	506	508	0	0	
2	0	0	0	0	507	512	0	0	
3	0	0	0	0	507	510	0	0	
4	0	0	0	0	512	511	0	0	
5	0	0	0	0	512	510	0	0	
6	0	0	0	0	512	510	0	0	
7	0	0	0	0	513	509	0	0	
8	0	0	0	0	515	509	0	0	
9	0	0	0	0	513	511	0	0	
10	0	0	0	0	512	511	0	0	
11	0	0	0	0	510	512	0	0	
12	0	0	0	0	510	511	0	0	
13	0	0	0	0	508	509	0	0	
14	0	0	0	0	508	512	0	0	
15	0	0	0	0	507	513	0	0	
0	0	0	0	0	504	511	0	0	
1	0	0	0	0	505	510	0	0	
2	0	0	0	0	504	511	0	0	
3	0	0	0	0	504	509	0	0	
4	0	0	0	0	504	510	0	0	
5	0	0	0	0	505	506	0	0	
6	0	0	0	0	506	509	0	0	
7	0	0	0	0	509	509	0	0	
8	0	0	0	0	508	511	0	0	
9	0	0	0	0	512	510	0	0	
10	0	0	0	0	511	511	0	0	
11	0	0	0	0	513	512	0	0	
12	0	0	0	0	513	511	0	0	
13	0	0	0	0	513	511	0	0	
14	0	0	0	0	512	511	0	0	
15	0	0	0	0	515	510	0	0	
0	0	0	0	0	511	511	0	0	
1	0	0	0	0	512	512	0	0	
2	0	0	0	0	506	510	0	0	
3	0	0	0	0	504	512	0	0	
4	0	0	0	0	506	512	0	0	
5	0	0	0	0	502	510	0	0	
6	0	0	0	0	501	510	0	0	
7	0	0	0	0	504	508	0	0	
8	0	0	0	0	506	508	0	0	
9	0	0	0	0	505	511	0	0	
10	0	0	0	0	508	508	0	0	
11	0	0	0	0	509	511	0	0	
12	0	0	0	0	509	511	0	0	
13	0	0	0	0	511	513	0	0	
14	0	0	0	0	513	512	0	0	
15	0	0	0	0	511	509	0	0	
0	0	0	0	0	512	511	0	0	
1	0	0	0	0	515	510	0	0	
2	0	0	0	0	513	511	0	0	
3	0	0	0	0	510	512	0	0	
4	0	0	0	0	507	509	0	0	
5	0	0	0	0	511	508	0	0	
6	0	0	0	0	508	512	0	0	
7	0	0	0	0	505	510	0	0	
8	0	0	0	0	508	513	0	0	
9	0	0	0	0	507	508	0	0	
10	0	0	0	0	503	511	0	0	
11	0	0	0	0	503	508	0	0	
12	0	0	0	0	506	508	0	0	
13	0	0	0	0	506	511	0	0	
14	0	0	0	0	507	509	0	0	
15	0	0	0	0	508	512	0	0	
0	0	0	0	0	510	511	0	0	
1	0	0	0	0	508	511	0	0	
2	0	0	0	0	511	511	0	0	
3	0	0	0	0	515	512	0	0	
4	0	0	0	0	515	513	0	0	
5	0	0	0	0	511	512	0	0	
6	0	0	0	0	508	511	0	0	
7	0	0	0	0	511	511	0	0	
8	0	0	0	0	510	510	0	0	
9	0	0	0	0	505	511	0	0	
10	0	0	0	0	504	512	0	0	
11	0	0	0	0	505	508	0	0	
12	0	0	0	0	507	509	0	0	
13	0	0	0	0	505	509	0	0	
14	0	0	0	0	505	510	0	0	
15	0	0	0	0	508	510	0	0	
0	0	0	0	0	506	508	0	0	
1	0	0	0	0	508	511	0	0	
2	0	0	0	0	508	511	0	0	
3	0	0	0	0	509	510	0	0	
4	0	0	0	0	509	511	0	0	
5	0	0	0	0	511	512	0	0	
6	0	0	0	0	512	510	0	0	
7	0	0	0	0	511	508	0	0	
8	0	0	0	0	513	510	0	0	
9	0	0	0	0	515	510	0	0	
10	0	0	0	0	511	510	0	0	
11	0	0	0	0	511	513	0	0	
12	0	0	0	0	509	512	0	0	
13	0	0	0	0	509	511	0	0	
14	0	0	0	0	505	511	0	0	
15	0	0	0	0	505	511	0	0	
0	0	0	0	0	509	511	0	0	
1	0	0	0	0	507	509	0	0	
2	0	0	0	0	505	509	0	0	
3	0	0	0	0	502	507	0	0	
4	0	0	0	0	501	510	0	0	
5	0	0	0	0	505	507	0	0	
6	0	0	0	0	510	510	0	0	
7	0	0	0	0	511	511	0	0	
8	0	0	0	0	511	510	0	0	
9	0	0	0	0	508	511	0	0	
10	0	0	0	0	509	510	0	0	
11	0	0	0	0	511	513	0	0	
12	0	0	0	0	512	511	0	0	
13	0	0	0	0	512	511	0	0	
14	0	0	0	0	512	513	0	0	
15	0	0	0	0	511	511	0	0	
0	0	0	0	0	511	510	0	0	
1	0	0	0	0	510	510	0	0	
2	0	0	0	0	510	510	0	0	
3	0	0	0	0	504	510	0	0	
4	0	0	0	0	505	510	0	0	
5	0	0	0	0	504	510	0	0	
6	0	0	0	0	503	509	0	0	
7	0	0	0	0	503	511	0	0	
8	0	0	0	0	503	509	0	0	
9	0	0	0	0	504	510	0	0	
10	0	0	0	0	507	508	0	0	
11	0	0	0	0	513	511	0	0	
12	0	0	0	0	513	511	0	0	
13	0	0	0	0	512	508	0	0	
14	0	0	0	0	511	510	0	0	
15	0	0	0	0	511	511	0	0	
0	0	0	0	0	513	511	0	0	
1	0	0	0	0	512	512	0	0	
2	0	0	0	0	508	509	0	0	
3	0	0	0	0	509	512	0	0	
4	0	0	0	0	511	513	0	0	
5	0	0	0	0	511	511	0	0	
6	0	0	0	0	507	511	0	0	
7	0	0	0	0	507	508	0	0	
8	0	0	0	0	506	511	0	0	
9	0	0	0	0	504	511	0	0	
10	0	0	0	0	501	509	0	0	
11	0	0	0	0	503	509	0	0	
12	0	0	0	0	508	508	0	0	
13	0	0	0	0	507	508	0	0	
14	0	0	0	0	506	510	0	0	
15	0	0	0	0	508	509	0	0	
0	0	0	0	0	509	510	0	0	
1	0	0	0	0	510	510	0	0	
2	0	0	0	0	512	511	0	0	
3	0	0	0	0	512	512	0	0	
4	0	0	0	0	513	511	0	0	
5	0	0	0	0	514	513	0	0	
6	0	0	0	0	512	511	0	0	
7	0	0	0	0	511	510	0	0	
8	0	0	0	0	511	508	0	0	
9	0	0	0	0	508	510	0	0	
10	0	0	0	0	506	512	0	0	
11	0	0	0	0	504	510	0	0	
12	0	0	0	0	500	510	0	0	
13	0	0	0	0	500	512	0	0	
14	0	0	0	0	504	513	0	0	
15	0	0	0	0	506	510	0	0	
0	0	0	0	0	509	511	0	0	
1	0	0	0	0	510	510	0	0	
2	0	0	0	0	509	513	0	0	
3	0	0	0	0	510	512	0	0	
4	0	0	0	0	511	510	0	0	
5	0	0	0	0	510	509	0	0	
6	0	0	0	0	507	509	0	0	
7	0	0	0	0	511	510	0	0	
8	0	0	0	0	514	510	0	0	
9	0	0	0	0	514	510	0	0	
10	0	0	0	0	512	511	0	0	
11	0	0	0	0	511	510	0	0	
12	0	0	0	0	510	512	0	0	
13	0	0	0	0	508	512	0	0	
14	0	0	0	0	508	512	0	0	
15	0	0	0	0	505	509	0	0	
0	0	0	0	0	505	510	0	0	
1	0	0	0	0	505	512	0	0	
2	0	0	0	0	505	508	0	0	
3	0	0	0	0	506	511	0	0	
4	0	0	0	0	504	507	0	0	
5	0	0	0	0	502	508	0	0	
6	0	0	0	0	509	510	0	0	
7	0	0	0	0	509	510	0	0	
8	0	0	0	0	510	511	0	0	
9	0	0	0	0	511	509	0	0	
10	0	0	0	0	514	512	0	0	
11	0	0	0	0	513	510	0	0	
12	0	0	0	0	514	510	0	0	
13	0	0	0	0	514	514	0	0	
14	0	0	0	0	512	512	0	0	
15	0	0	0	0	510	511	0	0	
0	0	0	0	0	512	512	0	0	
1	0	0	0	0	510	512	0	0	
2	0	0	0	0	508	510	0	0	
3	0	0	0	0	508	510	0	0	
4	0	0	0	0	507	510	0	0	
5	0	0	0	0	502	510	0	0	
6	0	0	0	0	504	508	0	0	
7	0	0	0	0	505	511	0	0	
8	0	0	0	0	503	509	0	0	
9	0	0	0	0	509	511	0	0	
10	0	0	0	0	512	511	0	0	
11	0	0	0	0	508	510	0	0	
12	0	0	0	0	508	511	0	0	
13	0	0	0	0	510	510	0	0	
14	0	0	0	0	511	510	0	0	
15	0	0	0	0	512	510	0	0	
0	0	0	0	0	512	510	0	0	
1	0	0	0	0	509	510	0	0	
2	0	0	0	0	510	511	0	0	
3	0	0	0	0	510	513	0	0	
4	0	0	0	0	511	511	0	0	
5	0	0	0	0	508	509	0	0	
6	0	0	0	0	511	509	0	0	
7	0	0	0	0	508	511	0	0	
8	0	0	0	0	509	511	0	0	
9	0	0	0	0	507	512	0	0	
10	0	0	0	0	504	510	0	0	
11	0	0	0	0	504	510	0	0	
12	0	0	0	0	502	508	0	0	
13	0	0	0	0	503	508	0	0	
14	0	0	0	0	505	510	0	0	
15	0	0	0	0	509	513	0	0	
0	0	0	0	0	510	512	0	0	
1	0	0	0	0	509	511	0	0	
2	0	0	0	0	510	511	0	0	
3	0	0	0	0	512	508	0	0	
4	0	0	0	0	513	511	0	0	
5	0	0	0	0	512	513	0	0	
6	0	0	0	0	513	512	0	0	
7	0	0	0	0	512	508	0	0	
8	0	0	0	0	511	511	0	0	
9	0	0	0	0	511	511	0	0	
10	0	0	0	0	507	510	0	0	
11	0	0	0	0	507	509	0	0	
12	0	0	0	0	508	511	0	0	
13	0	0	0	0	504	511	0	0	
14	0	0	0	0	502	511	0	0	
15	0	0	0	0	505	512	0	0	
0	0	0	0	0	505	509	0	0	
1	0	0	0	0	505	508	0	0	
2	0	0	0	0	505	508	0	0	
3	0	0	0	0	503	510	0	0	
4	0	0	0	0	510	509	0	0	
5	0	0	0	0	515	510	0	0	
6	0	0	0	0	513	510	0	0	
7	0	0	0	0	517	512	0	0	
8	0	0	0	0	516	512	0	0	
9	0	0	0	0	512	513	0	0	
10	0	0	0	0	510	510	0	0	
11	0	0	0	0	510	511	0	0	
12	0	0	0	0	509	511	0	0	
13	0	0	0	0	505	510	0	0	
14	0	0	0	0	505	512	0	0	
15	0	0	0	0	503	512	0	0	
0	0	0	0	0	505	510	0	0	
1	0	0	0	0	506	510	0	0	
2	0	0	0	0	504	510	0	0	
3	0	0	0	0	508	511	0	0	
4	0	0	0	0	510	509	0	0	
5	0	0	0	0	507	510	0	0	
6	0	0	0	0	509	511	0	0	
7	0	0	0	0	511	510	0	0	
8	0	0	0	0	511	512	0	0	
9	0	0	0	0	511	511	0	0	
10	0	0	0	0	512	509	0	0	
11	0	0	0	0	513	511	0	0	
12	0	0	0	0	513	512	0	0	
13	0	0	0	0	509	512	0	0	
14	0	0	0	0	508	511	0	0	
15	0	0	0	0	505	509	0	0	
0	0	0	0	0	510	511	0	0	
1	0	0	0	0	509	512	0	0	
2	0	0	0	0	508	513	0	0	
3	0	0	0	0	509	510	0	0	
4	0	0	0	0	505	508	0	0	
5	0	0	0	0	505	509	0	0	
6	0	0	0	0	502	510	0	0	
7	0	0	0	0	505	510	0	0	
8	0	0	0	0	507	509	0	0	
9	0	0	0	0	510	511	0	0	
10	0	0	0	0	509	511	0	0	
11	0	0	0	0	508	509	0	0	
12	0	0	0	0	509	508	0	0	
13	0	0	0	0	507	510	0	0	
14	0	0	0	0	504	509	0	0	
15	0	0	0	0	513	512	0	0	
0	0	0	0	0	513	511	0	0	
1	0	0	0	0	513	511	0	0	
2	0	0	0	0	510	510	0	0	
3	0	0	0	0	508	508	0	0	
4	0	0	0	0	506	510	0	0	
5	0	0	0	0	508	511	0	0	
6	0	0	0	0	512	512	0	0	
7	0	0	0	0	513	511	0	0	
8	0	0	0	0	507	510	0	0	
9	0	0	0	0	505	509	0	0	
10	0	0	0	0	503	509	0	0	
11	0	0	0	0	504	508	0	0	
12	0	0	0	0	508	508	0	0	
13	0	0	0	0	508	511	0	0	
14	0	0	0	0	507	511	0	0	
15	0	0	0	0	510	512	0	0	
0	0	0	0	0	510	511	0	0	
1	0	0	0	0	512	512	0	0	
2	0	0	0	0	510	511	0	0	
3	0	0	0	0	510	513	0	0	
4	0	0	0	0	511	511	0	0	
5	0	0	0	0	511	513	0	0	
6	0	0	0	0	511	512	0	0	
7	0	0	0	0	514	511	0	0	
8	0	0	0	0	514	512	0	0	
9	0	0	0	0	509	511	0	0	
10	0	0	0	0	504	511	0	0	
11	0	0	0	0	505	508	0	0	
12	0	0	0	0	507	511	0	0	
13	0	0	0	0	504	508	0	0	
14	0	0	0	0	505	510	0	0	
15	0	0	0	0	504	510	0	0	
0	0	0	0	0	504	512	0	0	
1	0	0	0	0	505	509	0	0	
2	0	0	0	0	510	512	0	0	
3	0	0	0	0	510	511	0	0	
4	0	0	0	0	511	510	0	0	
5	0	0	0	0	513	510	0	0	
6	0	0	0	0	513	510	0	0	
7	0	0	0	0	512	511	0	0	
8	0	0	0	0	508	511	0	0	
9	0	0	0	0	511	510	0	0	
10	0	0	0	0	512	511	0	0	
11	0	0	0	0	510	512	0	0	
12	0	0	0	0	510	510	0	0	
13	0	0	0	0	509	511	0	0	
14	0	0	0	0	507	510	0	0	
15	0	0	0	0	507	508	0	0	
0	0	0	0	0	507	511	0	0	
1	0	0	0	0	504	511	0	0	
2	0	0	0	0	504	511	0	0	
3	0	0	0	0	505	509	0	0	
4	0	0	0	0	504	511	0	0	
5	0	0	0	0	508	511	0	0	
6	0	0	0	0	509	511	0	0	
7	0	0	0	0	506	509	0	0	
8	0	0	0	0	511	509	0	0	
9	0	0	0	0	513	512	0	0	
10	0	0	0	0	511	512	0	0	
11	0	0	0	0	510	511	0	0	
12	0	0	0	0	515	512	0	0	
13	0	0	0	0	512	511	0	0	
14	0	0	0	0	512	511	0	0	
15	0	0	0	0	510	511	0	0	
0	0	0	0	0	508	511	0	0	
1	0	0	0	0	507	510	0	0	
2	0	0	0	0	507	511	0	0	
3	0	0	0	0	507	510	0	0	
4	0	0	0	0	508	509	0	0	
5	0	0	0	0	506	512	0	0	
6	0	0	0	0	507	508	0	0	
7	0	0	0	0	507	508	0	0	
8	0	0	0	0	505	507	0	0	
9	0	0	0	0	504	509	0	0	
10	0	0	0	0	500	511	0	0	
11	0	0	0	0	504	509	0	0	
12	0	0	0	0	510	509	0	0	
13	0	0	0	0	510	510	0	0	
14	0	0	0	0	510	511	0	0	
15	0	0	0	0	511	511	0	0	
0	0	0	0	0	515	509	0	0	
1	0	0	0	0	515	511	0	0	
2	0	0	0	0	515	510	0	0	
3	0	0	0	0	510	513	0	0	
4	0	0	0	0	509	511	0	0	
5	0	0	0	0	511	511	0	0	
6	0	0	0	0	509	511	0	0	
7	0	0	0	0	504	510	0	0	
8	0	0	0	0	503	511	0	0	
9	0	0	0	0	503	511	0	0	
10	0	0	0	0	506	511	0	0	
11	0	0	0	0	504	511	0	0	
12	0	0	0	0	503	511	0	0	
13	0	0	0	0	506	508	0	0	
14	0	0	0	0	505	509	0	0	
15	0	0	0	0	508	512	0	0	
0	0	0	0	0	511	510	0	0	
1	0	0	0	0	519	509	0	0	
2	0	0	0	0	516	510	0	0	
3	0	0	0	0	512	510	0	0	
4	0	0	0	0	516	509	0	0	
5	0	0	0	0	512	511	0	0	
6	0	0	0	0	511	511	0	0	
7	0	0	0	0	513	511	0	0	
8	0	0	0	0	508	512	0	0	
9	0	0	0	0	504	510	0	0	
10	0	0	0	0	503	511	0	0	
11	0	0	0	0	502	510	0	0	
12	0	0	0	0	503	510	0	0	
13	0	0	0	0	504	511	0	0	
14	0	0	0	0	505	511	0	0	
15	0	0	0	0	507	512	0	0	
0	0	0	0	0	507	511	0	0	
1	0	0	0	0	507	510	0	0	
2	0	0	0	0	506	511	0	0	
3	0	0	0	0	508	509	0	0	
4	0	0	0	0	513	511	0	0	
5	0	0	0	0	512	508	0	0	
6	0	0	0	0	512	508	0	0	
7	0	0	0	0	512	509	0	0	
8	0	0	0	0	513	511	0	0	
9	0	0	0	0	512	512	0	0	
10	0	0	0	0	514	510	0	0	
11	0	0	0	0	513	510	0	0	
12	0	0	0	0	511	512	0	0	
13	0	0	0	0	508	508	0	0	
14	0	0	0	0	504	514	0	0	
15	0	0	0	0	506	510	0	0	
0	0	0	0	0	504	510	0	0	
1	0	0	0	0	501	511	0	0	
2	0	0	0	0	504	511	0	0	
3	0	0	0	0	506	509	0	0	
4	0	0	0	0	506	511	0	0	
5	0	0	0	0	508	511	0	0	
6	0	0	0	0	508	509	0	0	
7	0	0	0	0	506	512	0	0	
8	0	0	0	0	508	510	0	0	
9	0	0	0	0	513	511	0	0	
10	0	0	0	0	510	510	0	0	
11	0	0	0	0	511	510	0	0	
12	0	0	0	0	513	512	0	0	
13	0	0	0	0	515	510	0	0	
14	0	0	0	0	511	511	0	0	
15	0	0	0	0	510	512	0	0	
0	0	0	0	0	510	512	0	0	
1	0	0	0	0	508	512	0	0	
2	0	0	0	0	508	511	0	0	
3	0	0	0	0	506	511	0	0	
4	0	0	0	0	505	510	0	0	
5	0	0	0	0	503	509	0	0	
6	0	0	0	0	503	508	0	0	
7	0	0	0	0	506	509	0	0	
8	0	0	0	0	508	507	0	0	
9	0	0	0	0	507	510	0	0	
10	0	0	0	0	509	510	0	0	
11	0	0	0	0	511	511	0	0	
12	0	0	0	0	512	509	0	0	
13	0	0	0	0	513	510	0	0	
14	0	0	0	0	511	511	0	0	
15	0	0	0	0	512	512	0	0	
0	0	0	0	0	511	512	0	0	
1	0	0	0	0	509	512	0	0	
2	0	0	0	0	510	512	0	0	
3	0	0	0	0	508	510	0	0	
4	0	0	0	0	511	511	0	0	
5	0	0	0	0	511	512	0	0	
6	0	0	0	0	508	508	0	0	
7	0	0	0	0	507	508	0	0	
8	0	0	0	0	507	511	0	0	
9	0	0	0	0	505	512	0	0	
10	0	0	0	0	503	513	0	0	
11	0	0	0	0	505	510	0	0	
12	0	0	0	0	506	512	0	0	
13	0	0	0	0	503	509	0	0	
14	0	0	0	0	506	510	0	0	
15	0	0	0	0	509	510	0	0	
0	0	0	0	0	512	510	0	0	
1	0	0	0	0	511	507	0	0	
2	0	0	0	0	511	511	0	0	
3	0	0	0	0	508	511	0	0	
4	0	0	0	0	513	510	0	0	
5	0	0	0	0	514	513	0	0	
6	0	0	0	0	513	511	0	0	
7	0	0	0	0	511	510	0	0	
8	0	0	0	0	508	511	0	0	
9	0	0	0	0	509	510	0	0	
10	0	0	0	0	508	510	0	0	
11	0	0	0	0	503	508	0	0	
12	0	0	0	0	507	510	0	0	
13	0	0	0	0	507	512	0	0	
14	0	0	0	0	501	512	0	0	
15	0	0	0	0	503	510	0	0	
0	0	0	0	0	505	510	0	0	
1	0	0	0	0	505	510	0	0	
2	0	0	0	0	507	510	0	0	
3	0	0	0	0	509	508	0	0	
4	0	0	0	0	515	511	0	0	
5	0	0	0	0	515	512	0	0	
6	0	0	0	0	513	511	0	0	
7	0	0	0	0	515	511	0	0	
8	0	0	0	0	514	511	0	0	
9	0	0	0	0	512	511	0	0	
10	0	0	0	0	509	510	0	0	
11	0	0	0	0	512	511	0	0	
12	0	0	0	0	512	511	0	0	
13	0	0	0	0	511	511	0	0	
14	0	0	0	0	506	512	0	0	
15	0	0	0	0	501	512	0	0	
0	0	0	0	0	502	508	0	0	
1	0	0	0	0	502	510	0	0	
2	0	0	0	0	503	508	0	0	
3	0	0	0	0	501	510	0	0	
4	0	0	0	0	506	509	0	0	
5	0	0	0	0	508	508	0	0	
6	0	0	0	0	505	512	0	0	
7	0	0	0	0	509	512	0	0	
8	0	0	0	0	514	511	0	0	
9	0	0	0	0	513	511	0	0	
10	0	0	0	0	514	512	0	0	
11	0	0	0	0	513	511	0	0	
12	0	0	0	0	512	511	0	0	
13	0	0	0	0	512	511	0	0	
14	0	0	0	0	514	513	0	0	
15	0	0	0	0	514	514	0	0	
0	0	0	0	0	510	511	0	0	
1	0	0	0	0	508	511	0	0	
2	0	0	0	0	505	511	0	0	
3	0	0	0	0	503	508	0	0	
4	0	0	0	0	504	511	0	0	
5	0	0	0	0	505	511	0	0	
6	0	0	0	0	504	511	0	0	
7	0	0	0	0	504	510	0	0	
8	0	0	0	0	503	506	0	0	
9	0	0	0	0	507	507	0	0	
10	0	0	0	0	508	508	0	0	
11	0	0	0	0	506	510	0	0	
12	0	0	0	0	508	512	0	0	
13	0	0	0	0	510	508	0	0	
14	0	0	0	0	515	511	0	0	
15	0	0	0	0	512	512	0	0	
0	0	0	0	0	511	511	0	0	
1	0	0	0	0	510	511	0	0	
2	0	0	0	0	513	512	0	0	
3	0	0	0	0	516	510	0	0	
4	0	0	0	0	509	513	0	0	
5	0	0	0	0	509	508	0	0	
6	0	0	0	0	507	508	0	0	
7	0	0	0	0	507	510	0	0	
8	0	0	0	0	506	512	0	0	
9	0	0	0	0	503	511	0	0	
10	0	0	0	0	500	508	0	0	
11	0	0	0	0	503	509	0	0	
12	0	0	0	0	505	510	0	0	
13	0	0	0	0	509	511	0	0	
14	0	0	0	0	511	511	0	0	
15	0	0	0	0	510	511	0	0	
0	0	0	0	0	509	510	0	0	
1	0	0	0	0	510	510	0	0	
2	0	0	0	0	509	510	0	0	
3	0	0	0	0	511	512	0	0	
4	0	0	0	0	515	512	0	0	
5	0	0	0	0	514	511	0	0	
6	0	0	0	0	513	510	0	0	
7	0	0	0	0	515	512	0	0	
8	0	0	0	0	511	511	0	0	
9	0	0	0	0	508	509	0	0	
10	0	0	0	0	506	512	0	0	
11	0	0	0	0	507	513	0	0	
12	0	0	0	0	504	510	0	0	
13	0	0	0	0	502	510	0	0	
14	0	0	0	0	502	510	0	0	
15	0	0	0	0	500	509	0	0	
0	0	0	0	0	500	511	0	0	
1	0	0	0	0	506	510	0	0	
2	0	0	0	0	507	509	0	0	
3	0	0	0	0	509	510	0	0	
4	0	0	0	0	513	511	0	0	
5	0	0	0	0	515	512	0	0	
6	0	0	0	0	514	511	0	0	
7	0	0	0	0	516	512	0	0	
8	0	0	0	0	513	510	0	0	
9	0	0	0	0	513	512	0	0	
10	0	0	0	0	511	511	0	0	
11	0	0	0	0	510	511	0	0	
12	0	0	0	0	508	511	0	0	
13	0	0	0	0	510	512	0	0	
14	0	0	0	0	508	511	0	0	
15	0	0	0	0	507	510	0	0	
0	0	0	0	0	506	510	0	0	
1	0	0	0	0	504	511	0	0	
2	0	0	0	0	502	510	0	0	
3	0	0	0	0	503	509	0	0	
4	0	0	0	0	504	507	0	0	
5	0	0	0	0	508	508	0	0	
6	0	0	0	0	510	510	0	0	
7	0	0	0	0	510	509	0	0	
8	0	0	0	0	511	508	0	0	
9	0	0	0	0	512	509	0	0	
10	0	0	0	0	513	510	0	0	
11	0	0	0	0	513	510	0	0	
12	0	0	0	0	512	511	0	0	
13	0	0	0	0	512	511	0	0	
14	0	0	0	0	511	512	0	0	
15	0	0	0	0	512	512	0	0	
0	0	0	0	0	509	513	0	0	
1	0	0	0	0	509	510	0	0	
2	0	0	0	0	507	509	0	0	
3	0	0	0	0	504	509	0	0	
4	0	0	0	0	505	510	0	0	
5	0	0	0	0	502	510	0	0	
6	0	0	0	0	504	510	0	0	
7	0	0	0	0	504	511	0	0	
8	0	0	0	0	504	510	0	0	
9	0	0	0	0	506	510	0	0	
10	0	0	0	0	505	509	0	0	
11	0	0	0	0	508	511	0	0	
12	0	0	0	0	507	512	0	0	
13	0	0	0	0	513	512	0	0	
14	0	0	0	0	516	511	0	0	
15	0	0	0	0	519	511	0	0	
0	0	0	0	0	518	511	0	0	
1	0	0	0	0	511	512	0	0	
2	0	0	0	0	509	511	0	0	
3	0	0	0	0	511	512	0	0	
4	0	0	0	0	510	510	0	0	
5	0	0	0	0	507	508	0	0	
6	0	0	0	0	504	510	0	0	
7	0	0	0	0	503	512	0	0	
8	0	0	0	0	504	510	0	0	
9	0	0	0	0	503	511	0	0	
10	0	0	0	0	508	509	0	0	
11	0	0	0	0	507	510	0	0	
12	0	0	0	0	505	510	0	0	
13	0	0	0	0	508	508	0	0	
14	0	0	0	0	505	508	0	0	
15	0	0	0	0	507	508	0	0	
0	0	0	0	0	509	510	0	0	
1	0	0	0	0	509	512	0	0	
2	0	0	0	0	509	509	0	0	
3	0	0	0	0	510	511	0	0	
4	0	0	0	0	511	512	0	0	
5	0	0	0	0	515	512	0	0	
6	0	0	0	0	514	511	0	0	
7	0	0	0	0	511	513	0	0	
8	0	0	0	0	512	513	0	0	
9	0	0	0	0	510	512	0	0	
10	0	0	0	0	507	509	0	0	
11	0	0	0	0	508	510	0	0	
12	0	0	0	0	506	510	0	0	
13	0	0	0	0	502	511	0	0	
14	0	0	0	0	504	511	0	0	
15	0	0	0	0	507	512	0	0	
0	0	0	0	0	505	510	0	0	
1	0	0	0	0	506	510	0	0	
2	0	0	0	0	506	509	0	0	
3	0	0	0	0	507	509	0	0	
4	0	0	0	0	509	508	0	0	
5	0	0	0	0	510	510	0	0	
6	0	0	0	0	510	511	0	0	
7	0	0	0	0	510	512	0	0	
8	0	0	0	0	514	512	0	0	
9	0	0	0	0	513	511	0	0	
10	0	0	0	0	512	513	0	0	
11	0	0	0	0	510	511	0	0	
12	0	0	0	0	512	513	0	0	
13	0	0	0	0	510	511	0	0	
14	0	0	0	0	503	509	0	0	
15	0	0	0	0	504	512	0	0	
0	0	0	0	0	505	511	0	0	
1	0	0	0	0	507	510	0	0	
2	0	0	0	0	506	510	0	0	
3	0	0	0	0	507	510	0	0	
4	0	0	0	0	504	510	0	0	
5	0	0	0	0	507	512	0	0	
6	0	0	0	0	506	510	0	0	
7	0	0	0	0	507	511	0	0	
8	0	0	0	0	511	508	0	0	
9	0	0	0	0	512	510	0	0	
10	0	0	0	0	511	510	0	0	
11	0	0	0	0	513	508	0	0	
12	0	0	0	0	513	509	0	0	
13	0	0	0	0	514	508	0	0	
14	0	0	0	0	512	510	0	0	
15	0	0	0	0	513	510	0	0	
0	0	0	0	0	511	512	0	0	
1	0	0	0	0	509	511	0	0	
2	0	0	0	0	509	512	0	0	
3	0	0	0	0	506	512	0	0	
4	0	0	0	0	505	510	0	0	
5	0	0	0	0	501	510	0	0	
6	0	0	0	0	503	509	0	0	
7	0	0	0	0	505	511	0	0	
8	0	0	0	0	506	510	0	0	
9	0	0	0	0	507	511	0	0	
10	0	0	0	0	511	513	0	0	
11	0	0	0	0	510	511	0	0	
12	0	0	0	0	508	508	0	0	
13	0	0	0	0	509	508	0	0	
14	0	0	0	0	509	510	0	0	
15	0	0	0	0	512	511	0	0	
0	0	0	0	0	513	512	0	0	
1	0	0	0	0	513	513	0	0	
2	0	0	0	0	511	513	0	0	
3	0	0	0	0	508	510	0	0	
4	0	0	0	0	505	510	0	0	
5	0	0	0	0	509	510	0	0	
6	0	0	0	0	508	511	0	0	
7	0	0	0	0	509	509	0	0	
8	0	0	0	0	507	510	0	0	
9	0	0	0	0	505	510	0	0	
10	0	0	0	0	504	510	0	0	
11	0	0	0	0	504	511	0	0	
12	0	0	0	0	505	510	0	0	
13	0	0	0	0	507	510	0	0	
14	0	0	0	0	508	509	0	0	
15	0	0	0	0	505	508	0	0	
0	0	0	0	0	512	513	0	0	
1	0	0	0	0	512	513	0	0	
2	0	0	0	0	511	510	0	0	
3	0	0	0	0	512	510	0	0	
4	0	0	0	0	511	511	0	0	
5	0	0	0	0	512	512	0	0	
6	0	0	0	0	511	511	0	0	
7	0	0	0	0	511	512	0	0	
8	0	0	0	0	510	510	0	0	
9	0	0	0	0	508	508	0	0	
10	0	0	0	0	508	511	0	0	
11	0	0	0	0	507	510	0	0	
12	0	0	0	0	504	509	0	0	
13	0	0	0	0	501	511	0	0	
14	0	0	0	0	505	511	0	0	
15	0	0	0	0	506	510	0	0	
0	0	0	0	0	507	510	0	0	
1	0	0	0	0	507	508	0	0	
2	0	0	0	0	508	508	0	0	
3	0	0	0	0	509	509	0	0	
4	0	0	0	0	509	511	0	0	
5	0	0	0	0	512	512	0	0	
6	0	0	0	0	513	511	0	0	
7	0	0	0	0	515	513	0	0	
8	0	0	0	0	513	511	0	0	
9	0	0	0	0	510	512	0	0	
10	0	0	0	0	512	509	0	0	
11	0	0	0	0	509	511	0	0	
12	0	0	0	0	507	510	0	0	
13	0	0	0	0	505	512	0	0	
14	0	0	0	0	507	510	0	0	
15	0	0	0	0	509	511	0	0	
0	0	0	0	0	507	512	0	0	
1	0	0	0	0	504	510	0	0	
2	0	0	0	0	504	508	0	0	
3	0	0	0	0	502	507	0	0	
4	0	0	0	0	504	509	0	0	
5	0	0	0	0	508	511	0	0	
6	0	0	0	0	511	511	0	0	
7	0	0	0	0	513	511	0	0	
8	0	0	0	0	512	509	0	0	
9	0	0	0	0	511	508	0	0	
10	0	0	0	0	511	511	0	0	
11	0	0	0	0	511	511	0	0	
12	0	0	0	0	510	513	0	0	
13	0	0	0	0	510	512	0	0	
14	0	0	0	0	511	511	0	0	
15	0	0	0	0	511	513	0	0	
0	0	0	0	0	513	511	0	0	
1	0	0	0	0	510	511	0	0	
2	0	0	0	0	509	508	0	0	
3	0	0	0	0	505	509	0	0	
4	0	0	0	0	505	511	0	0	
5	0	0	0	0	505	510	0	0	
6	0	0	0	0	502	510	0	0	
7	0	0	0	0	504	513	0	0	
8	0	0	0	0	500	511	0	0	
9	0	0	0	0	502	510	0	0	
10	0	0	0	0	506	510	0	0	
11	0	0	0	0	508	511	0	0	
12	0	0	0	0	515	508	0	0	
13	0	0	0	0	510	509	0	0	
14	0	0	0	0	514	512	0	0	
15	0	0	0	0	514	511	0	0	
0	0	0	0	0	514	511	0	0	
1	0	0	0	0	512	511	0	0	
2	0	0	0	0	513	512	0	0	
3	0	0	0	0	510	511	0	0	
4	0	0	0	0	509	510	0	0	
5	0	0	0	0	508	508	0	0	
6	0	0	0	0	508	508	0	0	
7	0	0	0	0	506	511	0	0	
8	0	0	0	0	504	512	0	0	
9	0	0	0	0	504	514	0	0	
10	0	0	0	0	506	512	0	0	
11	0	0	0	0	504	509	0	0	
12	0	0	0	0	504	511	0	0	
13	0	0	0	0	505	509	0	0	
14	0	0	0	0	503	509	0	0	
15	0	0	0	0	509	510	0	0	
0	0	0	0	0	511	511	0	0	
1	0	0	0	0	512	513	0	0	
2	0	0	0	0	514	511	0	0	
3	0	0	0	0	514	512	0	0	
4	0	0	0	0	510	511	0	0	
5	0	0	0	0	512	510	0	0	
6	0	0	0	0	513	511	0	0	
7	0	0	0	0	512	509	0	0	
8	0	0	0	0	507	510	0	0	
9	0	0	0	0	507	510	0	0	
10	0	0	0	0	505	507	0	0	
11	0	0	0	0	508	509	0	0	
12	0	0	0	0	506	510	0	0	
13	0	0	0	0	505	510	0	0	
14	0	0	0	0	507	508	0	0	
15	0	0	0	0	507	510	0	0	
0	0	0	0	0	505	511	0	0	
1	0	0	0	0	508	511	0	0	
2	0	0	0	0	507	508	0	0	
3	0	0	0	0	506	510	0	0	
4	0	0	0	0	506	511	0	0	
5	0	0	0	0	510	510	0	0	
6	0	0	0	0	511	512	0	0	
7	0	0	0	0	515	511	0	0	
8	0	0	0	0	514	511	0	0	
9	0	0	0	0	511	511	0	0	
10	0	0	0	0	512	510	0	0	
11	0	0	0	0	514	512	0	0	
12	0	0	0	0	515	511	0	0	
13	0	0	0	0	510	510	0	0	
14	0	0	0	0	504	511	0	0	
15	0	0	0	0	506	508	0	0	
0	0	0	0	0	505	509	0	0	
1	0	0	0	0	504	509	0	0	
2	0	0	0	0	504	511	0	0	
3	0	0	0	0	502	511	0	0	
4	0	0	0	0	501	511	0	0	
5	0	0	0	0	503	511	0	0	
6	0	0	0	0	506	512	0	0	
7	0	0	0	0	508	511	0	0	
8	0	0	0	0	511	511	0	0	
9	0	0	0	0	513	511	0	0	
10	0	0	0	0	511	511	0	0	
11	0	0	0	0	515	511	0	0	
12	0	0	0	0	516	510	0	0	
13	0	0	0	0	514	512	0	0	
14	0	0	0	0	512	511	0	0	
15	0	0	0	0	511	509	0	0	
0	0	0	0	0	508	509	0	0	
1	0	0	0	0	507	511	0	0	
2	0	0	0	0	507	509	0	0	
3	0	0	0	0	504	511	0	0	
4	0	0	0	0	505	511	0	0	
5	0	0	0	0	504	513	0	0	
6	0	0	0	0	504	510	0	0	
7	0	0	0	0	506	508	0	0	
8	0	0	0	0	505	509	0	0	
9	0	0	0	0	504	506	0	0	
10	0	0	0	0	508	508	0	0	
11	0	0	0	0	510	509	0	0	
12	0	0	0	0	514	511	0	0	
13	0	0	0	0	515	512	0	0	
14	0	0	0	0	512	511	0	0	
15	0	0	0	0	507	510	0	0	
0	0	0	0	0	509	511	0	0	
1	0	0	0	0	511	508	0	0	
2	0	0	0	0	515	511	0	0	
3	0	0	0	0	512	513	0	0	
4	0	0	0	0	510	512	0	0	
5	0	0	0	0	506	512	0	0	
6	0	0	0	0	504	510	0	0	
7	0	0	0	0	506	511	0	0	
8	0	0	0	0	508	510	0	0	
9	0	0	0	0	506	510	0	0	
10	0	0	0	0	504	510	0	0	
11	0	0	0	0	505	510	0	0	
12	0	0	0	0	505	511	0	0	
13	0	0	0	0	505	511	0	0	
14	0	0	0	0	503	509	0	0	
15	0	0	0	0	506	511	0	0	
0	0	0	0	0	514	513	0	0	
1	0	0	0	0	512	510	0	0	
2	0	0	0	0	514	513	0	0	
3	0	0	0	0	514	511	0	0	
4	0	0	0	0	512	509	0	0	
5	0	0	0	0	511	510	0	0	
6	0	0	0	0	512	510	0	0	
7	0	0	0	0	511	511	0	0	
8	0	0	0	0	510	509	0	0	
9	0	0	0	0	511	507	0	0	
10	0	0	0	0	508	510	0	0	
11	0	0	0	0	505	509	0	0	
12	0	0	0	0	503	510	0	0	
13	0	0	0	0	503	508	0	0	
14	0	0	0	0	502	510	0	0	
15	0	0	0	0	505	511	0	0	
0	0	0	0	0	507	511	0	0	
1	0	0	0	0	506	511	0	0	
2	0	0	0	0	507	513	0	0	
3	0	0	0	0	508	511	0	0	
4	0	0	0	0	511	512	0	0	
5	0	0	0	0	511	510	0	0	
6	0	0	0	0	513	511	0	0	
7	0	0	0	0	512	511	0	0	
8	0	0	0	0	513	512	0	0	
9	0	0	0	0	513	511	0	0	
10	0	0	0	0	512	512	0	0	
11	0	0	0	0	515	512	0	0	
12	0	0	0	0	511	511	0	0	
13	0	0	0	0	507	509	0	0	
14	0	0	0	0	506	511	0	0	
15	0	0	0	0	504	509	0	0	
0	0	0	0	0	507	511	0	0	
1	0	0	0	0	505	509	0	0	
2	0	0	0	0	505	508	0	0	
3	0	0	0	0	502	510	0	0	
4	0	0	0	0	501	508	0	0	
5	0	0	0	0	503	509	0	0	
6	0	0	0	0	506	510	0	0	
7	0	0	0	0	507	508	0	0	
8	0	0	0	0	512	509	0	0	
9	0	0	0	0	515	511	0	0	
10	0	0	0	0	515	513	0	0	
11	0	0	0	0	515	512	0	0	
12	0	0	0	0	515	511	0	0	
13	0	0	0	0	514	511	0	0	
14	0	0	0	0	513	512	0	0	
15	0	0	0	0	511	512	0	0	
0	0	0	0	0	508	512	0	0	
1	0	0	0	0	508	510	0	0	
2	0	0	0	0	506	510	0	0	
3	0	0	0	0	505	508	0	0	
4	0	0	0	0	505	509	0	0	
5	0	0	0	0	502	509	0	0	
6	0	0	0	0	500	509	0	0	
7	0	0	0	0	504	509	0	0	
8	0	0	0	0	504	508	0	0	
9	0	0	0	0	505	511	0	0	
10	0	0	0	0	509	510	0	0	
11	0	0	0	0	507	512	0	0	
12	0	0	0	0	510	510	0	0	
13	0	0	0	0	511	512	0	0	
14	0	0	0	0	510	512	0	0	
15	0	0	0	0	514	513	0	0	
0	0	0	0	0	515	511	0	0	
1	0	0	0	0	514	509	0	0	
2	0	0	0	0	513	510	0	0	
3	0	0	0	0	510	508	0	0	
4	0	0	0	0	511	510	0	0	
5	0	0	0	0	511	513	0	0	
6	0	0	0	0	506	511	0	0	
7	0	0	0	0	506	511	0	0	
8	0	0	0	0	506	511	0	0	
9	0	0	0	0	504	510	0	0	
10	0	0	0	0	502	510	0	0	
11	0	0	0	0	504	510	0	0	
12	0	0	0	0	506	511	0	0	
13	0	0	0	0	507	511	0	0	
14	0	0	0	0	510	511	0	0	
15	0	0	0	0	507	511	0	0	
0	0	0	0	0	509	510	0	0	
1	0	0	0	0	510	512	0	0	
2	0	0	0	0	511	510	0	0	
3	0	0	0	0	512	511	0	0	
4	0	0	0	0	514	512	0	0	
5	0	0	0	0	515	512	0	0	
6	0	0	0	0	511	513	0	0	
7	0	0	0	0	509	510	0	0	
8	0	0	0	0	511	512	0	0	
9	0	0	0	0	508	510	0	0	
10	0	0	0	0	507	510	0	0	
11	0	0	0	0	507	511	0	0	
12	0	0	0	0	507	511	0	0	
13	0	0	0	0	504	509	0	0	
14	0	0	0	0	504	510	0	0	
15	0	0	0	0	503	510	0	0	
0	0	0	0	0	504	507	0	0	
1	0	0	0	0	506	508	0	0	
2	0	0	0	0	510	511	0	0	
3	0	0	0	0	508	512	0	0	
4	0	0	0	0	508	509	0	0	
5	0	0	0	0	510	508	0	0	
6	0	0	0	0	511	509	0	0	
7	0	0	0	0	512	509	0	0	
8	0	0	0	0	512	511	0	0	
9	0	0	0	0	512	512	0	0	
10	0	0	0	0	513	513	0	0	
11	0	0	0	0	514	514	0	0	
12	0	0	0	0	511	513	0	0	
13	0	0	0	0	509	510	0	0	
14	0	0	0	0	507	509	0	0	
15	0	0	0	0	503	510	0	0	
0	0	0	0	0	506	510	0	0	
1	0	0	0	0	504	510	0	0	
2	0	0	0	0	504	508	0	0	
3	0	0	0	0	505	511	0	0	
4	0	0	0	0	505	509	0	0	
5	0	0	0	0	505	510	0	0	
6	0	0	0	0	504	510	0	0	
7	0	0	0	0	509	511	0	0	
8	0	0	0	0	512	510	0	0	
9	0	0	0	0	513	511	0	0	
10	0	0	0	0	513	512	0	0	
11	0	0	0	0	513	511	0	0	
12	0	0	0	0	512	511	0	0	
13	0	0	0	0	509	511	0	0	
14	0	0	0	0	508	511	0	0	
15	0	0	0	0	510	511	0	0	
0	0	0	0	0	511	512	0	0	
1	0	0	0	0	511	511	0	0	
2	0	0	0	0	507	512	0	0	
3	0	0	0	0	507	512	0	0	
4	0	0	0	0	506	510	0	0	
5	0	0	0	0	506	512	0	0	
6	0	0	0	0	504	509	0	0	
7	0	0	0	0	504	508	0	0	
8	0	0	0	0	505	510	0	0	
9	0	0	0	0	507	508	0	0	
10	0	0	0	0	508	510	0	0	
11	0	0	0	0	507	510	0	0	
12	0	0	0	0	508	510	0	0	
13	0	0	0	0	508	510	0	0	
14	0	0	0	0	511	511	0	0	
15	0	0	0	0	516	510	0	0	
0	0	0	0	0	516	511	0	0	
1	0	0	0	0	513	511	0	0	
2	0	0	0	0	511	511	0	0	
3	0	0	0	0	512	511	0	0	
4	0	0	0	0	509	511	0	0	
5	0	0	0	0	508	512	0	0	
6	0	0	0	0	504	511	0	0	
7	0	0	0	0	505	509	0	0	
8	0	0	0	0	504	511	0	0	
9	0	0	0	0	505	512	0	0	
10	0	0	0	0	504	510	0	0	
11	0	0	0	0	505	512	0	0	
12	0	0	0	0	503	510	0	0	
13	0	0	0	0	504	510	0	0	
14	0	0	0	0	507	510	0	0	
15	0	0	0	0	507	511	0	0	
0	0	0	0	0	510	508	0	0	
1	0	0	0	0	512	511	0	0	
2	0	0	0	0	517	512	0	0	
3	0	0	0	0	513	512	0	0	
4	0	0	0	0	512	510	0	0	
5	0	0	0	0	515	511	0	0	
6	0	0	0	0	514	512	0	0	
7	0	0	0	0	507	511	0	0	
8	0	0	0	0	505	510	0	0	
9	0	0	0	0	508	509	0	0	
10	0	0	0	0	506	509	0	0	
11	0	0	0	0	502	511	0	0	
12	0	0	0	0	507	513	0	0	
13	0	0	0	0	505	510	0	0	
14	0	0	0	0	506	509	0	0	
15	0	0	0	0	504	510	0	0	
0	0	0	0	0	505	509	0	0	
1	0	0	0	0	507	511	0	0	
2	0	0	0	0	507	510	0	0	
3	0	0	0	0	510	512	0	0	
4	0	0	0	0	512	512	0	0	
5	0	0	0	0	511	510	0	0	
6	0	0	0	0	511	512	0	0	
7	0	0	0	0	509	512	0	0	
8	0	0	0	0	513	511	0	0	
9	0	0	0	0	513	511	0	0	
10	0	0	0	0	512	510	0	0	
11	0	0	0	0	511	509	0	0	
12	0	0	0	0	512	509	0	0	
13	0	0	0	0	508	510	0	0	
14	0	0	0	0	504	510	0	0	
15	0	0	0	0	503	508	0	0	
0	0	0	0	0	505	508	0	0	
1	0	0	0	0	505	510	0	0	
2	0	0	0	0	504	512	0	0	
3	0	0	0	0	504	511	0	0	
4	0	0	0	0	504	510	0	0	
5	0	0	0	0	505	508	0	0	
6	0	0	0	0	508	510	0	0	
7	0	0	0	0	511	510	0	0	
8	0	0	0	0	512	509	0	0	
9	0	0	0	0	508	511	0	0	
10	0	0	0	0	512	513	0	0	
11	0	0	0	0	516	511	0	0	
12	0	0	0	0	515	511	0	0	
13	0	0	0	0	513	510	0	0	
14	0	0	0	0	512	511	0	0	
15	0	0	0	0	512	511	0	0	
0	0	0	0	0	510	512	0	0	
1	0	0	0	0	505	511	0	0	
2	0	0	0	0	504	512	0	0	
3	0	0	0	0	500	510	0	0	
4	0	0	0	0	502	508	0	0	
5	0	0	0	0	504	510	0	0	
6	0	0	0	0	507	508	0	0	
7	0	0	0	0	508	509	0	0	
8	0	0	0	0	506	511	0	0	
9	0	0	0	0	507	511	0	0	
10	0	0	0	0	507	510	0	0	
11	0	0	0	0	508	510	0	0	
12	0	0	0	0	508	512	0	0	
13	0	0	0	0	510	511	0	0	
14	0	0	0	0	512	510	0	0	
15	0	0	0	0	513	510	0	0	
0	0	0	0	0	515	514	0	0	
1	0	0	0	0	515	512	0	0	
2	0	0	0	0	512	512	0	0	
3	0	0	0	0	511	513	0	0	
4	0	0	0	0	510	511	0	0	
5	0	0	0	0	507	509	0	0	
6	0	0	0	0	506	510	0	0	
7	0	0	0	0	507	509	0	0	
8	0	0	0	0	505	509	0	0	
9	0	0	0	0	503	510	0	0	
10	0	0	0	0	503	510	0	0	
11	0	0	0	0	506	509	0	0	
12	0	0	0	0	506	509	0	0	
13	0	0	0	0	506	511	0	0	
14	0	0	0	0	504	511	0	0	
15	0	0	0	0	507	511	0	0	
0	0	0	0	0	511	511	0	0	
1	0	0	0	0	512	511	0	0	
2	0	0	0	0	513	509	0	0	
3	0	0	0	0	513	512	0	0	
4	0	0	0	0	513	512	0	0	
5	0	0	0	0	512	510	0	0	
6	0	0	0	0	512	511	0	0	
7	0	0	0	0	514	509	0	0	
8	0	0	0	0	510	510	0	0	
9	0	0	0	0	506	510	0	0	
10	0	0	0	0	503	509	0	0	
11	0	0	0	0	501	509	0	0	
12	0	0	0	0	501	509	0	0	
13	0	0	0	0	504	510	0	0	
14	0	0	0	0	504	510	0	0	
15	0	0	0	0	504	510	0	0	
0	0	0	0	0	505	511	0	0	
1	0	0	0	0	506	511	0	0	
2	0	0	0	0	512	509	0	0	
3	0	0	0	0	510	512	0	0	
4	0	0	0	0	514	510	0	0	
5	0	0	0	0	512	511	0	0	
6	0	0	0	0	515	511	0	0	
7	0	0	0	0	511	511	0	0	
8	0	0	0	0	514	511	0	0	
9	0	0	0	0	514	512	0	0	
10	0	0	0	0	512	512	0	0	
11	0	0	0	0	511	513	0	0	
12	0	0	0	0	511	511	0	0	
13	0	0	0	0	504	511	0	0	
14	0	0	0	0	504	512	0	0	
15	0	0	0	0	504	510	0	0	
0	0	0	0	0	505	511	0	0	
1	0	0	0	0	507	510	0	0	
2	0	0	0	0	507	512	0	0	
3	0	0	0	0	506	513	0	0	
4	0	0	0	0	504	511	0	0	
5	0	0	0	0	504	509	0	0	
6	0	0	0	0	505	509	0	0	
7	0	0	0	0	507	510	0	0	
8	0	0	0	0	511	509	0	0	
9	0	0	0	0	513	510	0	0	
10	0	0	0	0	514	510	0	0	
11	0	0	0	0	514	510	0	0	
12	0	0	0	0	515	511	0	0	
13	0	0	0	0	515	512	0	0	
14	0	0	0	0	510	511	0	0	
15	0	0	0	0	508	514	0	0	
0	0	0	0	0	509	513	0	0	
1	0	0	0	0	510	511	0	0	
2	0	0	0	0	508	511	0	0	
3	0	0	0	0	507	511	0	0	
4	0	0	0	0	505	509	0	0	
5	0	0	0	0	504	510	0	0	
6	0	0	0	0	505	510	0	0	
7	0	0	0	0	507	511	0	0	
8	0	0	0	0	504	511	0	0	
9	0	0	0	0	506	509	0	0	
10	0	0	0	0	505	508	0	0	
11	0	0	0	0	507	509	0	0	
12	0	0	0	0	510	510	0	0	
13	0	0	0	0	510	511	0	0	
14	0	0	0	0	511	511	0	0	
15	0	0	0	0	511	511	0	0	
0	0	0	0	0	515	511	0	0	
1	0	0	0	0	514	511	0	0	
2	0	0	0	0	514	512	0	0	
3	0	0	0	0	508	511	0	0	
4	0	0	0	0	510	511	0	0	
5	0	0	0	0	508	510	0	0	
6	0	0	0	0	508	510	0	0	
7	0	0	0	0	509	509	0	0	
8	0	0	0	0	507	508	0	0	
9	0	0	0	0	502	510	0	0	
10	0	0	0	0	503	511	0	0	
11	0	0	0	0	504	510	0	0	
12	0	0	0	0	505	508	0	0	
13	0	0	0	0	507	508	0	0	
14	0	0	0	0	509	507	0	0	
15	0	0	0	0	510	509	0	0	
0	0	0	0	0	510	512	0	0	
1	0	0	0	0	509	510	0	0	
2	0	0	0	0	512	513	0	0	
3	0	0	0	0	513	511	0	0	
4	0	0	0	0	513	511	0	0	
5	0	0	0	0	514	510	0	0	
6	0	0	0	0	513	512	0	0	
7	0	0	0	0	510	512	0	0	
8	0	0	0	0	509	512	0	0	
9	0	0	0	0	508	512	0	0	
10	0	0	0	0	503	512	0	0	
11	0	0	0	0	504	512	0	0	
12	0	0	0	0	504	511	0	0	
13	0	0	0	0	504	511	0	0	
14	0	0	0	0	504	513	0	0	
15	0	0	0	0	507	506	0	0	
0	0	0	0	0	508	509	0	0	
1	0	0	0	0	509	511	0	0	
2	0	0	0	0	509	509	0	0	
3	0	0	0	0	507	511	0	0	
4	0	0	0	0	510	511	0	0	
5	0	0	0	0	512	510	0	0	
6	0	0	0	0	511	510	0	0	
7	0	0	0	0	514	511	0	0	
8	0	0	0	0	513	510	0	0	
9	0	0	0	0	512	513	0	0	
10	0	0	0	0	512	512	0	0	
11	0	0	0	0	513	512	0	0	
12	0	0	0	0	511	511	0	0	
13	0	0	0	0	509	510	0	0	
14	0	0	0	0	506	511	0	0	
15	0	0	0	0	503	509	0	0	
0	0	0	0	0	503	511	0	0	
1	0	0	0	0	502	511	0	0	
2	0	0	0	0	507	508	0	0	
3	0	0	0	0	504	509	0	0	
4	0	0	0	0	506	510	0	0	
5	0	0	0	0	505	511	0	0	
6	0	0	0	0	507	508	0	0	
7	0	0	0	0	508	510	0	0	
8	0	0	0	0	512	510	0	0	
9	0	0	0	0	510	510	0	0	
10	0	0	0	0	513	511	0	0	
11	0	0	0	0	513	512	0	0	
12	0	0	0	0	512	511	0	0	
13	0	0	0	0	511	511	0	0	
14	0	0	0	0	512	510	0	0	
15	0	0	0	0	511	510	0	0	
0	0	0	0	0	511	510	0	0	
1	0	0	0	0	512	508	0	0	
2	0	0	0	0	508	510	0	0	
3	0	0	0	0	503	511	0	0	
4	0	0	0	0	502	510	0	0	
5	0	0	0	0	503	508	0	0	
6	0	0	0	0	504	512	0	0	
7	0	0	0	0	504	511	0	0	
8	0	0	0	0	503	510	0	0	
9	0	0	0	0	503	511	0	0	
10	0	0	0	0	508	509	0	0	
11	0	0	0	0	511	512	0	0	
12	0	0	0	0	513	509	0	0	
13	0	0	0	0	513	510	0	0	
14	0	0	0	0	514	511	0	0	
15	0	0	0	0	516	509	0	0	
0	0	0	0	0	514	511	0	0	
1	0	0	0	0	511	511	0	0	
2	0	0	0	0	507	512	0	0	
3	0	0	0	0	508	510	0	0	
4	0	0	0	0	511	511	0	0	
5	0	0	0	0	508	510	0	0	
6	0	0	0	0	505	512	0	0	
7	0	0	0	0	504	512	0	0	
8	0	0	0	0	507	512	0	0	
9	0	0	0	0	506	511	0	0	
10	0	0	0	0	504	509	0	0	
11	0	0	0	0	505	508	0	0	
12	0	0	0	0	505	511	0	0	
13	0	0	0	0	507	512	0	0	
14	0	0	0	0	508	509	0	0	
15	0	0	0	0	509	507	0	0	
0	0	0	0	0	508	509	0	0	
1	0	0	0	0	507	509	0	0	
2	0	0	0	0	512	512	0	0	
3	0	0	0	0	515	512	0	0	
4	0	0	0	0	515	511	0	0	
5	0	0	0	0	511	511	0	0	
6	0	0	0	0	511	512	0	0	
7	0	0	0	0	511	512	0	0	
8	0	0	0	0	507	512	0	0	
9	0	0	0	0	510	512	0	0	
10	0	0	0	0	508	511	0	0	
11	0	0	0	0	507	509	0	0	
12	0	0	0	0	506	511	0	0	
13	0	0	0	0	503	511	0	0	
14	0	0	0	0	504	509	0	0	
15	0	0	0	0	503	509	0	0	
0	0	0	0	0	503	510	0	0	
1	0	0	0	0	504	509	0	0	
2	0	0	0	0	510	509	0	0	
3	0	0	0	0	512	511	0	0	
4	0	0	0	0	513	509	0	0	
5	0	0	0	0	514	511	0	0	
6	0	0	0	0	511	512	0	0	
7	0	0	0	0	510	514	0	0	
8	0	0	0	0	512	510	0	0	
9	0	0	0	0	513	511	0	0	
10	0	0	0	0	515	511	0	0	
11	0	0	0	0	510	510	0	0	
12	0	0	0	0	504	511	0	0	
13	0	0	0	0	502	510	0	0	
14	0	0	0	0	505	511	0	0	
15	0	0	0	0	505	512	0	0	
0	0	0	0	0	505	511	0	0	
1	0	0	0	0	505	511	0	0	
2	0	0	0	0	506	508	0	0	
3	0	0	0	0	506	509	0	0	
4	0	0	0	0	506	511	0	0	
5	0	0	0	0	509	510	0	0	
6	0	0	0	0	510	509	0	0	
7	0	0	0	0	511	508	0	0	
8	0	0	0	0	513	510	0	0	
9	0	0	0	0	515	510	0	0	
10	0	0	0	0	514	510	0	0	
11	0	0	0	0	512	511	0	0	
12	0	0	0	0	511	514	0	0	
13	0	0	0	0	512	510	0	0	
14	0	0	0	0	511	512	0	0	
15	0	0	0	0	508	513	0	0	
0	0	0	0	0	505	513	0	0	
1	0	0	0	0	509	512	0	0	
2	0	0	0	0	507	513	0	0	
3	0	0	0	0	508	511	0	0	
4	0	0	0	0	505	509	0	0	
5	0	0	0	0	505	509	0	0	
6	0	0	0	0	504	509	0	0	
7	0	0	0	0	502	509	0	0	
8	0	0	0	0	503	509	0	0	
9	0	0	0	0	504	509	0	0	
10	0	0	0	0	507	509	0	0	
11	0	0	0	0	508	512	0	0	
12	0	0	0	0	510	511	0	0	
13	0	0	0	0	513	511	0	0	
14	0	0	0	0	513	508	0	0	
15	0	0	0	0	514	510	0	0	
0	0	0	0	0	513	510	0	0	
1	0	0	0	0	512	510	0	0	
2	0	0	0	0	512	509	0	0	
3	0	0	0	0	510	511	0	0	
4	0	0	0	0	511	511	0	0	
5	0	0	0	0	509	511	0	0	
6	0	0	0	0	506	511	0	0	
7	0	0	0	0	503	509	0	0	
8	0	0	0	0	505	508	0	0	
9	0	0	0	0	505	510	0	0	
10	0	0	0	0	503	510	0	0	
11	0	0	0	0	502	510	0	0	
12	0	0	0	0	505	511	0	0	
13	0	0	0	0	508	512	0	0	
14	0	0	0	0	507	511	0	0	
15	0	0	0	0	509	513	0	0	
0	0	0	0	0	512	510	0	0	
1	0	0	0	0	508	509	0	0	
2	0	0	0	0	511	511	0	0	
3	0	0	0	0	515	511	0	0	
4	0	0	0	0	518	512	0	0	
5	0	0	0	0	515	515	0	0	
6	0	0	0	0	515	511	0	0	
7	0	0	0	0	514	511	0	0	
8	0	0	0	0	509	510	0	0	
9	0	0	0	0	507	511	0	0	
10	0	0	0	0	507	510	0	0	
11	0	0	0	0	506	512	0	0	
12	0	0	0	0	500	509	0	0	
13	0	0	0	0	505	509	0	0	
14	0	0	0	0	504	509	0	0	
15	0	0	0	0	509	510	0	0	
0	0	0	0	0	503	509	0	0	
1	0	0	0	0	504	508	0	0	
2	0	0	0	0	508	512	0	0	
3	0	0	0	0	506	511	0	0	
4	0	0	0	0	508	509	0	0	
5	0	0	0	0	510	509	0	0	
6	0	0	0	0	512	510	0	0	
7	0	0	0	0	513	510	0	0	
8	0	0	0	0	516	512	0	0	
9	0	0	0	0	515	512	0	0	
10	0	0	0	0	512	510	0	0	
11	0	0	0	0	511	513	0	0	
12	0	0	0	0	508	511	0	0	
13	0	0	0	0	506	510	0	0	
14	0	0	0	0	503	510	0	0	
15	0	0	0	0	504	511	0	0	
0	0	0	0	0	504	508	0	0	
1	0	0	0	0	503	508	0	0	
2	0	0	0	0	507	509	0	0	
3	0	0	0	0	507	511	0	0	
4	0	0	0	0	508	509	0	0	
5	0	0	0	0	509	510	0	0	
6	0	0	0	0	507	510	0	0	
7	0	0	0	0	509	509	0	0	
8	0	0	0	0	512	510	0	0	
9	0	0	0	0	513	510	0	0	
10	0	0	0	0	512	511	0	0	
11	0	0	0	0	510	512	0	0	
12	0	0	0	0	509	513	0	0	
13	0	0	0	0	510	512	0	0	
14	0	0	0	0	512	509	0	0	
15	0	0	0	0	510	511	0	0	
0	0	0	0	0	510	513	0	0	
1	0	0	0	0	507	513	0	0	
2	0	0	0	0	508	512	0	0	
3	0	0	0	0	511	512	0	0	
4	0	0	0	0	507	510	0	0	
5	0	0	0	0	503	512	0	0	
6	0	0	0	0	501	510	0	0	
7	0	0	0	0	504	511	0	0	
8	0	0	0	0	505	510	0	0	
9	0	0	0	0	507	511	0	0	
10	0	0	0	0	506	509	0	0	
11	0	0	0	0	508	511	0	0	
12	0	0	0	0	512	510	0	0	
13	0	0	0	0	512	511	0	0	
14	0	0	0	0	513	510	0	0	
15	0	0	0	0	513	510	0	0	
0	0	0	0	0	513	512	0	0	
1	0	0	0	0	512	512	0	0	
2	0	0	0	0	511	511	0	0	
3	0	0	0	0	512	512	0	0	
4	0	0	0	0	508	512	0	0	
5	0	0	0	0	509	510	0	0	
6	0	0	0	0	508	509	0	0	
7	0	0	0	0	507	509	0	0	
8	0	0	0	0	507	511	0	0	
9	0	0	0	0	503	510	0	0	
10	0	0	0	0	502	508	0	0	
11	0	0	0	0	503	509	0	0	
12	0	0	0	0	504	508	0	0	
13	0	0	0	0	507	508	0	0	
14	0	0	0	0	506	507	0	0	
15	0	0	0	0	506	509	0	0	
0	0	0	0	0	511	511	0	0	
1	0	0	0	0	512	511	0	0	
2	0	0	0	0	511	512	0	0	
3	0	0	0	0	513	512	0	0	
4	0	0	0	0	517	513	0	0	
5	0	0	0	0	511	514	0	0	
6	0	0	0	0	513	513	0	0	
7	0	0	0	0	512	512	0	0	
8	0	0	0	0	509	513	0	0	
9	0	0	0	0	508	511	0	0	
10	0	0	0	0	508	511	0	0	
11	0	0	0	0	505	513	0	0	
12	0	0	0	0	505	510	0	0	
13	0	0	0	0	503	510	0	0	
14	0	0	0	0	504	508	0	0	
15	0	0	0	0	507	509	0	0	
0	0	0	0	0	505	511	0	0	
1	0	0	0	0	502	510	0	0	
2	0	0	0	0	505	508	0	0	
3	0	0	0	0	508	509	0	0	
4	0	0	0	0	511	508	0	0	
5	0	0	0	0	512	511	0	0	
6	0	0	0	0	514	510	0	0	
7	0	0	0	0	511	510	0	0	
8	0	0	0	0	512	511	0	0	
9	0	0	0	0	514	511	0	0	
10	0	0	0	0	512	510	0	0	
11	0	0	0	0	513	511	0	0	
12	0	0	0	0	509	510	0	0	
13	0	0	0	0	506	510	0	0	
14	0	0	0	0	510	510	0	0	
15	0	0	0	0	507	509	0	0	
0	0	0	0	0	506	512	0	0	
1	0	0	0	0	504	511	0	0	
2	0	0	0	0	501	511	0	0	
3	0	0	0	0	501	512	0	0	
4	0	0	0	0	503	508	0	0	
5	0	0	0	0	504	510	0	0	
6	0	0	0	0	510	512	0	0	
7	0	0	0	0	513	510	0	0	
8	0	0	0	0	511	510	0	0	
9	0	0	0	0	509	512	0	0	
10	0	0	0	0	509	509	0	0	
11	0	0	0	0	516	509	0	0	
12	0	0	0	0	518	512	0	0	
13	0	0	0	0	516	511	0	0	
14	0	0	0	0	513	510	0	0	
15	0	0	0	0	511	512	0	0	
0	0	0	0	0	507	512	0	0	
1	0	0	0	0	506	511	0	0	
2	0	0	0	0	504	511	0	0	
3	0	0	0	0	504	509	0	0	
4	0	0	0	0	504	509	0	0	
5	0	0	0	0	502	508	0	0	
6	0	0	0	0	502	510	0	0	
7	0	0	0	0	505	512	0	0	
8	0	0	0	0	504	508	0	0	
9	0	0	0	0	507	509	0	0	
10	0	0	0	0	508	510	0	0	
11	0	0	0	0	509	511	0	0	
12	0	0	0	0	511	508	0	0	
13	0	0	0	0	513	511	0	0	
14	0	0	0	0	511	511	0	0	
15	0	0	0	0	515	511	0	0	
0	0	0	0	0	515	510	0	0	
1	0	0	0	0	509	509	0	0	
2	0	0	0	0	509	512	0	0	
3	0	0	0	0	507	513	0	0	
4	0	0	0	0	510	513	0	0	
5	0	0	0	0	511	510	0	0	
6	0	0	0	0	506	511	0	0	
7	0	0	0	0	505	509	0	0	
8	0	0	0	0	505	512	0	0	
9	0	0	0	0	505	510	0	0	
10	0	0	0	0	504	510	0	0	
11	0	0	0	0	503	510	0	0	
12	0	0	0	0	503	510	0	0	
13	0	0	0	0	504	510	0	0	
14	0	0	0	0	510	510	0	0	
15	0	0	0	0	514	510	0	0	
0	0	0	0	0	512	510	0	0	
1	0	0	0	0	513	510	0	0	
2	0	0	0	0	515	511	0	0	
3	0	0	0	0	511	511	0	0	
4	0	0	0	0	512	511	0	0	
5	0	0	0	0	512	512	0	0	
6	0	0	0	0	512	511	0	0	
7	0	0	0	0	510	510	0	0	
8	0	0	0	0	507	511	0	0	
9	0	0	0	0	508	511	0	0	
10	0	0	0	0	509	512	0	0	
11	0	0	0	0	507	510	0	0	
12	0	0	0	0	503	508	0	0	
13	0	0	0	0	502	511	0	0	
14	0	0	0	0	502	509	0	0	
15	0	0	0	0	505	510	0	0	
0	0	0	0	0	506	510	0	0	
1	0	0	0	0	508	509	0	0	
2	0	0	0	0	508	511	0	0	
3	0	0	0	0	509	511	0	0	
4	0	0	0	0	510	511	0	0	
5	0	0	0	0	511	510	0	0	
6	0	0	0	0	515	510	0	0	
7	0	0	0	0	512	510	0	0	
8	0	0	0	0	512	509	0	0	
9	0	0	0	0	512	512	0	0	
10	0	0	0	0	512	511	0	0	
11	0	0	0	0	510	511	0	0	
12	0	0	0	0	509	512	0	0	
13	0	0	0	0	512	512	0	0	
14	0	0	0	0	506	512	0	0	
15	0	0	0	0	504	510	0	0	
0	0	0	0	0	504	510	0	0	
1	0	0	0	0	504	510	0	0	
2	0	0	0	0	502	510	0	0	
3	0	0	0	0	503	509	0	0	
4	0	0	0	0	503	508	0	0	
5	0	0	0	0	505	510	0	0	
6	0	0	0	0	511	510	0	0	
7	0	0	0	0	513	511	0	0	
8	0	0	0	0	512	510	0	0	
9	0	0	0	0	511	511	0	0	
10	0	0	0	0	510	509	0	0	
11	0	0	0	0	511	512	0	0	
12	0	0	0	0	513	511	0	0	
13	0	0	0	0	513	512	0	0	
14	0	0	0	0	511	513	0	0	
15	0	0	0	0	513	510	0	0	
0	0	0	0	0	510	512	0	0	
1	0	0	0	0	510	510	0	0	
2	0	0	0	0	508	509	0	0	
3	0	0	0	0	505	511	0	0	
4	0	0	0	0	503	513	0	0	
5	0	0	0	0	502	509	0	0	
6	0	0	0	0	503	511	0	0	
7	0	0	0	0	504	511	0	0	
8	0	0	0	0	508	512	0	0	
9	0	0	0	0	511	511	0	0	
10	0	0	0	0	511	508	0	0	
11	0	0	0	0	507	510	0	0	
12	0	0	0	0	510	510	0	0	
13	0	0	0	0	513	511	0	0	
14	0	0	0	0	513	509	0	0	
15	0	0	0	0	514	513	0	0	
0	0	0	0	0	511	512	0	0	
1	0	0	0	0	510	512	0	0	
2	0	0	0	0	509	512	0	0	
3	0	0	0	0	510	512	0	0	
4	0	0	0	0	511	511	0	0	
5	0	0	0	0	506	509	0	0	
6	0	0	0	0	508	510	0	0	
7	0	0	0	0	507	508	0	0	
8	0	0	0	0	505	507	0	0	
9	0	0	0	0	504	511	0	0	
10	0	0	0	0	507	511	0	0	
11	0	0	0	0	507	511	0	0	
12	0	0	0	0	505	509	0	0	
13	0	0	0	0	505	510	0	0	
14	0	0	0	0	506	506	0	0	
15	0	0	0	0	504	508	0	0	
0	0	0	0	0	510	510	0	0	
1	0	0	0	0	513	508	0	0	
2	0	0	0	0	514	512	0	0	
3	0	0	0	0	516	511	0	0	
4	0	0	0	0	517	513	0	0	
5	0	0	0	0	515	509	0	0	
6	0	0	0	0	512	511	0	0	
7	0	0	0	0	511	511	0	0	
8	0	0	0	0	509	512	0	0	
9	0	0	0	0	507	511	0	0	
10	0	0	0	0	505	511	0	0	
11	0	0	0	0	504	511	0	0	
12	0	0	0	0	500	512	0	0	
13	0	0	0	0	503	512	0	0	
14	0	0	0	0	504	510	0	0	
15	0	0	0	0	507	509	0	0	
0	0	0	0	0	505	510	0	0	
1	0	0	0	0	507	511	0	0	
2	0	0	0	0	508	510	0	0	
3	0	0	0	0	505	508	0	0	
4	0	0	0	0	510	510	0	0	
5	0	0	0	0	511	511	0	0	
6	0	0	0	0	512	514	0	0	
7	0	0	0	0	514	511	0	0	
8	0	0	0	0	511	511	0	0	
9	0	0	0	0	513	511	0	0	
10	0	0	0	0	512	512	0	0	
11	0	0	0	0	510	510	0	0	
12	0	0	0	0	511	510	0	0	
13	0	0	0	0	509	511	0	0	
14	0	0	0	0	508	511	0	0	
15	0	0	0	0	504	510	0	0	
0	0	0	0	0	507	508	0	0	
1	0	0	0	0	504	511	0	0	
2	0	0	0	0	502	509	0	0	
3	0	0	0	0	504	508	0	0	
4	0	0	0	0	506	509	0	0	
5	0	0	0	0	506	510	0	0	
6	0	0	0	0	506	510	0	0	
7	0	0	0	0	509	512	0	0	
8	0	0	0	0	512	512	0	0	
9	0	0	0	0	511	512	0	0	
10	0	0	0	0	512	510	0	0	
11	0	0	0	0	515	511	0	0	
12	0	0	0	0	512	513	0	0	
13	0	0	0	0	511	511	0	0	
14	0	0	0	0	509	511	0	0	
15	0	0	0	0	510	511	0	0	
0	0	0	0	0	511	512	0	0	
1	0	0	0	0	509	511	0	0	
2	0	0	0	0	505	510	0	0	
3	0	0	0	0	505	508	0	0	
4	0	0	0	0	509	509	0	0	
5	0	0	0	0	509	510	0	0	
6	0	0	0	0	505	511	0	0	
7	0	0	0	0	503	508	0	0	
8	0	0	0	0	503	509	0	0	
9	0	0	0	0	505	510	0	0	
10	0	0	0	0	506	510	0	0	
11	0	0	0	0	508	511	0	0	
12	0	0	0	0	515	514	0	0	
13	0	0	0	0	515	513	0	0	
14	0	0	0	0	514	512	0	0	
15	0	0	0	0	508	513	0	0	
0	0	0	0	0	511	512	0	0	
1	0	0	0	0	510	511	0	0	
2	0	0	0	0	512	511	0	0	
3	0	0	0	0	513	511	0	0	
4	0	0	0	0	510	513	0	0	
5	0	0	0	0	507	509	0	0	
6	0	0	0	0	505	511	0	0	
7	0	0	0	0	508	511	0	0	
8	0	0	0	0	505	509	0	0	
9	0	0	0	0	504	508	0	0	
10	0	0	0	0	498	508	0	0	
11	0	0	0	0	500	509	0	0	
12	0	0	0	0	503	509	0	0	
13	0	0	0	0	509	510	0	0	
14	0	0	0	0	507	509	0	0	
15	0	0	0	0	508	509	0	0	
0	0	0	0	0	512	508	0	0	
1	0	0	0	0	512	511	0	0	
2	0	0	0	0	512	510	0	0	
3	0	0	0	0	516	514	0	0	
4	0	0	0	0	515	512	0	0	
5	0	0	0	0	515	510	0	0	
6	0	0	0	0	514	511	0	0	
7	0	0	0	0	510	510	0	0	
8	0	0	0	0	509	509	0	0	
9	0	0	0	0	508	511	0	0	
10	0	0	0	0	508	511	0	0	
11	0	0	0	0	507	512	0	0	
12	0	0	0	0	502	509	0	0	
13	0	0	0	0	499	511	0	0	
14	0	0	0	0	504	510	0	0	
15	0	0	0	0	504	511	0	0	
0	0	0	0	0	507	509	0	0	
1	0	0	0	0	507	511	0	0	
2	0	0	0	0	507	511	0	0	
3	0	0	0	0	507	508	0	0	
4	0	0	0	0	513	510	0	0	
5	0	0	0	0	512	512	0	0	
6	0	0	0	0	513	512	0	0	
7	0	0	0	0	513	512	0	0	
8	0	0	0	0	513	512	0	0	
9	0	0	0	0	513	512	0	0	
10	0	0	0	0	511	509	0	0	
11	0	0	0	0	508	510	0	0	
12	0	0	0	0	507	509	0	0	
13	0	0	0	0	506	508	0	0	
14	0	0	0	0	507	510	0	0	
15	0	0	0	0	509	510	0	0	
0	0	0	0	0	508	509	0	0	
1	0	0	0	0	506	512	0	0	
2	0	0	0	0	503	511	0	0	
3	0	0	0	0	503	511	0	0	
4	0	0	0	0	504	509	0	0	
5	0	0	0	0	509	510	0	0	
6	0	0	0	0	507	509	0	0	
7	0	0	0	0	506	511	0	0	
8	0	0	0	0	511	510	0	0	
9	0	0	0	0	509	510	0	0	
10	0	0	0	0	512	512	0	0	
11	0	0	0	0	513	511	0	0	
12	0	0	0	0	512	510	0	0	
13	0	0	0	0	513	511	0	0	
14	0	0	0	0	514	511	0	0	
15	0	0	0	0	512	512	0	0	
0	0	0	0	0	509	511	0	0	
1	0	0	0	0	507	509	0	0	
2	0	0	0	0	505	510	0	0	
3	0	0	0	0	502	514	0	0	
4	0	0	0	0	504	509	0	0	
5	0	0	0	0	504	508	0	0	
6	0	0	0	0	504	510	0	0	
7	0	0	0	0	506	514	0	0	
8	0	0	0	0	503	510	0	0	
9	0	0	0	0	505	509	0	0	
10	0	0	0	0	506	511	0	0	
11	0	0	0	0	510	510	0	0	
12	0	0	0	0	517	512	0	0	
13	0	0	0	0	513	510	0	0	
14	0	0	0	0	515	511	0	0	
15	0	0	0	0	516	510	0	0	
0	0	0	0	0	515	512	0	0	
1	0	0	0	0	513	512	0	0	
2	0	0	0	0	510	511	0	0	
3	0	0	0	0	509	512	0	0	
4	0	0	0	0	508	509	0	0	
5	0	0	0	0	507	509	0	0	
6	0	0	0	0	504	512	0	0	
7	0	0	0	0	503	511	0	0	
8	0	0	0	0	505	511	0	0	
9	0	0	0	0	504	510	0	0	
10	0	0	0	0	508	510	0	0	
11	0	0	0	0	505	508	0	0	
12	0	0	0	0	505	508	0	0	
13	0	0	0	0	506	510	0	0	
14	0	0	0	0	510	511	0	0	
15	0	0	0	0	510	510	0	0	
0	0	0	0	0	508	510	0	0	
1	0	0	0	0	508	510	0	0	
2	0	0	0	0	514	512	0	0	
3	0	0	0	0	518	512	0	0	
4	0	0	0	0	515	510	0	0	
5	0	0	0	0	512	510	0	0	
6	0	0	0	0	510	512	0	0	
7	0	0	0	0	507	512	0	0	
8	0	0	0	0	508	508	0	0	
9	0	0	0	0	506	510	0	0	
10	0	0	0	0	505	508	0	0	
11	0	0	0	0	507	509	0	0	
12	0	0	0	0	507	509	0	0	
13	0	0	0	0	505	512	0	0	
14	0	0	0	0	504	510	0	0	
15	0	0	0	0	505	508	0	0	
0	0	0	0	0	506	511	0	0	
1	0	0	0	0	505	511	0	0	
2	0	0	0	0	508	512	0	0	
3	0	0	0	0	508	511	0	0	
4	0	0	0	0	511	510	0	0	
5	0	0	0	0	513	510	0	0	
6	0	0	0	0	512	512	0	0	
7	0	0	0	0	511	511	0	0	
8	0	0	0	0	515	509	0	0	
9	0	0	0	0	513	512	0	0	
10	0	0	0	0	512	512	0	0	
11	0	0	0	0	509	515	0	0	
12	0	0	0	0	510	509	0	0	
13	0	0	0	0	508	511	0	0	
14	0	0	0	0	507	511	0	0	
15	0	0	0	0	504	510	0	0	
0	0	0	0	0	502	510	0	0	
1	0	0	0	0	502	509	0	0	
2	0	0	0	0	505	510	0	0	
3	0	0	0	0	508	510	0	0	
4	0	0	0	0	506	508	0	0	
5	0	0	0	0	504	508	0	0	
6	0	0	0	0	507	510	0	0	
7	0	0	0	0	509	509	0	0	
8	0	0	0	0	511	509	0	0	
9	0	0	0	0	514	513	0	0	
10	0	0	0	0	517	512	0	0	
11	0	0	0	0	516	513	0	0	
12	0	0	0	0	515	512	0	0	
13	0	0	0	0	512	512	0	0	
14	0	0	0	0	510	511	0	0	
15	0	0	0	0	510	510	0	0	
0	0	0	0	0	509	511	0	0	
1	0	0	0	0	510	510	0	0	
2	0	0	0	0	508	511	0	0	
3	0	0	0	0	505	510	0	0	
4	0	0	0	0	501	510	0	0	
5	0	0	0	0	502	508	0	0	
6	0	0	0	0	504	510	0	0	
7	0	0	0	0	504	509	0	0	
8	0	0	0	0	508	509	0	0	
9	0	0	0	0	508	511	0	0	
10	0	0	0	0	508	508	0	0	
11	0	0	0	0	510	508	0	0	
12	0	0	0	0	510	508	0	0	
13	0	0	0	0	510	510	0	0	
14	0	0	0	0	512	510	0	0	
15	0	0	0	0	516	511	0	0	
0	0	0	0	0	512	510	0	0	
1	0	0	0	0	511	511	0	0	
2	0	0	0	0	515	513	0	0	
3	0	0	0	0	511	513	0	0	
4	0	0	0	0	508	511	0	0	
5	0	0	0	0	509	512	0	0	
6	0	0	0	0	504	511	0	0	
7	0	0	0	0	504	510	0	0	
8	0	0	0	0	505	511	0	0	
9	0	0	0	0	505	510	0	0	
10	0	0	0	0	504	511	0	0	
11	0	0	0	0	508	509	0	0	
12	0	0	0	0	505	511	0	0	
13	0	0	0	0	502	510	0	0	
14	0	0	0	0	503	511	0	0	
15	0	0	0	0	509	513	0	0	
0	0	0	0	0	510	511	0	0	
1	0	0	0	0	512	511	0	0	
2	0	0	0	0	513	509	0	0	
3	0	0	0	0	513	511	0	0	
4	0	0	0	0	515	510	0	0	
5	0	0	0	0	513	512	0	0	
6	0	0	0	0	513	512	0	0	
7	0	0	0	0	511	512	0	0	
8	0	0	0	0	509	510	0	0	
9	0	0	0	0	508	511	0	0	
10	0	0	0	0	506	509	0	0	
11	0	0	0	0	505	509	0	0	
12	0	0	0	0	505	510	0	0	
13	0	0	0	0	502	512	0	0	
14	0	0	0	0	502	509	0	0	
15	0	0	0	0	506	512	0	0	
0	0	0	0	0	505	511	0	0	
1	0	0	0	0	506	510	0	0	
2	0	0	0	0	506	508	0	0	
3	0	0	0	0	509	509	0	0	
4	0	0	0	0	511	510	0	0	
5	0	0	0	0	512	510	0	0	
6	0	0	0	0	513	511	0	0	
7	0	0	0	0	514	513	0	0	
8	0	0	0	0	515	511	0	0	
9	0	0	0	0	513	512	0	0	
10	0	0	0	0	510	510	0	0	
11	0	0	0	0	509	510	0	0	
12	0	0	0	0	510	510	0	0	
13	0	0	0	0	510	511	0	0	
14	0	0	0	0	507	510	0	0	
15	0	0	0	0	507	509	0	0	
0	0	0	0	0	508	510	0	0	
1	0	0	0	0	505	509	0	0	
2	0	0	0	0	502	510	0	0	
3	0	0	0	0	503	510	0	0	
4	0	0	0	0	507	512	0	0	
5	0	0	0	0	508	509	0	0	
6	0	0	0	0	506	511	0	0	
7	0	0	0	0	511	507	0	0	
8	0	0	0	0	512	511	0	0	
9	0	0	0	0	510	511	0	0	
10	0	0	0	0	513	511	0	0	
11	0	0	0	0	511	510	0	0	
12	0	0	0	0	514	513	0	0	
13	0	0	0	0	510	512	0	0	
14	0	0	0	0	508	510	0	0	
15	0	0	0	0	513	511	0	0	
0	0	0	0	0	508	508	0	0	
1	0	0	0	0	508	512	0	0	
2	0	0	0	0	504	512	0	0	
3	0	0	0	0	504	511	0	0	
4	0	0	0	0	504	510	0	0	
5	0	0	0	0	504	510	0	0	
6	0	0	0	0	504	511	0	0	
7	0	0	0	0	505	508	0	0	
8	0	0	0	0	505	511	0	0	
9	0	0	0	0	507	509	0	0	
10	0	0	0	0	511	511	0	0	
11	0	0	0	0	513	511	0	0	
12	0	0	0	0	511	512	0	0	
13	0	0	0	0	509	510	0	0	
14	0	0	0	0	511	513	0	0	
15	0	0	0	0	512	510	0	0	
0	0	0	0	0	515	511	0	0	
1	0	0	0	0	515	511	0	0	
2	0	0	0	0	513	512	0	0	
3	0	0	0	0	513	510	0	0	
4	0	0	0	0	510	511	0	0	
5	0	0	0	0	506	511	0	0	
6	0	0	0	0	505	510	0	0	
7	0	0	0	0	504	510	0	0	
8	0	0	0	0	503	510	0	0	
9	0	0	0	0	501	510	0	0	
10	0	0	0	0	504	510	0	0	
11	0	0	0	0	505	511	0	0	
12	0	0	0	0	502	509	0	0	
13	0	0	0	0	508	508	0	0	
14	0	0	0	0	508	508	0	0	
15	0	0	0	0	512	511	0	0	
0	0	0	0	0	514	512	0	0	
1	0	0	0	0	513	507	0	0	
2	0	0	0	0	512	508	0	0	
3	0	0	0	0	513	511	0	0	
4	0	0	0	0	513	511	0	0	
5	0	0	0	0	510	513	0	0	
6	0	0	0	0	511	512	0	0	
7	0	0	0	0	510	513	0	0	
8	0	0	0	0	511	512	0	0	
9	0	0	0	0	511	510	0	0	
10	0	0	0	0	504	511	0	0	
11	0	0	0	0	504	508	0	0	
12	0	0	0	0	504	510	0	0	
13	0	0	0	0	504	510	0	0	
14	0	0	0	0	505	512	0	0	
15	0	0	0	0	506	510	0	0	
0	0	0	0	0	506	509	0	0	
1	0	0	0	0	507	510	0	0	
2	0	0	0	0	505	509	0	0	
3	0	0	0	0	508	511	0	0	
4	0	0	0	0	509	510	0	0	
5	0	0	0	0	514	513	0	0	
6	0	0	0	0	514	511	0	0	
7	0	0	0	0	517	512	0	0	
8	0	0	0	0	513	511	0	0	
9	0	0	0	0	511	513	0	0	
10	0	0	0	0	512	511	0	0	
11	0	0	0	0	511	509	0	0	
12	0	0	0	0	507	509	0	0	
13	0	0	0	0	505	510	0	0	
14	0	0	0	0	505	510	0	0	
15	0	0	0	0	504	511	0	0	
0	0	0	0	0	508	508	0	0	
1	0	0	0	0	506	511	0	0	
2	0	0	0	0	506	507	0	0	
3	0	0	0	0	504	509	0	0	
4	0	0	0	0	500	510	0	0	
5	0	0	0	0	505	510	0	0	
6	0	0	0	0	507	508	0	0	
7	0	0	0	0	508	510	0	0	
8	0	0	0	0	512	510	0	0	
9	0	0	0	0	515	512	0	0	
10	0	0	0	0	518	512	0	0	
11	0	0	0	0	515	510	0	0	
12	0	0	0	0	512	511	0	0	
13	0	0	0	0	509	509	0	0	
14	0	0	0	0	509	508	0	0	
15	0	0	0	0	508	508	0	0	
0	0	0	0	0	508	510	0	0	
1	0	0	0	0	509	512	0	0	
2	0	0	0	0	504	511	0	0	
3	0	0	0	0	506	511	0	0	
4	0	0	0	0	508	508	0	0	
5	0	0	0	0	506	510	0	0	
6	0	0	0	0	504	510	0	0	
7	0	0	0	0	506	508	0	0	
8	0	0	0	0	502	510	0	0	
9	0	0	0	0	509	510	0	0	
10	0	0	0	0	508	512	0	0	
11	0	0	0	0	509	511	0	0	
12	0	0	0	0	508	510	0	0	
13	0	0	0	0	512	511	0	0	
14	0	0	0	0	512	510	0	0	
15	0	0	0	0	515	511	0	0	
0	0	0	0	0	514	512	0	0	
1	0	0	0	0	513	513	0	0	
2	0	0	0	0	510	512	0	0	
3	0	0	0	0	510	511	0	0	
4	0	0	0	0	511	512	0	0	
5	0	0	0	0	512	512	0	0	
6	0	0	0	0	505	512	0	0	
7	0	0	0	0	504	512	0	0	
8	0	0	0	0	503	510	0	0	
9	0	0	0	0	505	510	0	0	
10	0	0	0	0	502	510	0	0	
11	0	0	0	0	501	508	0	0	
12	0	0	0	0	506	510	0	0	
13	0	0	0	0	508	510	0	0	
14	0	0	0	0	507	508	0	0	
15	0	0	0	0	511	511	0	0	
0	0	0	0	0	514	512	0	0	
1	0	0	0	0	512	511	0	0	
2	0	0	0	0	513	513	0	0	
3	0	0	0	0	513	509	0	0	
4	0	0	0	0	514	512	0	0	
5	0	0	0	0	513	508	0	0	
6	0	0	0	0	508	511	0	0	
7	0	0	0	0	507	510	0	0	
8	0	0	0	0	506	510	0	0	
9	0	0	0	0	508	511	0	0	
10	0	0	0	0	507	510	0	0	
11	0	0	0	0	507	510	0	0	
12	0	0	0	0	504	510	0	0	
13	0	0	0	0	504	511	0	0	
14	0	0	0	0	508	510	0	0	
15	0	0	0	0	505	508	0	0	
0	0	0	0	0	504	511	0	0	
1	0	0	0	0	507	509	0	0	
2	0	0	0	0	506	510	0	0	
3	0	0	0	0	511	511	0	0	
4	0	0	0	0	511	510	0	0	
5	0	0	0	0	513	511	0	0	
6	0	0	0	0	515	510	0	0	
7	0	0	0	0	512	510	0	0	
8	0	0	0	0	512	509	0	0	
9	0	0	0	0	510	512	0	0	
10	0	0	0	0	511	511	0	0	
11	0	0	0	0	509	512	0	0	
12	0	0	0	0	508	511	0	0	
13	0	0	0	0	508	510	0	0	
14	0	0	0	0	507	510	0	0	
15	0	0	0	0	508	511	0	0	
0	0	0	0	0	504	510	0	0	
1	0	0	0	0	504	509	0	0	
2	0	0	0	0	505	511	0	0	
3	0	0	0	0	506	508	0	0	
4	0	0	0	0	505	510	0	0	
5	0	0	0	0	505	509	0	0	
6	0	0	0	0	503	511	0	0	
7	0	0	0	0	508	510	0	0	
8	0	0	0	0	510	512	0	0	
9	0	0	0	0	512	511	0	0	
10	0	0	0	0	513	511	0	0	
11	0	0	0	0	514	511	0	0	
12	0	0	0	0	513	511	0	0	
13	0	0	0	0	513	512	0	0	
14	0	0	0	0	513	513	0	0	
15	0	0	0	0	511	511	0	0	
0	0	0	0	0	511	511	0	0	
1	0	0	0	0	512	510	0	0	
2	0	0	0	0	506	508	0	0	
3	0	0	0	0	507	512	0	0	
4	0	0	0	0	503	511	0	0	
5	0	0	0	0	502	510	0	0	
6	0	0	0	0	503	509	0	0	
7	0	0	0	0	503	511	0	0	
8	0	0	0	0	506	511	0	0	
9	0	0	0	0	509	511	0	0	
10	0	0	0	0	509	509	0	0	
11	0	0	0	0	511	509	0	0	
12	0	0	0	0	513	511	0	0	
13	0	0	0	0	511	512	0	0	
14	0	0	0	0	511	511	0	0	
15	0	0	0	0	510	510	0	0	
0	0	0	0	0	511	511	0	0	
1	0	0	0	0	513	509	0	0	
2	0	0	0	0	513	510	0	0	
3	0	0	0	0	511	512	0	0	
4	0	0	0	0	509	509	0	0	
5	0	0	0	0	509	512	0	0	
6	0	0	0	0	508	515	0	0	
7	0	0	0	0	505	511	0	0	
8	0	0	0	0	501	510	0	0	
9	0	0	0	0	503	511	0	0	
10	0	0	0	0	503	512	0	0	
11	0	0	0	0	506	509	0	0	
12	0	0	0	0	509	509	0	0	
13	0	0	0	0	508	509	0	0	
14	0	0	0	0	509	512	0	0	
15	0	0	0	0	511	508	0	0	
0	0	0	0	0	508	510	0	0	
1	0	0	0	0	509	509	0	0	
2	0	0	0	0	511	510	0	0	
3	0	0	0	0	513	513	0	0	
4	0	0	0	0	514	510	0	0	
5	0	0	0	0	513	511	0	0	
6	0	0	0	0	510	511	0	0	
7	0	0	0	0	509	511	0	0	
8	0	0	0	0	507	511	0	0	
9	0	0	0	0	505	511	0	0	
10	0	0	0	0	503	511	0	0	
11	0	0	0	0	504	509	0	0	
12	0	0	0	0	506	510	0	0	
13	0	0	0	0	506	509	0	0	
14	0	0	0	0	506	510	0	0	
15	0	0	0	0	508	510	0	0	
0	0	0	0	0	504	510	0	0	
1	0	0	0	0	508	509	0	0	
2	0	0	0	0	510	511	0	0	
3	0	0	0	0	510	510	0	0	
4	0	0	0	0	513	512	0	0	
5	0	0	0	0	511	512	0	0	
6	0	0	0	0	509	512	0	0	
7	0	0	0	0	508	511	0	0	
8	0	0	0	0	512	513	0	0	
9	0	0	0	0	515	512	0	0	
10	0	0	0	0	512	511	0	0	
11	0	0	0	0	510	511	0	0	
12	0	0	0	0	508	510	0	0	
13	0	0	0	0	507	509	0	0	
14	0	0	0	0	505	510	0	0	
15	0	0	0	0	504	510	0	0	
0	0	0	0	0	503	511	0	0	
1	0	0	0	0	503	510	0	0	
2	0	0	0	0	504	508	0	0	
3	0	0	0	0	506	510	0	0	
4	0	0	0	0	508	509	0	0	
5	0	0	0	0	509	509	0	0	
6	0	0	0	0	509	510	0	0	
7	0	0	0	0	508	510	0	0	
8	0	0	0	0	509	513	0	0	
9	0	0	0	0	511	511	0	0	
10	0	0	0	0	512	511	0	0	
11	0	0	0	0	513	512	0	0	
12	0	0	0	0	511	512	0	0	
13	0	0	0	0	514	512	0	0	
14	0	0	0	0	515	512	0	0	
15	0	0	0	0	509	511	0	0	
0	0	0	0	0	508	510	0	0	
1	0	0	0	0	507	512	0	0	
2	0	0	0	0	509	511	0	0	
3	0	0	0	0	505	510	0	0	
4	0	0	0	0	503	514	0	0	
5	0	0	0	0	505	511	0	0	
6	0	0	0	0	503	511	0	0	
7	0	0	0	0	504	511	0	0	
8	0	0	0	0	504	509	0	0	
9	0	0	0	0	506	507	0	0	
10	0	0	0	0	503	510	0	0	
11	0	0	0	0	508	508	0	0	
12	0	0	0	0	516	511	0	0	
13	0	0	0	0	509	511	0	0	
14	0	0	0	0	511	510	0	0	
15	0	0	0	0	513	510	0	0	
0	0	0	0	0	518	511	0	0	
1	0	0	0	0	513	513	0	0	
2	0	0	0	0	511	512	0	0	
3	0	0	0	0	508	509	0	0	
4	0	0	0	0	508	510	0	0	
5	0	0	0	0	508	510	0	0	
6	0	0	0	0	505	509	0	0	
7	0	0	0	0	509	513	0	0	
8	0	0	0	0	506	512	0	0	
9	0	0	0	0	506	510	0	0	
10	0	0	0	0	503	509	0	0	
11	0	0	0	0	505	509	0	0	
12	0	0	0	0	505	508	0	0	
13	0	0	0	0	505	510	0	0	
14	0	0	0	0	504	510	0	0	
15	0	0	0	0	508	509	0	0	
0	0	0	0	0	510	512	0	0	
1	0	0	0	0	511	510	0	0	
2	0	0	0	0	516	510	0	0	
3	0	0	0	0	515	509	0	0	
4	0	0	0	0	515	511	0	0	
5	0	0	0	0	515	512	0	0	
6	0	0	0	0	513	512	0	0	
7	0	0	0	0	511	512	0	0	
8	0	0	0	0	509	510	0	0	
9	0	0	0	0	505	509	0	0	
10	0	0	0	0	505	510	0	0	
11	0	0	0	0	505	511	0	0	
12	0	0	0	0	506	510	0	0	
13	0	0	0	0	506	510	0	0	
14	0	0	0	0	504	511	0	0	
15	0	0	0	0	503	512	0	0	
0	0	0	0	0	505	513	0	0	
1	0	0	0	0	506	511	0	0	
2	0	0	0	0	507	510	0	0	
3	0	0	0	0	511	510	0	0	
4	0	0	0	0	511	511	0	0	
5	0	0	0	0	508	508	0	0	
6	0	0	0	0	509	511	0	0	
7	0	0	0	0	513	512	0	0	
8	0	0	0	0	515	508	0	0	
9	0	0	0	0	512	511	0	0	
10	0	0	0	0	510	511	0	0	
11	0	0	0	0	511	511	0	0	
12	0	0	0	0	510	512	0	0	
13	0	0	0	0	509	511	0	0	
14	0	0	0	0	507	509	0	0	
15	0	0	0	0	507	511	0	0	
0	0	0	0	0	502	512	0	0	
1	0	0	0	0	503	511	0	0	
2	0	0	0	0	502	512	0	0	
3	0	0	0	0	505	511	0	0	
4	0	0	0	0	508	510	0	0	
5	0	0	0	0	512	510	0	0	
6	0	0	0	0	508	511	0	0	
7	0	0	0	0	505	512	0	0	
8	0	0	0	0	507	510	0	0	
9	0	0	0	0	510	507	0	0	
10	0	0	0	0	516	510	0	0	
11	0	0	0	0	514	512	0	0	
12	0	0	0	0	512	511	0	0	
13	0	0	0	0	514	510	0	0	
14	0	0	0	0	514	512	0	0	
15	0	0	0	0	511	511	0	0	
0	0	0	0	0	508	509	0	0	
1	0	0	0	0	505	512	0	0	
2	0	0	0	0	506	512	0	0	
3	0	0	0	0	505	511	0	0	
4	0	0	0	0	504	510	0	0	
5	0	0	0	0	504	512	0	0	
6	0	0	0	0	503	510	0	0	
7	0	0	0	0	505	512	0	0	
8	0	0	0	0	510	508	0	0	
9	0	0	0	0	508	509	0	0	
10	0	0	0	0	507	508	0	0	
11	0	0	0	0	507	509	0	0	
12	0	0	0	0	508	510	0	0	
13	0	0	0	0	513	512	0	0	
14	0	0	0	0	515	510	0	0	
15	0	0	0	0	514	510	0	0	
0	0	0	0	0	513	510	0	0	
1	0	0	0	0	514	510	0	0	
2	0	0	0	0	510	511	0	0	
3	0	0	0	0	509	512	0	0	
4	0	0	0	0	509	511	0	0	
5	0	0	0	0	509	513	0	0	
6	0	0	0	0	507	512	0	0	
7	0	0	0	0	505	510	0	0	
8	0	0	0	0	504	510	0	0	
9	0	0	0	0	503	512	0	0	
10	0	0	0	0	502	510	0	0	
11	0	0	0	0	504	506	0	0	
12	0	0	0	0	505	509	0	0	
13	0	0	0	0	504	506	0	0	
14	0	0	0	0	508	511	0	0	
15	0	0	0	0	513	512	0	0	
0	0	0	0	0	513	511	0	0	
1	0	0	0	0	513	510	0	0	
2	0	0	0	0	513	511	0	0	
3	0	0	0	0	514	513	0	0	
4	0	0	0	0	512	513	0	0	
5	0	0	0	0	512	512	0	0	
6	0	0	0	0	511	510	0	0	
7	0	0	0	0	512	510	0	0	
8	0	0	0	0	512	512	0	0	
9	0	0	0	0	511	511	0	0	
10	0	0	0	0	508	512	0	0	
11	0	0	0	0	503	509	0	0	
12	0	0	0	0	505	511	0	0	
13	0	0	0	0	504	509	0	0	
14	0	0	0	0	501	511	0	0	
15	0	0	0	0	504	509	0	0	
0	0	0	0	0	505	510	0	0	
1	0	0	0	0	507	510	0	0	
2	0	0	0	0	505	508	0	0	
3	0	0	0	0	510	511	0	0	
4	0	0	0	0	513	509	0	0	
5	0	0	0	0	511	511	0	0	
6	0	0	0	0	513	513	0	0	
7	0	0	0	0	515	512	0	0	
8	0	0	0	0	514	512	0	0	
9	0	0	0	0	512	512	0	0	
10	0	0	0	0	512	510	0	0	
11	0	0	0	0	510	508	0	0	
12	0	0	0	0	510	508	0	0	
13	0	0	0	0	509	510	0	0	
14	0	0	0	0	510	511	0	0	
15	0	0	0	0	503	511	0	0	
0	0	0	0	0	504	508	0	0	
1	0	0	0	0	504	510	0	0	
2	0	0	0	0	504	509	0	0	
3	0	0	0	0	504	510	0	0	
4	0	0	0	0	504	512	0	0	
5	0	0	0	0	506	512	0	0	
6	0	0	0	0	507	513	0	0	
7	0	0	0	0	506	510	0	0	
8	0	0	0	0	512	510	0	0	
9	0	0	0	0	515	511	0	0	
10	0	0	0	0	513	512	0	0	
11	0	0	0	0	516	513	0	0	
12	0	0	0	0	514	513	0	0	
13	0	0	0	0	511	508	0	0	
14	0	0	0	0	510	511	0	0	
15	0	0	0	0	509	509	0	0	
0	0	0	0	0	508	510	0	0	
1	0	0	0	0	508	508	0	0	
2	0	0	0	0	507	510	0	0	
3	0	0	0	0	505	510	0	0	
4	0	0	0	0	504	509	0	0	
5	0	0	0	0	503	510	0	0	
6	0	0	0	0	503	508	0	0	
7	0	0	0	0	504	509	0	0	
8	0	0	0	0	506	510	0	0	
9	0	0	0	0	505	512	0	0	
10	0	0	0	0	508	512	0	0	
11	0	0	0	0	509	510	0	0	
12	0	0	0	0	510	512	0	0	
13	0	0	0	0	513	510	0	0	
14	0	0	0	0	516	512	0	0	
15	0	0	0	0	513	512	0	0	
0	0	0	0	0	511	512	0	0	
1	0	0	0	0	514	511	0	0	
2	0	0	0	0	513	510	0	0	
3	0	0	0	0	512	510	0	0	
4	0	0	0	0	509	511	0	0	
5	0	0	0	0	508	511	0	0	
6	0	0	0	0	505	509	0	0	
7	0	0	0	0	504	508	0	0	
8	0	0	0	0	506	508	0	0	
9	0	0	0	0	503	508	0	0	
10	0	0	0	0	504	509	0	0	
11	0	0	0	0	502	511	0	0	
12	0	0	0	0	503	509	0	0	
13	0	0	0	0	508	511	0	0	
14	0	0	0	0	509	511	0	0	
15	0	0	0	0	510	511	0	0	
0	0	0	0	0	510	510	0	0	
1	0	0	0	0	512	510	0	0	
2	0	0	0	0	512	511	0	0	
3	0	0	0	0	512	512	0	0	
4	0	0	0	0	513	513	0	0	
5	0	0	0	0	511	513	0	0	
6	0	0	0	0	507	510	0	0	
7	0	0	0	0	510	510	0	0	
8	0	0	0	0	511	510	0	0	
9	0	0	0	0	507	510	0	0	
10	0	0	0	0	505	509	0	0	
11	0	0	0	0	504	509	0	0	
12	0	0	0	0	505	508	0	0	
13	0	0	0	0	507	511	0	0	
14	0	0	0	0	505	510	0	0	
15	0	0	0	0	507	510	0	0	
0	0	0	0	0	506	511	0	0	
1	0	0	0	0	507	510	0	0	
2	0	0	0	0	509	511	0	0	
3	0	0	0	0	508	510	0	0	
4	0	0	0	0	508	510	0	0	
5	0	0	0	0	511	509	0	0	
6	0	0	0	0	515	511	0	0	
7	0	0	0	0	512	511	0	0	
8	0	0	0	0	514	511	0	0	
9	0	0	0	0	513	512	0	0	
10	0	0	0	0	511	513	0	0	
11	0	0	0	0	510	511	0	0	
12	0	0	0	0	512	509	0	0	
13	0	0	0	0	511	511	0	0	
14	0	0	0	0	505	510	0	0	
15	0	0	0	0	503	510	0	0	
0	0	0	0	0	504	512	0	0	
1	0	0	0	0	504	511	0	0	
2	0	0	0	0	502	508	0	0	
3	0	0	0	0	505	508	0	0	
4	0	0	0	0	506	510	0	0	
5	0	0	0	0	505	511	0	0	
6	0	0	0	0	505	509	0	0	
7	0	0	0	0	509	510	0	0	
8	0	0	0	0	512	510	0	0	
9	0	0	0	0	512	510	0	0	
10	0	0	0	0	513	511	0	0	
11	0	0	0	0	513	511	0	0	
12	0	0	0	0	513	512	0	0	
13	0	0	0	0	512	511	0	0	
14	0	0	0	0	512	514	0	0	
15	0	0	0	0	510	513	0	0	
0	0	0	0	0	507	510	0	0	
1	0	0	0	0	508	507	0	0	
2	0	0	0	0	507	510	0	0	
3	0	0	0	0	504	510	0	0	
4	0	0	0	0	505	510	0	0	
5	0	0	0	0	508	512	0	0	
6	0	0	0	0	505	510	0	0	
7	0	0	0	0	504	509	0	0	
8	0	0	0	0	503	510	0	0	
9	0	0	0	0	506	510	0	0	
10	0	0	0	0	506	510	0	0	
11	0	0	0	0	508	508	0	0	
12	0	0	0	0	508	512	0	0	
13	0	0	0	0	512	511	0	0	
14	0	0	0	0	516	513	0	0	
15	0	0	0	0	514	510	0	0	
0	0	0	0	0	514	512	0	0	
1	0	0	0	0	512	513	0	0	
2	0	0	0	0	510	511	0	0	
3	0	0	0	0	510	511	0	0	
4	0	0	0	0	511	510	0	0	
5	0	0	0	0	506	511	0	0	
6	0	0	0	0	504	510	0	0	
7	0	0	0	0	505	510	0	0	
8	0	0	0	0	509	509	0	0	
9	0	0	0	0	508	508	0	0	
10	0	0	0	0	504	508	0	0	
11	0	0	0	0	501	509	0	0	
12	0	0	0	0	503	508	0	0	
13	0	0	0	0	505	511	0	0	
14	0	0	0	0	509	510	0	0	
15	0	0	0	0	509	512	0	0	
0	0	0	0	0	513	512	0	0	
1	0	0	0	0	513	512	0	0	
2	0	0	0	0	516	510	0	0	
3	0	0	0	0	514	513	0	0	
4	0	0	0	0	512	509	0	0	
5	0	0	0	0	510	511	0	0	
6	0	0	0	0	511	509	0	0	
7	0	0	0	0	514	509	0	0	
8	0	0	0	0	508	510	0	0	
9	0	0	0	0	506	510	0	0	
10	0	0	0	0	504	511	0	0	
11	0	0	0	0	504	512	0	0	
12	0	0	0	0	503	512	0	0	
13	0	0	0	0	506	510	0	0	
14	0	0	0	0	504	508	0	0	
15	0	0	0	0	505	508	0	0	
0	0	0	0	0	507	511	0	0	
1	0	0	0	0	507	509	0	0	
2	0	0	0	0	507	511	0	0	
3	0	0	0	0	508	510	0	0	
4	0	0	0	0	512	509	0	0	
5	0	0	0	0	512	512	0	0	
6	0	0	0	0	512	512	0	0	
7	0	0	0	0	513	513	0	0	
8	0	0	0	0	512	511	0	0	
9	0	0	0	0	511	511	0	0	
10	0	0	0	0	511	511	0	0	
11	0	0	0	0	509	512	0	0	
12	0	0	0	0	507	512	0	0	
13	0	0	0	0	509	510	0	0	
14	0	0	0	0	507	511	0	0	
15	0	0	0	0	507	508	0	0	
0	0	0	0	0	503	508	0	0	
1	0	0	0	0	502	510	0	0	
2	0	0	0	0	503	508	0	0	
3	0	0	0	0	507	510	0	0	
4	0	0	0	0	504	509	0	0	
5	0	0	0	0	505	508	0	0	
6	0	0	0	0	508	511	0	0	
7	0	0	0	0	511	512	0	0	
8	0	0	0	0	511	511	0	0	
9	0	0	0	0	512	510	0	0	
10	0	0	0	0	515	510	0	0	
11	0	0	0	0	513	511	0	0	
12	0	0	0	0	514	509	0	0	
13	0	0	0	0	512	511	0	0	
14	0	0	0	0	512	513	0	0	
15	0	0	0	0	510	512	0	0	
0	0	0	0	0	508	513	0	0	
1	0	0	0	0	511	510	0	0	
2	0	0	0	0	506	510	0	0	
3	0	0	0	0	507	510	0	0	
4	0	0	0	0	503	510	0	0	
5	0	0	0	0	503	507	0	0	
6	0	0	0	0	505	511	0	0	
7	0	0	0	0	506	510	0	0	
8	0	0	0	0	504	511	0	0	
9	0	0	0	0	505	510	0	0	
10	0	0	0	0	508	512	0	0	
11	0	0	0	0	511	511	0	0	
12	0	0	0	0	512	510	0	0	
13	0	0	0	0	513	509	0	0	
14	0	0	0	0	513	510	0	0	
15	0	0	0	0	511	510	0	0	
0	0	0	0	0	508	510	0	0	
1	0	0	0	0	511	512	0	0	
2	0	0	0	0	513	513	0	0	
3	0	0	0	0	514	511	0	0	
4	0	0	0	0	514	511	0	0	
5	0	0	0	0	513	510	0	0	
6	0	0	0	0	506	509	0	0	
7	0	0	0	0	503	510	0	0	
8	0	0	0	0	503	511	0	0	
9	0	0	0	0	503	510	0	0	
10	0	0	0	0	502	510	0	0	
11	0	0	0	0	508	512	0	0	
12	0	0	0	0	508	511	0	0	
13	0	0	0	0	507	511	0	0	
14	0	0	0	0	507	512	0	0	
15	0	0	0	0	510	512	0	0	
0	0	0	0	0	508	509	0	0	
1	0	0	0	0	511	510	0	0	
2	0	0	0	0	512	510	0	0	
3	0	0	0	0	513	511	0	0	
4	0	0	0	0	515	510	0	0	
5	0	0	0	0	512	510	0	0	
6	0	0	0	0	507	510	0	0	
7	0	0	0	0	509	510	0	0	
8	0	0	0	0	510	512	0	0	
9	0	0	0	0	505	512	0	0	
10	0	0	0	0	505	510	0	0	
11	0	0	0	0	508	513	0	0	
12	0	0	0	0	505	509	0	0	
13	0	0	0	0	505	509	0	0	
14	0	0	0	0	507	510	0	0	
15	0	0	0	0	504	512	0	0	
0	0	0	0	0	505	510	0	0	
1	0	0	0	0	507	511	0	0	
2	0	0	0	0	508	511	0	0	
3	0	0	0	0	510	510	0	0	
4	0	0	0	0	511	510	0	0	
5	0	0	0	0	512	510	0	0	
6	0	0	0	0	512	510	0	0	
7	0	0	0	0	513	511	0	0	
8	0	0	0	0	515	512	0	0	
9	0	0	0	0	514	510	0	0	
10	0	0	0	0	510	512	0	0	
11	0	0	0	0	510	512	0	0	
12	0	0	0	0	506	510	0	0	
13	0	0	0	0	503	509	0	0	
14	0	0	0	0	505	511	0	0	
15	0	0	0	0	505	508	0	0	
0	0	0	0	0	507	507	0	0	
1	0	0	0	0	506	510	0	0	
2	0	0	0	0	505	509	0	0	
3	0	0	0	0	503	511	0	0	
4	0	0	0	0	505	512	0	0	
5	0	0	0	0	508	510	0	0	
6	0	0	0	0	511	510	0	0	
7	0	0	0	0	512	510	0	0	
8	0	0	0	0	509	510	0	0	
9	0	0	0	0	510	509	0	0	
10	0	0	0	0	510	511	0	0	
11	0	0	0	0	512	512	0	0	
12	0	0	0	0	516	512	0	0	
13	0	0	0	0	513	510	0	0	
14	0	0	0	0	511	511	0	0	
15	0	0	0	0	509	510	0	0	
0	0	0	0	0	511	512	0	0	
1	0	0	0	0	508	511	0	0	
2	0	0	0	0	505	511	0	0	
3	0	0	0	0	506	511	0	0	
4	0	0	0	0	504	512	0	0	
5	0	0	0	0	504	509	0	0	
6	0	0	0	0	504	508	0	0	
7	0	0	0	0	505	509	0	0	
8	0	0	0	0	507	509	0	0	
9	0	0	0	0	507	511	0	0	
10	0	0	0	0	506	511	0	0	
11	0	0	0	0	509	508	0	0	
12	0	0	0	0	510	510	0	0	
13	0	0	0	0	510	509	0	0	
14	0	0	0	0	514	512	0	0	
15	0	0	0	0	516	512	0	0	
0	0	0	0	0	512	512	0	0	
1	0	0	0	0	510	511	0	0	
2	0	0	0	0	510	511	0	0	
3	0	0	0	0	508	510	0	0	
4	0	0	0	0	508	511	0	0	
5	0	0	0	0	510	511	0	0	
6	0	0	0	0	508	511	0	0	
7	0	0	0	0	507	508	0	0	
8	0	0	0	0	508	511	0	0	
9	0	0	0	0	505	511	0	0	
10	0	0	0	0	502	509	0	0	
11	0	0	0	0	502	510	0	0	
12	0	0	0	0	502	510	0	0	
13	0	0	0	0	507	511	0	0	
14	0	0	0	0	509	509	0	0	
15	0	0	0	0	510	512	0	0	
0	0	0	0	0	516	509	0	0	
1	0	0	0	0	513	511	0	0	
2	0	0	0	0	512	510	0	0	
3	0	0	0	0	513	509	0	0	
4	0	0	0	0	515	511	0	0	
5	0	0	0	0	512	511	0	0	
6	0	0	0	0	509	509	0	0	
7	0	0	0	0	507	513	0	0	
8	0	0	0	0	508	511	0	0	
9	0	0	0	0	509	512	0	0	
10	0	0	0	0	504	512	0	0	
11	0	0	0	0	506	511	0	0	
12	0	0	0	0	505	508	0	0	
13	0	0	0	0	505	509	0	0	
14	0	0	0	0	503	511	0	0	
15	0	0	0	0	505	511	0	0	
0	0	0	0	0	505	511	0	0	
1	0	0	0	0	506	510	0	0	
2	0	0	0	0	506	510	0	0	
3	0	0	0	0	510	511	0	0	
4	0	0	0	0	511	510	0	0	
5	0	0	0	0	513	510	0	0	
6	0	0	0	0	514	510	0	0	
7	0	0	0	0	515	511	0	0	
8	0	0	0	0	513	511	0	0	
9	0	0	0	0	513	513	0	0	
10	0	0	0	0	511	510	0	0	
11	0	0	0	0	508	512	0	0	
12	0	0	0	0	509	510	0	0	
13	0	0	0	0	509	510	0	0	
14	0	0	0	0	508	510	0	0	
15	0	0	0	0	504	510	0	0	
0	0	0	0	0	503	509	0	0	
1	0	0	0	0	501	509	0	0	
2	0	0	0	0	504	512	0	0	
3	0	0	0	0	505	510	0	0	
4	0	0	0	0	508	509	0	0	
5	0	0	0	0	506	507	0	0	
6	0	0	0	0	507	512	0	0	
7	0	0	0	0	507	510	0	0	
8	0	0	0	0	510	510	0	0	
9	0	0	0	0	512	508	0	0	
10	0	0	0	0	515	510	0	0	
11	0	0	0	0	515	512	0	0	
12	0	0	0	0	513	513	0	0	
13	0	0	0	0	511	514	0	0	
14	0	0	0	0	509	513	0	0	
15	0	0	0	0	510	511	0	0	
0	0	0	0	0	511	510	0	0	
1	0	0	0	0	508	510	0	0	
2	0	0	0	0	505	511	0	0	
3	0	0	0	0	503	512	0	0	
4	0	0	0	0	504	510	0	0	
5	0	0	0	0	504	511	0	0	
6	0	0	0	0	502	509	0	0	
7	0	0	0	0	503	507	0	0	
8	0	0	0	0	506	512	0	0	
9	0	0	0	0	505	509	0	0	
10	0	0	0	0	509	510	0	0	
11	0	0	0	0	513	509	0	0	
12	0	0	0	0	516	510	0	0	
13	0	0	0	0	515	511	0	0	
14	0	0	0	0	513	511	0	0	
15	0	0	0	0	511	510	0	0	
0	0	0	0	0	514	511	0	0	
1	0	0	0	0	514	510	0	0	
2	0	0	0	0	510	511	0	0	
3	0	0	0	0	508	513	0	0	
4	0	0	0	0	505	510	0	0	
5	0	0	0	0	507	511	0	0	
6	0	0	0	0	505	510	0	0	
7	0	0	0	0	508	512	0	0	
8	0	0	0	0	509	511	0	0	
9	0	0	0	0	505	509	0	0	
10	0	0	0	0	504	509	0	0	
11	0	0	0	0	502	510	0	0	
12	0	0	0	0	506	508	0	0	
13	0	0	0	0	507	509	0	0	
14	0	0	0	0	505	512	0	0	
15	0	0	0	0	506	511	0	0	
0	0	0	0	0	509	512	0	0	
1	0	0	0	0	515	513	0	0	
2	0	0	0	0	513	512	0	0	
3	0	0	0	0	516	513	0	0	
4	0	0	0	0	517	512	0	0	
5	0	0	0	0	515	511	0	0	
6	0	0	0	0	511	510	0	0	
7	0	0	0	0	510	511	0	0	
8	0	0	0	0	508	512	0	0	
9	0	0	0	0	506	511	0	0	
10	0	0	0	0	504	511	0	0	
11	0	0	0	0	504	510	0	0	
12	0	0	0	0	501	509	0	0	
13	0	0	0	0	506	511	0	0	
14	0	0	0	0	505	511	0	0	
15	0	0	0	0	505	508	0	0	
0	0	0	0	0	505	508	0	0	
1	0	0	0	0	508	508	0	0	
2	0	0	0	0	510	511	0	0	
3	0	0	0	0	507	510	0	0	
4	0	0	0	0	510	508	0	0	
5	0	0	0	0	511	511	0	0	
6	0	0	0	0	513	511	0	0	
7	0	0	0	0	514	510	0	0	
8	0	0	0	0	515	511	0	0	
9	0	0	0	0	513	508	0	0	
10	0	0	0	0	512	510	0	0	
11	0	0	0	0	510	510	0	0	
12	0	0	0	0	509	510	0	0	
13	0	0	0	0	506	510	0	0	
14	0	0	0	0	507	512	0	0	
15	0	0	0	0	506	511	0	0	
0	0	0	0	0	505	510	0	0	
1	0	0	0	0	504	510	0	0	
2	0	0	0	0	504	511	0	0	
3	0	0	0	0	507	510	0	0	
4	0	0	0	0	507	510	0	0	
5	0	0	0	0	507	512	0	0	
6	0	0	0	0	506	510	0	0	
7	0	0	0	0	505	510	0	0	
8	0	0	0	0	508	508	0	0	
9	0	0	0	0	511	512	0	0	
10	0	0	0	0	514	513	0	0	
11	0	0	0	0	516	513	0	0	
12	0	0	0	0	514	510	0	0	
13	0	0	0	0	513	513	0	0	
14	0	0	0	0	511	509	0	0	
15	0	0	0	0	511	511	0	0	
0	0	0	0	0	506	509	0	0	
1	0	0	0	0	505	509	0	0	
2	0	0	0	0	504	511	0	0	
3	0	0	0	0	504	511	0	0	
4	0	0	0	0	504	510	0	0	
5	0	0	0	0	505	510	0	0	
6	0	0	0	0	506	509	0	0	
7	0	0	0	0	509	510	0	0	
8	0	0	0	0	507	510	0	0	
9	0	0	0	0	506	511	0	0	
10	0	0	0	0	508	511	0	0	
11	0	0	0	0	509	510	0	0	
12	0	0	0	0	510	509	0	0	
13	0	0	0	0	512	510	0	0	
14	0	0	0	0	516	511	0	0	
15	0	0	0	0	515	513	0	0	
0	0	0	0	0	514	512	0	0	
1	0	0	0	0	512	512	0	0	
2	0	0	0	0	512	511	0	0	
3	0	0	0	0	507	511	0	0	
4	0	0	0	0	508	510	0	0	
5	0	0	0	0	508	511	0	0	
6	0	0	0	0	505	509	0	0	
7	0	0	0	0	504	509	0	0	
8	0	0	0	0	506	510	0	0	
9	0	0	0	0	507	512	0	0	
10	0	0	0	0	504	511	0	0	
11	0	0	0	0	503	508	0	0	
12	0	0	0	0	505	511	0	0	
13	0	0	0	0	507	511	0	0	
14	0	0	0	0	509	510	0	0	
15	0	0	0	0	508	509	0	0	
0	0	0	0	0	509	510	0	0	
1	0	0	0	0	511	512	0	0	
2	0	0	0	0	515	510	0	0	
3	0	0	0	0	512	513	0	0	
4	0	0	0	0	510	512	0	0	
5	0	0	0	0	511	511	0	0	
6	0	0	0	0	512	512	0	0	
7	0	0	0	0	515	510	0	0	
8	0	0	0	0	512	515	0	0	
9	0	0	0	0	510	511	0	0	
10	0	0	0	0	508	509	0	0	
11	0	0	0	0	505	509	0	0	
12	0	0	0	0	508	508	0	0	
13	0	0	0	0	503	508	0	0	
14	0	0	0	0	502	510	0	0	
15	0	0	0	0	503	508	0	0	
0	0	0	0	0	507	510	0	0	
1	0	0	0	0	506	510	0	0	
2	0	0	0	0	508	510	0	0	
3	0	0	0	0	510	512	0	0	
4	0	0	0	0	513	510	0	0	
5	0	0	0	0	512	511	0	0	
6	0	0	0	0	512	509	0	0	
7	0	0	0	0	511	511	0	0	
8	0	0	0	0	508	513	0	0	
9	0	0	0	0	507	512	0	0	
10	0	0	0	0	511	511	0	0	
11	0	0	0	0	513	513	0	0	
12	0	0	0	0	510	510	0	0	
13	0	0	0	0	510	512	0	0	
14	0	0	0	0	509	509	0	0	
15	0	0	0	0	507	511	0	0	
0	0	0	0	0	504	510	0	0	
1	0	0	0	0	503	510	0	0	
2	0	0	0	0	501	508	0	0	
3	0	0	0	0	504	507	0	0	
4	0	0	0	0	504	508	0	0	
5	0	0	0	0	508	510	0	0	
6	0	0	0	0	508	511	0	0	
7	0	0	0	0	510	509	0	0	
8	0	0	0	0	511	510	0	0	
9	0	0	0	0	511	511	0	0	
10	0	0	0	0	513	512	0	0	
11	0	0	0	0	515	512	0	0	
12	0	0	0	0	515	512	0	0	
13	0	0	0	0	511	512	0	0	
14	0	0	0	0	511	511	0	0	
15	0	0	0	0	509	511	0	0	
0	0	0	0	0	509	511	0	0	
1	0	0	0	0	507	510	0	0	
2	0	0	0	0	508	510	0	0	
3	0	0	0	0	505	509	0	0	
4	0	0	0	0	501	510	0	0	
5	0	0	0	0	503	510	0	0	
6	0	0	0	0	507	510	0	0	
7	0	0	0	0	508	510	0	0	
8	0	0	0	0	506	508	0	0	
9	0	0	0	0	508	509	0	0	
10	0	0	0	0	508	513	0	0	
11	0	0	0	0	509	511	0	0	
12	0	0	0	0	512	512	0	0	
13	0	0	0	0	512	509	0	0	
14	0	0	0	0	512	512	0	0	
15	0	0	0	0	513	510	0	0	
0	0	0	0	0	513	512	0	0	
1	0	0	0	0	513	513	0	0	
2	0	0	0	0	512	510	0	0	
3	0	0	0	0	510	510	0	0	
4	0	0	0	0	508	510	0	0	
5	0	0	0	0	507	511	0	0	
6	0	0	0	0	504	511	0	0	
7	0	0	0	0	506	510	0	0	
8	0	0	0	0	504	510	0	0	
9	0	0	0	0	505	512	0	0	
10	0	0	0	0	505	511	0	0	
11	0	0	0	0	504	509	0	0	
12	0	0	0	0	508	509	0	0	
13	0	0	0	0	507	510	0	0	
14	0	0	0	0	504	511	0	0	
15	0	0	0	0	509	508	0	0	
0	0	0	0	0	510	512	0	0	
1	0	0	0	0	511	512	0	0	
2	0	0	0	0	513	510	0	0	
3	0	0	0	0	515	514	0	0	
4	0	0	0	0	515	512	0	0	
5	0	0	0	0	512	512	0	0	
6	0	0	0	0	510	511	0	0	
7	0	0	0	0	513	510	0	0	
8	0	0	0	0	511	510	0	0	
9	0	0	0	0	507	508	0	0	
10	0	0	0	0	502	512	0	0	
11	0	0	0	0	505	510	0	0	
12	0	0	0	0	503	512	0	0	
13	0	0	0	0	502	509	0	0	
14	0	0	0	0	505	512	0	0	
15	0	0	0	0	504	510	0	0	
0	0	0	0	0	504	510	0	0	
1	0	0	0	0	508	510	0	0	
2	0	0	0	0	511	510	0	0	
3	0	0	0	0	516	511	0	0	
4	0	0	0	0	515	510	0	0	
5	0	0	0	0	512	511	0	0	
6	0	0	0	0	512	510	0	0	
7	0	0	0	0	510	512	0	0	
8	0	0	0	0	510	512	0	0	
9	0	0	0	0	510	510	0	0	
10	0	0	0	0	510	511	0	0	
11	0	0	0	0	512	510	0	0	
12	0	0	0	0	509	513	0	0	
13	0	0	0	0	505	511	0	0	
14	0	0	0	0	505	510	0	0	
15	0	0	0	0	506	511	0	0	
0	0	0	0	0	504	511	0	0	
1	0	0	0	0	502	512	0	0	
2	0	0	0	0	505	508	0	0	
3	0	0	0	0	506	508	0	0	
4	0	0	0	0	506	509	0	0	
5	0	0	0	0	507	510	0	0	
6	0	0	0	0	507	510	0	0	
7	0	0	0	0	510	511	0	0	
8	0	0	0	0	513	511	0	0	
9	0	0	0	0	513	512	0	0	
10	0	0	0	0	513	508	0	0	
11	0	0	0	0	514	511	0	0	
12	0	0	0	0	511	510	0	0	
13	0	0	0	0	511	513	0	0	
14	0	0	0	0	512	512	0	0	
15	0	0	0	0	511	511	0	0	
0	0	0	0	0	511	511	0	0	
1	0	0	0	0	507	508	0	0	
2	0	0	0	0	507	509	0	0	
3	0	0	0	0	506	510	0	0	
4	0	0	0	0	504	509	0	0	
5	0	0	0	0	503	509	0	0	
6	0	0	0	0	505	510	0	0	
7	0	0	0	0	502	510	0	0	
8	0	0	0	0	504	511	0	0	
9	0	0	0	0	508	509	0	0	
10	0	0	0	0	508	511	0	0	
11	0	0	0	0	509	512	0	0	
12	0	0	0	0	509	512	0	0	
13	0	0	0	0	513	513	0	0	
14	0	0	0	0	514	511	0	0	
15	0	0	0	0	512	511	0	0	
0	0	0	0	0	513	511	0	0	
1	0	0	0	0	513	511	0	0	
2	0	0	0	0	508	512	0	0	
3	0	0	0	0	508	509	0	0	
4	0	0	0	0	510	512	0	0	
5	0	0	0	0	509	511	0	0	
6	0	0	0	0	503	510	0	0	
7	0	0	0	0	504	512	0	0	
8	0	0	0	0	506	510	0	0	
9	0	0	0	0	507	510	0	0	
10	0	0	0	0	509	508	0	0	
11	0	0	0	0	503	510	0	0	
12	0	0	0	0	504	510	0	0	
13	0	0	0	0	505	509	0	0	
14	0	0	0	0	503	509	0	0	
15	0	0	0	0	510	508	0	0	
0	0	0	0	0	511	508	0	0	
1	0	0	0	0	516	510	0	0	
2	0	0	0	0	519	511	0	0	
3	0	0	0	0	520	511	0	0	
4	0	0	0	0	516	511	0	0	
5	0	0	0	0	508	510	0	0	
6	0	0	0	0	511	511	0	0	
7	0	0	0	0	507	514	0	0	
8	0	0	0	0	508	511	0	0	
9	0	0	0	0	506	511	0	0	
10	0	0	0	0	503	510	0	0	
11	0	0	0	0	504	512	0	0	
12	0	0	0	0	503	512	0	0	
13	0	0	0	0	503	510	0	0	
14	0	0	0	0	504	510	0	0	
15	0	0	0	0	504	510	0	0	
0	0	0	0	0	506	509	0	0	
1	0	0	0	0	506	509	0	0	
2	0	0	0	0	511	511	0	0	
3	0	0	0	0	513	510	0	0	
4	0	0	0	0	512	511	0	0	
5	0	0	0	0	511	510	0	0	
6	0	0	0	0	512	511	0	0	
7	0	0	0	0	512	509	0	0	
8	0	0	0	0	515	511	0	0	
9	0	0	0	0	512	514	0	0	
10	0	0	0	0	510	512	0	0	
11	0	0	0	0	512	511	0	0	
12	0	0	0	0	510	510	0	0	
13	0	0	0	0	505	511	0	0	
14	0	0	0	0	503	509	0	0	
15	0	0	0	0	504	508	0	0	
0	0	0	0	0	507	510	0	0	
1	0	0	0	0	507	509	0	0	
2	0	0	0	0	504	509	0	0	
3	0	0	0	0	502	511	0	0	
4	0	0	0	0	505	509	0	0	
5	0	0	0	0	507	510	0	0	
6	0	0	0	0	509	509	0	0	
7	0	0	0	0	511	510	0	0	
8	0	0	0	0	514	510	0	0	
9	0	0	0	0	512	512	0	0	
10	0	0	0	0	514	510	0	0	
11	0	0	0	0	513	511	0	0	
12	0	0	0	0	513	511	0	0	
13	0	0	0	0	511	511	0	0	
14	0	0	0	0	510	511	0	0	
15	0	0	0	0	509	511	0	0	
0	0	0	0	0	511	511	0	0	
1	0	0	0	0	504	509	0	0	
2	0	0	0	0	505	511	0	0	
3	0	0	0	0	508	510	0	0	
4	0	0	0	0	505	510	0	0	
5	0	0	0	0	504	510	0	0	
6	0	0	0	0	505	508	0	0	
7	0	0	0	0	505	511	0	0	
8	0	0	0	0	507	510	0	0	
9	0	0	0	0	508	510	0	0	
10	0	0	0	0	508	511	0	0	
11	0	0	0	0	509	509	0	0	
12	0	0	0	0	509	508	0	0	
13	0	0	0	0	514	512	0	0	
14	0	0	0	0	516	511	0	0	
15	0	0	0	0	515	511	0	0	
0	0	0	0	0	511	511	0	0	
1	0	0	0	0	511	511	0	0	
2	0	0	0	0	511	512	0	0	
3	0	0	0	0	508	511	0	0	
4	0	0	0	0	507	512	0	0	
5	0	0	0	0	508	512	0	0	
6	0	0	0	0	509	512	0	0	
7	0	0	0	0	505	512	0	0	
8	0	0	0	0	501	511	0	0	
9	0	0	0	0	503	508	0	0	
10	0	0	0	0	504	510	0	0	
11	0	0	0	0	508	512	0	0	
12	0	0	0	0	507	509	0	0	
13	0	0	0	0	508	509	0	0	
14	0	0	0	0	506	511	0	0	
15	0	0	0	0	510	509	0	0	
0	0	0	0	0	515	510	0	0	
1	0	0	0	0	516	512	0	0	
2	0	0	0	0	515	511	0	0	
3	0	0	0	0	511	510	0	0	
4	0	0	0	0	511	508	0	0	
5	0	0	0	0	512	509	0	0	
6	0	0	0	0	512	510	0	0	
7	0	0	0	0	509	511	0	0	
8	0	0	0	0	508	512	0	0	
9	0	0	0	0	508	510	0	0	
10	0	0	0	0	504	512	0	0	
11	0	0	0	0	507	509	0	0	
12	0	0	0	0	505	509	0	0	
13	0	0	0	0	504	509	0	0	
14	0	0	0	0	503	509	0	0	
15	0	0	0	0	504	510	0	0	
0	0	0	0	0	505	509	0	0	
1	0	0	0	0	508	511	0	0	
2	0	0	0	0	509	509	0	0	
3	0	0	0	0	507	512	0	0	
4	0	0	0	0	511	508	0	0	
5	0	0	0	0	509	512	0	0	
6	0	0	0	0	512	511	0	0	
7	0	0	0	0	514	511	0	0	
8	0	0	0	0	512	511	0	0	
9	0	0	0	0	511	510	0	0	
10	0	0	0	0	513	512	0	0	
11	0	0	0	0	514	512	0	0	
12	0	0	0	0	510	512	0	0	
13	0	0	0	0	507	513	0	0	
14	0	0	0	0	506	511	0	0	
15	0	0	0	0	504	511	0	0	
0	0	0	0	0	504	508	0	0	
1	0	0	0	0	501	509	0	0	
2	0	0	0	0	504	511	0	0	
3	0	0	0	0	504	511	0	0	
4	0	0	0	0	508	511	0	0	
5	0	0	0	0	510	513	0	0	
6	0	0	0	0	508	510	0	0	
7	0	0	0	0	512	510	0	0	
8	0	0	0	0	513	510	0	0	
9	0	0	0	0	510	510	0	0	
10	0	0	0	0	509	508	0	0	
11	0	0	0	0	513	511	0	0	
12	0	0	0	0	516	513	0	0	
13	0	0	0	0	514	513	0	0	
14	0	0	0	0	512	512	0	0	
15	0	0	0	0	507	512	0	0	
0	0	0	0	0	504	509	0	0	
1	0	0	0	0	504	510	0	0	
2	0	0	0	0	507	508	0	0	
3	0	0	0	0	506	512	0	0	
4	0	0	0	0	507	510	0	0	
5	0	0	0	0	504	509	0	0	
6	0	0	0	0	508	512	0	0	
7	0	0	0	0	503	511	0	0	
8	0	0	0	0	502	510	0	0	
9	0	0	0	0	503	507	0	0	
10	0	0	0	0	504	510	0	0	
11	0	0	0	0	511	511	0	0	
12	0	0	0	0	511	513	0	0	
13	0	0	0	0	512	511	0	0	
14	0	0	0	0	513	511	0	0	
15	0	0	0	0	516	511	0	0	
0	0	0	0	0	517	512	0	0	
1	0	0	0	0	516	511	0	0	
2	0	0	0	0	514	509	0	0	
3	0	0	0	0	511	510	0	0	
4	0	0	0	0	509	510	0	0	
5	0	0	0	0	505	511	0	0	
6	0	0	0	0	503	510	0	0	
7	0	0	0	0	503	509	0	0	
8	0	0	0	0	503	511	0	0	
9	0	0	0	0	501	511	0	0	
10	0	0	0	0	506	511	0	0	
11	0	0	0	0	508	510	0	0	
12	0	0	0	0	508	509	0	0	
13	0	0	0	0	506	511	0	0	
14	0	0	0	0	508	510	0	0	
15	0	0	0	0	510	511	0	0	
0	0	0	0	0	511	510	0	0	
1	0	0	0	0	515	510	0	0	
2	0	0	0	0	515	511	0	0	
3	0	0	0	0	513	512	0	0	
4	0	0	0	0	512	510	0	0	
5	0	0	0	0	513	513	0	0	
6	0	0	0	0	512	512	0	0	
7	0	0	0	0	511	511	0	0	
8	0	0	0	0	508	511	0	0	
9	0	0	0	0	506	512	0	0	
10	0	0	0	0	503	509	0	0	
11	0	0	0	0	503	508	0	0	
12	0	0	0	0	505	510	0	0	
13	0	0	0	0	507	511	0	0	
14	0	0	0	0	509	508	0	0	
15	0	0	0	0	500	507	0	0	
0	0	0	0	0	499	510	0	0	
1	0	0	0	0	505	509	0	0	
2	0	0	0	0	508	512	0	0	
3	0	0	0	0	510	510	0	0	
4	0	0	0	0	511	511	0	0	
5	0	0	0	0	508	510	0	0	
6	0	0	0	0	514	510	0	0	
7	0	0	0	0	515	514	0	0	
8	0	0	0	0	515	513	0	0	
9	0	0	0	0	512	511	0	0	
10	0	0	0	0	513	511	0	0	
11	0	0	0	0	510	509	0	0	
12	0	0	0	0	511	512	0	0	
13	0	0	0	0	511	513	0	0	
14	0	0	0	0	507	512	0	0	
15	0	0	0	0	506	513	0	0	
0	0	0	0	0	506	511	0	0	
1	0	0	0	0	499	508	0	0	
2	0	0	0	0	499	507	0	0	
3	0	0	0	0	497	508	0	0	
4	0	0	0	0	499	509	0	0	
5	0	0	0	0	510	510	0	0	
6	0	0	0	0	516	511	0	0	
7	0	0	0	0	511	510	0	0	
8	0	0	0	0	510	511	0	0	
9	0	0	0	0	512	511	0	0	
10	0	0	0	0	514	513	0	0	
11	0	0	0	0	515	511	0	0	
12	0	0	0	0	515	511	0	0	
13	0	0	0	0	515	511	0	0	
14	0	0	0	0	512	511	0	0	
15	0	0	0	0	503	511	0	0	
0	0	0	0	0	502	510	0	0	
1	0	0	0	0	503	510	0	0	
2	0	0	0	0	502	510	0	0	
3	0	0	0	0	506	509	0	0	
4	0	0	0	0	508	510	0	0	
5	0	0	0	0	504	510	0	0	
6	0	0	0	0	508	510	0	0	
7	0	0	0	0	509	510	0	0	
8	0	0	0	0	508	511	0	0	
9	0	0	0	0	509	512	0	0	
10	0	0	0	0	508	511	0	0	
11	0	0	0	0	509	512	0	0	
12	0	0	0	0	513	510	0	0	
13	0	0	0	0	514	512	0	0	
14	0	0	0	0	518	512	0	0	
15	0	0	0	0	512	511	0	0	
0	0	0	0	0	513	510	0	0	
1	0	0	0	0	511	510	0	0	
2	0	0	0	0	513	512	0	0	
3	0	0	0	0	503	512	0	0	
4	0	0	0	0	504	511	0	0	
5	0	0	0	0	507	508	0	0	
6	0	0	0	0	505	512	0	0	
7	0	0	0	0	510	512	0	0	
8	0	0	0	0	507	509	0	0	
9	0	0	0	0	499	508	0	0	
10	0	0	0	0	493	504	0	0	
11	0	0	0	0	493	509	0	0	
12	0	0	0	0	505	510	0	0	
13	0	0	0	0	511	510	0	0	
14	0	0	0	0	512	513	0	0	
15	0	0	0	0	510	512	0	0	
0	0	0	0	0	511	511	0	0	
1	0	0	0	0	517	509	0	0	
2	0	0	0	0	519	510	0	0	
3	0	0	0	0	518	513	0	0	
4	0	0	0	0	516	511	0	0	
5	0	0	0	0	512	510	0	0	
6	0	0	0	0	508	514	0	0	
7	0	0	0	0	511	511	0	0	
8	0	0	0	0	510	510	0	0	
9	0	0	0	0	508	510	0	0	
10	0	0	0	0	506	512	0	0	
11	0	0	0	0	506	510	0	0	
12	0	0	0	0	504	511	0	0	
13	0	0	0	0	504	510	0	0	
14	0	0	0	0	503	511	0	0	
15	0	0	0	0	506	511	0	0	
0	0	0	0	0	506	511	0	0	
1	0	0	0	0	510	508	0	0	
2	0	0	0	0	506	510	0	0	
3	0	0	0	0	509	510	0	0	
4	0	0	0	0	511	512	0	0	
5	0	0	0	0	513	512	0	0	
6	0	0	0	0	514	510	0	0	
7	0	0	0	0	512	510	0	0	
8	0	0	0	0	511	511	0	0	
9	0	0	0	0	511	510	0	0	
10	0	0	0	0	510	509	0	0	
11	0	0	0	0	512	511	0	0	
12	0	0	0	0	510	511	0	0	
13	0	0	0	0	509	510	0	0	
14	0	0	0	0	504	511	0	0	
15	0	0	0	0	504	510	0	0	
0	0	0	0	0	503	509	0	0	
1	0	0	0	0	502	512	0	0	
2	0	0	0	0	503	508	0	0	
3	0	0	0	0	505	509	0	0	
4	0	0	0	0	510	511	0	0	
5	0	0	0	0	508	509	0	0	
6	0	0	0	0	506	511	0	0	
7	0	0	0	0	507	510	0	0	
8	0	0	0	0	512	510	0	0	
9	0	0	0	0	513	511	0	0	
10	0	0	0	0	513	511	0	0	
11	0	0	0	0	513	511	0	0	
12	0	0	0	0	512	511	0	0	
13	0	0	0	0	512	512	0	0	
14	0	0	0	0	510	512	0	0	
15	0	0	0	0	511	512	0	0	
0	0	0	0	0	510	509	0	0	
1	0	0	0	0	506	510	0	0	
2	0	0	0	0	504	511	0	0	
3	0	0	0	0	507	510	0	0	
4	0	0	0	0	505	509	0	0	
5	0	0	0	0	504	512	0	0	
6	0	0	0	0	505	511	0	0	
7	0	0	0	0	509	509	0	0	
8	0	0	0	0	508	510	0	0	
9	0	0	0	0	505	509	0	0	
10	0	0	0	0	505	512	0	0	
11	0	0	0	0	510	510	0	0	
12	0	0	0	0	511	511	0	0	
13	0	0	0	0	513	510	0	0	
14	0	0	0	0	512	510	0	0	
15	0	0	0	0	511	510	0	0	
0	0	0	0	0	511	510	0	0	
1	0	0	0	0	513	510	0	0	
2	0	0	0	0	513	512	0	0	
3	0	0	0	0	510	511	0	0	
4	0	0	0	0	506	511	0	0	
5	0	0	0	0	508	511	0	0	
6	0	0	0	0	505	510	0	0	
7	0	0	0	0	505	509	0	0	
8	0	0	0	0	503	509	0	0	
9	0	0	0	0	504	512	0	0	
10	0	0	0	0	505	510	0	0	
11	0	0	0	0	507	511	0	0	
12	0	0	0	0	505	512	0	0	
13	0	0	0	0	505	512	0	0	
14	0	0	0	0	505	510	0	0	
15	0	0	0	0	508	510	0	0	
0	0	0	0	0	512	511	0	0	
1	0	0	0	0	513	512	0	0	
2	0	0	0	0	512	511	0	0	
3	0	0	0	0	514	511	0	0	
4	0	0	0	0	515	511	0	0	
5	0	0	0	0	514	510	0	0	
6	0	0	0	0	514	512	0	0	
7	0	0	0	0	512	511	0	0	
8	0	0	0	0	510	508	0	0	
9	0	0	0	0	504	510	0	0	
10	0	0	0	0	502	510	0	0	
11	0	0	0	0	500	510	0	0	
12	0	0	0	0	501	509	0	0	
13	0	0	0	0	500	510	0	0	
14	0	0	0	0	506	509	0	0	
15	0	0	0	0	504	510	0	0	
0	0	0	0	0	508	511	0	0	
1	0	0	0	0	509	513	0	0	
2	0	0	0	0	511	510	0	0	
3	0	0	0	0	513	510	0	0	
4	0	0	0	0	511	512	0	0	
5	0	0	0	0	512	511	0	0	
6	0	0	0	0	514	512	0	0	
7	0	0	0	0	516	511	0	0	
8	0	0	0	0	513	512	0	0	
9	0	0	0	0	512	510	0	0	
10	0	0	0	0	510	510	0	0	
11	0	0	0	0	508	510	0	0	
12	0	0	0	0	506	509	0	0	
13	0	0	0	0	506	510	0	0	
14	0	0	0	0	503	509	0	0	
15	0	0	0	0	507	511	0	0	
0	0	0	0	0	505	509	0	0	
1	0	0	0	0	504	510	0	0	
2	0	0	0	0	504	510	0	0	
3	0	0	0	0	508	510	0	0	
4	0	0	0	0	505	511	0	0	
5	0	0	0	0	505	509	0	0	
6	0	0	0	0	509	508	0	0	
7	0	0	0	0	511	511	0	0	
8	0	0	0	0	511	510	0	0	
9	0	0	0	0	513	511	0	0	
10	0	0	0	0	512	512	0	0	
11	0	0	0	0	511	513	0	0	
12	0	0	0	0	513	514	0	0	
13	0	0	0	0	515	513	0	0	
14	0	0	0	0	511	511	0	0	
15	0	0	0	0	511	513	0	0	
0	0	0	0	0	508	511	0	0	
1	0	0	0	0	505	510	0	0	
2	0	0	0	0	507	510	0	0	
3	0	0	0	0	505	509	0	0	
4	0	0	0	0	504	509	0	0	
5	0	0	0	0	504	509	0	0	
6	0	0	0	0	502	509	0	0	
7	0	0	0	0	507	510	0	0	
8	0	0	0	0	505	509	0	0	
9	0	0	0	0	505	512	0	0	
10	0	0	0	0	509	512	0	0	
11	0	0	0	0	511	512	0	0	
12	0	0	0	0	511	511	0	0	
13	0	0	0	0	511	511	0	0	
14	0	0	0	0	512	511	0	0	
15	0	0	0	0	510	512	0	0	
0	0	0	0	0	513	510	0	0	
1	0	0	0	0	515	510	0	0	
2	0	0	0	0	513	509	0	0	
3	0	0	0	0	510	512	0	0	
4	0	0	0	0	507	510	0	0	
5	0	0	0	0	507	510	0	0	
6	0	0	0	0	503	511	0	0	
7	0	0	0	0	504	508	0	0	
8	0	0	0	0	506	508	0	0	
9	0	0	0	0	506	508	0	0	
10	0	0	0	0	506	510	0	0	
11	0	0	0	0	508	508	0	0	
12	0	0	0	0	507	509	0	0	
13	0	0	0	0	508	511	0	0	
14	0	0	0	0	509	510	0	0	
15	0	0	0	0	511	510	0	0	
0	0	0	0	0	511	509	0	0	
1	0	0	0	0	510	512	0	0	
2	0	0	0	0	512	512	0	0	
3	0	0	0	0	513	510	0	0	
4	0	0	0	0	510	512	0	0	
5	0	0	0	0	513	513	0	0	
6	0	0	0	0	512	512	0	0	
7	0	0	0	0	508	512	0	0	
8	0	0	0	0	508	511	0	0	
9	0	0	0	0	504	511	0	0	
10	0	0	0	0	505	510	0	0	
11	0	0	0	0	505	511	0	0	
12	0	0	0	0	506	510	0	0	
13	0	0	0	0	505	509	0	0	
14	0	0	0	0	506	508	0	0	
15	0	0	0	0	506	509	0	0	
0	0	0	0	0	508	508	0	0	
1	0	0	0	0	508	510	0	0	
2	0	0	0	0	506	509	0	0	
3	0	0	0	0	510	511	0	0	
4	0	0	0	0	511	511	0	0	
5	0	0	0	0	510	515	0	0	
6	0	0	0	0	513	512	0	0	
7	0	0	0	0	513	513	0	0	
8	0	0	0	0	513	510	0	0	
9	0	0	0	0	508	510	0	0	
10	0	0	0	0	509	509	0	0	
11	0	0	0	0	513	509	0	0	
12	0	0	0	0	509	509	0	0	
13	0	0	0	0	508	508	0	0	
14	0	0	0	0	506	510	0	0	
15	0	0	0	0	509	508	0	0	
0	0	0	0	0	507	507	0	0	
1	0	0	0	0	501	511	0	0	
2	0	0	0	0	503	511	0	0	
3	0	0	0	0	504	510	0	0	
4	0	0	0	0	507	510	0	0	
5	0	0	0	0	509	511	0	0	
6	0	0	0	0	508	509	0	0	
7	0	0	0	0	509	511	0	0	
8	0	0	0	0	510	509	0	0	
9	0	0	0	0	511	512	0	0	
10	0	0	0	0	515	513	0	0	
11	0	0	0	0	511	512	0	0	
12	0	0	0	0	512	512	0	0	
13	0	0	0	0	512	510	0	0	
14	0	0	0	0	511	511	0	0	
15	0	0	0	0	511	510	0	0	
0	0	0	0	0	508	510	0	0	
1	0	0	0	0	505	511	0	0	
2	0	0	0	0	507	512	0	0	
3	0	0	0	0	505	510	0	0	
4	0	0	0	0	504	512	0	0	
5	0	0	0	0	504	508	0	0	
6	0	0	0	0	504	509	0	0	
7	0	0	0	0	503	510	0	0	
8	0	0	0	0	506	510	0	0	
9	0	0	0	0	510	509	0	0	
10	0	0	0	0	512	510	0	0	
11	0	0	0	0	514	510	0	0	
12	0	0	0	0	512	511	0	0	
13	0	0	0	0	511	511	0	0	
14	0	0	0	0	511	512	0	0	
15	0	0	0	0	513	512	0	0	
0	0	0	0	0	516	510	0	0	
1	0	0	0	0	513	510	0	0	
2	0	0	0	0	509	509	0	0	
3	0	0	0	0	509	509	0	0	
4	0	0	0	0	506	511	0	0	
5	0	0	0	0	505	509	0	0	
6	0	0	0	0	502	511	0	0	
7	0	0	0	0	502	509	0	0	
8	0	0	0	0	502	509	0	0	
9	0	0	0	0	504	510	0	0	
10	0	0	0	0	509	510	0	0	
11	0	0	0	0	510	511	0	0	
12	0	0	0	0	508	509	0	0	
13	0	0	0	0	507	509	0	0	
14	0	0	0	0	509	510	0	0	
15	0	0	0	0	511	511	0	0	
0	0	0	0	0	510	509	0	0	
1	0	0	0	0	509	511	0	0	
2	0	0	0	0	511	512	0	0	
3	0	0	0	0	511	511	0	0	
4	0	0	0	0	512	512	0	0	
5	0	0	0	0	514	511	0	0	
6	0	0	0	0	512	512	0	0	
7	0	0	0	0	508	512	0	0	
8	0	0	0	0	509	512	0	0	
9	0	0	0	0	507	511	0	0	
10	0	0	0	0	504	511	0	0	
11	0	0	0	0	508	511	0	0	
12	0	0	0	0	508	512	0	0	
13	0	0	0	0	507	513	0	0	
14	0	0	0	0	504	512	0	0	
15	0	0	0	0	504	508	0	0	
0	0	0	0	0	506	508	0	0	
1	0	0	0	0	505	511	0	0	
2	0	0	0	0	508	511	0	0	
3	0	0	0	0	509	510	0	0	
4	0	0	0	0	510	508	0	0	
5	0	0	0	0	512	510	0	0	
6	0	0	0	0	511	511	0	0	
7	0	0	0	0	512	510	0	0	
8	0	0	0	0	511	513	0	0	
9	0	0	0	0	513	512	0	0	
10	0	0	0	0	513	511	0	0	
11	0	0	0	0	510	509	0	0	
12	0	0	0	0	508	510	0	0	
13	0	0	0	0	508	512	0	0	
14	0	0	0	0	507	510	0	0	
15	0	0	0	0	501	509	0	0	
0	0	0	0	0	503	511	0	0	
1	0	0	0	0	507	509	0	0	
2	0	0	0	0	508	510	0	0	
3	0	0	0	0	510	512	0	0	
4	0	0	0	0	506	509	0	0	
5	0	0	0	0	507	510	0	0	
6	0	0	0	0	507	510	0	0	
7	0	0	0	0	506	508	0	0	
8	0	0	0	0	508	511	0	0	
9	0	0	0	0	513	512	0	0	
10	0	0	0	0	517	509	0	0	
11	0	0	0	0	514	512	0	0	
12	0	0	0	0	512	516	0	0	
13	0	0	0	0	513	512	0	0	
14	0	0	0	0	512	510	0	0	
15	0	0	0	0	510	512	0	0	
0	0	0	0	0	509	511	0	0	
1	0	0	0	0	507	512	0	0	
2	0	0	0	0	504	510	0	0	
3	0	0	0	0	503	509	0	0	
4	0	0	0	0	505	507	0	0	
5	0	0	0	0	502	508	0	0	
6	0	0	0	0	503	508	0	0	
7	0	0	0	0	503	511	0	0	
8	0	0	0	0	505	511	0	0	
9	0	0	0	0	510	511	0	0	
10	0	0	0	0	510	512	0	0	
11	0	0	0	0	513	508	0	0	
12	0	0	0	0	510	508	0	0	
13	0	0	0	0	510	510	0	0	
14	0	0	0	0	516	508	0	0	
15	0	0	0	0	515	512	0	0	
0	0	0	0	0	511	510	0	0	
1	0	0	0	0	511	513	0	0	
2	0	0	0	0	511	511	0	0	
3	0	0	0	0	509	511	0	0	
4	0	0	0	0	506	509	0	0	
5	0	0	0	0	505	511	0	0	
6	0	0	0	0	505	512	0	0	
7	0	0	0	0	507	510	0	0	
8	0	0	0	0	507	507	0	0	
9	0	0	0	0	506	510	0	0	
10	0	0	0	0	507	512	0	0	
11	0	0	0	0	506	511	0	0	
12	0	0	0	0	502	508	0	0	
13	0	0	0	0	504	512	0	0	
14	0	0	0	0	508	510	0	0	
15	0	0	0	0	511	511	0	0	
0	0	0	0	0	513	512	0	0	
1	0	0	0	0	512	510	0	0	
2	0	0	0	0	512	512	0	0	
3	0	0	0	0	511	511	0	0	
4	0	0	0	0	512	510	0	0	
5	0	0	0	0	511	511	0	0	
6	0	0	0	0	515	512	0	0	
7	0	0	0	0	510	511	0	0	
8	0	0	0	0	509	509	0	0	
9	0	0	0	0	507	511	0	0	
10	0	0	0	0	503	511	0	0	
11	0	0	0	0	507	510	0	0	
12	0	0	0	0	505	509	0	0	
13	0	0	0	0	504	508	0	0	
14	0	0	0	0	507	510	0	0	
15	0	0	0	0	506	509	0	0	
0	0	0	0	0	506	508	0	0	
1	0	0	0	0	504	510	0	0	
2	0	0	0	0	504	510	0	0	
3	0	0	0	0	507	512	0	0	
4	0	0	0	0	511	512	0	0	
5	0	0	0	0	511	511	0	0	
6	0	0	0	0	517	511	0	0	
7	0	0	0	0	515	510	0	0	
8	0	0	0	0	515	512	0	0	
9	0	0	0	0	510	512	0	0	
10	0	0	0	0	506	510	0	0	
11	0	0	0	0	508	512	0	0	
12	0	0	0	0	510	512	0	0	
13	0	0	0	0	508	511	0	0	
14	0	0	0	0	504	511	0	0	
15	0	0	0	0	508	509	0	0	
0	0	0	0	0	505	509	0	0	
1	0	0	0	0	503	508	0	0	
2	0	0	0	0	502	507	0	0	
3	0	0	0	0	502	511	0	0	
4	0	0	0	0	506	509	0	0	
5	0	0	0	0	512	511	0	0	
6	0	0	0	0	513	513	0	0	
7	0	0	0	0	511	513	0	0	
8	0	0	0	0	512	511	0	0	
9	0	0	0	0	513	510	0	0	
10	0	0	0	0	513	511	0	0	
11	0	0	0	0	512	510	0	0	
12	0	0	0	0	513	510	0	0	
13	0	0	0	0	512	512	0	0	
14	0	0	0	0	510	512	0	0	
15	0	0	0	0	510	510	0	0	
0	0	0	0	0	508	510	0	0	
1	0	0	0	0	506	512	0	0	
2	0	0	0	0	501	512	0	0	
3	0	0	0	0	503	510	0	0	
4	0	0	0	0	503	510	0	0	
5	0	0	0	0	502	510	0	0	
6	0	0	0	0	504	511	0	0	
7	0	0	0	0	505	511	0	0	
8	0	0	0	0	508	509	0	0	
9	0	0	0	0	511	507	0	0	
10	0	0	0	0	509	508	0	0	
11	0	0	0	0	510	509	0	0	
12	0	0	0	0	513	512	0	0	
13	0	0	0	0	514	511	0	0	
14	0	0	0	0	514	508	0	0	
15	0	0	0	0	513	512	0	0	
0	0	0	0	0	514	511	0	0	
1	0	0	0	0	511	512	0	0	
2	0	0	0	0	510	511	0	0	
3	0	0	0	0	509	509	0	0	
4	0	0	0	0	509	509	0	0	
5	0	0	0	0	507	512	0	0	
6	0	0	0	0	506	511	0	0	
7	0	0	0	0	504	510	0	0	
8	0	0	0	0	501	508	0	0	
9	0	0	0	0	503	510	0	0	
10	0	0	0	0	504	510	0	0	
11	0	0	0	0	504	508	0	0	
12	0	0	0	0	505	509	0	0	
13	0	0	0	0	508	511	0	0	
14	0	0	0	0	509	509	0	0	
15	0	0	0	0	512	510	0	0	
0	0	0	0	0	511	512	0	0	
1	0	0	0	0	510	510	0	0	
2	0	0	0	0	510	512	0	0	
3	0	0	0	0	511	510	0	0	
4	0	0	0	0	511	512	0	0	
5	0	0	0	0	511	511	0	0	
6	0	0	0	0	510	511	0	0	
7	0	0	0	0	509	511	0	0	
8	0	0	0	0	514	512	0	0	
9	0	0	0	0	511	510	0	0	
10	0	0	0	0	510	510	0	0	
11	0	0	0	0	510	512	0	0	
12	0	0	0	0	506	511	0	0	
13	0	0	0	0	502	512	0	0	
14	0	0	0	0	502	509	0	0	
15	0	0	0	0	503	509	0	0	
0	0	0	0	0	504	510	0	0	
1	0	0	0	0	505	511	0	0	
2	0	0	0	0	505	509	0	0	
3	0	0	0	0	510	509	0	0	
4	0	0	0	0	512	511	0	0	
5	0	0	0	0	513	511	0	0	
6	0	0	0	0	511	511	0	0	
7	0	0	0	0	514	515	0	0	
8	0	0	0	0	514	511	0	0	
9	0	0	0	0	511	512	0	0	
10	0	0	0	0	511	512	0	0	
11	0	0	0	0	510	511	0	0	
12	0	0	0	0	511	511	0	0	
13	0	0	0	0	508	512	0	0	
14	0	0	0	0	507	509	0	0	
15	0	0	0	0	508	510	0	0	
0	0	0	0	0	505	511	0	0	
1	0	0	0	0	501	510	0	0	
2	0	0	0	0	501	509	0	0	
3	0	0	0	0	505	508	0	0	
4	0	0	0	0	504	509	0	0	
5	0	0	0	0	505	509	0	0	
6	0	0	0	0	505	510	0	0	
7	0	0	0	0	508	509	0	0	
8	0	0	0	0	514	510	0	0	
9	0	0	0	0	515	510	0	0	
10	0	0	0	0	515	511	0	0	
11	0	0	0	0	512	511	0	0	
12	0	0	0	0	513	511	0	0	
13	0	0	0	0	515	512	0	0	
14	0	0	0	0	512	510	0	0	
15	0	0	0	0	511	512	0	0	
0	0	0	0	0	507	510	0	0	
1	0	0	0	0	506	511	0	0	
2	0	0	0	0	503	511	0	0	
3	0	0	0	0	504	509	0	0	
4	0	0	0	0	504	511	0	0	
5	0	0	0	0	504	511	0	0	
6	0	0	0	0	506	509	0	0	
7	0	0	0	0	508	510	0	0	
8	0	0	0	0	508	510	0	0	
9	0	0	0	0	505	511	0	0	
10	0	0	0	0	508	511	0	0	
11	0	0	0	0	510	511	0	0	
12	0	0	0	0	513	511	0	0	
13	0	0	0	0	512	512	0	0	
14	0	0	0	0	512	510	0	0	
15	0	0	0	0	511	512	0	0	
0	0	0	0	0	511	511	0	0	
1	0	0	0	0	507	510	0	0	
2	0	0	0	0	508	510	0	0	
3	0	0	0	0	509	511	0	0	
4	0	0	0	0	508	510	0	0	
5	0	0	0	0	504	511	0	0	
6	0	0	0	0	504	509	0	0	
7	0	0	0	0	505	509	0	0	
8	0	0	0	0	503	510	0	0	
9	0	0	0	0	507	511	0	0	
10	0	0	0	0	506	512	0	0	
11	0	0	0	0	507	511	0	0	
12	0	0	0	0	510	509	0	0	
13	0	0	0	0	508	510	0	0	
14	0	0	0	0	506	509	0	0	
15	0	0	0	0	511	510	0	0	
0	0	0	0	0	514	512	0	0	
1	0	0	0	0	510	511	0	0	
2	0	0	0	0	513	512	0	0	
3	0	0	0	0	514	512	0	0	
4	0	0	0	0	512	512	0	0	
5	0	0	0	0	512	511	0	0	
6	0	0	0	0	512	511	0	0	
7	0	0	0	0	511	511	0	0	
8	0	0	0	0	510	511	0	0	
9	0	0	0	0	509	511	0	0	
10	0	0	0	0	504	511	0	0	
11	0	0	0	0	506	509	0	0	
12	0	0	0	0	507	509	0	0	
13	0	0	0	0	504	509	0	0	
14	0	0	0	0	504	510	0	0	
15	0	0	0	0	506	511	0	0	
0	0	0	0	0	505	511	0	0	
1	0	0	0	0	506	510	0	0	
2	0	0	0	0	504	510	0	0	
3	0	0	0	0	509	512	0	0	
4	0	0	0	0	512	512	0	0	
5	0	0	0	0	516	512	0	0	
6	0	0	0	0	517	513	0	0	
7	0	0	0	0	512	512	0	0	
8	0	0	0	0	513	511	0	0	
9	0	0	0	0	511	511	0	0	
10	0	0	0	0	511	512	0	0	
11	0	0	0	0	513	512	0	0	
12	0	0	0	0	510	512	0	0	
13	0	0	0	0	504	509	0	0	
14	0	0	0	0	504	508	0	0	
15	0	0	0	0	503	509	0	0	
0	0	0	0	0	503	508	0	0	
1	0	0	0	0	504	510	0	0	
2	0	0	0	0	506	508	0	0	
3	0	0	0	0	506	511	0	0	
4	0	0	0	0	504	512	0	0	
5	0	0	0	0	508	512	0	0	
6	0	0	0	0	507	511	0	0	
7	0	0	0	0	508	511	0	0	
8	0	0	0	0	513	511	0	0	
9	0	0	0	0	512	514	0	0	
10	0	0	0	0	516	512	0	0	
11	0	0	0	0	515	513	0	0	
12	0	0	0	0	513	510	0	0	
13	0	0	0	0	508	510	0	0	
14	0	0	0	0	509	510	0	0	
15	0	0	0	0	510	512	0	0	
0	0	0	0	0	505	511	0	0	
1	0	0	0	0	504	508	0	0	
2	0	0	0	0	503	510	0	0	
3	0	0	0	0	507	510	0	0	
4	0	0	0	0	502	509	0	0	
5	0	0	0	0	506	511	0	0	
6	0	0	0	0	505	510	0	0	
7	0	0	0	0	507	506	0	0	
8	0	0	0	0	508	511	0	0	
9	0	0	0	0	508	511	0	0	
10	0	0	0	0	508	510	0	0	
11	0	0	0	0	511	510	0	0	
12	0	0	0	0	505	509	0	0	
13	0	0	0	0	508	510	0	0	
14	0	0	0	0	513	509	0	0	
15	0	0	0	0	516	512	0	0	
0	0	0	0	0	513	510	0	0	
1	0	0	0	0	514	513	0	0	
2	0	0	0	0	512	512	0	0	
3	0	0	0	0	510	512	0	0	
4	0	0	0	0	507	512	0	0	
5	0	0	0	0	506	508	0	0	
6	0	0	0	0	507	513	0	0	
7	0	0	0	0	509	510	0	0	
8	0	0	0	0	504	509	0	0	
9	0	0	0	0	500	510	0	0	
10	0	0	0	0	505	512	0	0	
11	0	0	0	0	507	511	0	0	
12	0	0	0	0	510	509	0	0	
13	0	0	0	0	507	510	0	0	
14	0	0	0	0	506	510	0	0	
15	0	0	0	0	511	509	0	0	
0	0	0	0	0	509	513	0	0	
1	0	0	0	0	509	510	0	0	
2	0	0	0	0	511	510	0	0	
3	0	0	0	0	513	511	0	0	
4	0	0	0	0	514	512	0	0	
5	0	0	0	0	511	511	0	0	
6	0	0	0	0	512	510	0	0	
7	0	0	0	0	510	512	0	0	
8	0	0	0	0	509	511	0	0	
9	0	0	0	0	509	512	0	0	
10	0	0	0	0	508	511	0	0	
11	0	0	0	0	506	511	0	0	
12	0	0	0	0	506	510	0	0	
13	0	0	0	0	501	510	0	0	
14	0	0	0	0	503	510	0	0	
15	0	0	0	0	505	509	0	0	
0	0	0	0	0	507	510	0	0	
1	0	0	0	0	504	510	0	0	
2	0	0	0	0	507	511	0	0	
3	0	0	0	0	509	509	0	0	
4	0	0	0	0	511	512	0	0	
5	0	0	0	0	511	509	0	0	
6	0	0	0	0	514	510	0	0	
7	0	0	0	0	512	513	0	0	
8	0	0	0	0	514	512	0	0	
9	0	0	0	0	511	509	0	0	
10	0	0	0	0	511	512	0	0	
11	0	0	0	0	511	512	0	0	
12	0	0	0	0	511	510	0	0	
13	0	0	0	0	510	511	0	0	
14	0	0	0	0	507	512	0	0	
15	0	0	0	0	504	509	0	0	
0	0	0	0	0	501	510	0	0	
1	0	0	0	0	500	510	0	0	
2	0	0	0	0	502	511	0	0	
3	0	0	0	0	504	510	0	0	
4	0	0	0	0	508	509	0	0	
5	0	0	0	0	512	511	0	0	
6	0	0	0	0	510	511	0	0	
7	0	0	0	0	512	511	0	0	
8	0	0	0	0	511	509	0	0	
9	0	0	0	0	511	510	0	0	
10	0	0	0	0	512	511	0	0	
11	0	0	0	0	513	510	0	0	
12	0	0	0	0	510	511	0	0	
13	0	0	0	0	511	512	0	0	
14	0	0	0	0	514	511	0	0	
15	0	0	0	0	514	513	0	0	
0	0	0	0	0	512	512	0	0	
1	0	0	0	0	506	512	0	0	
2	0	0	0	0	504	510	0	0	
3	0	0	0	0	502	507	0	0	
4	0	0	0	0	502	510	0	0	
5	0	0	0	0	503	513	0	0	
6	0	0	0	0	503	510	0	0	
7	0	0	0	0	507	511	0	0	
8	0	0	0	0	508	510	0	0	
9	0	0	0	0	508	507	0	0	
10	0	0	0	0	506	509	0	0	
11	0	0	0	0	513	510	0	0	
12	0	0	0	0	513	510	0	0	
13	0	0	0	0	513	508	0	0	
14	0	0	0	0	516	512	0	0	
15	0	0	0	0	515	511	0	0	
0	0	0	0	0	511	512	0	0	
1	0	0	0	0	510	510	0	0	
2	0	0	0	0	511	510	0	0	
3	0	0	0	0	512	513	0	0	
4	0	0	0	0	505	511	0	0	
5	0	0	0	0	504	509	0	0	
6	0	0	0	0	501	510	0	0	
7	0	0	0	0	506	512	0	0	
8	0	0	0	0	504	513	0	0	
9	0	0	0	0	502	510	0	0	
10	0	0	0	0	502	510	0	0	
11	0	0	0	0	504	509	0	0	
12	0	0	0	0	506	508	0	0	
13	0	0	0	0	507	508	0	0	
14	0	0	0	0	511	510	0	0	
15	0	0	0	0	513	509	0	0	
0	0	0	0	0	511	509	0	0	
1	0	0	0	0	511	508	0	0	
2	0	0	0	0	515	510	0	0	
3	0	0	0	0	515	510	0	0	
4	0	0	0	0	513	512	0	0	
5	0	0	0	0	513	511	0	0	
6	0	0	0	0	513	511	0	0	
7	0	0	0	0	511	511	0	0	
8	0	0	0	0	507	511	0	0	
9	0	0	0	0	509	513	0	0	
10	0	0	0	0	505	511	0	0	
11	0	0	0	0	506	510	0	0	
12	0	0	0	0	506	513	0	0	
13	0	0	0	0	504	511	0	0	
14	0	0	0	0	504	508	0	0	
15	0	0	0	0	497	508	0	0	
0	0	0	0	0	498	508	0	0	
1	0	0	0	0	503	511	0	0	
2	0	0	0	0	507	510	0	0	
3	0	0	0	0	510	510	0	0	
4	0	0	0	0	514	511	0	0	
5	0	0	0	0	514	512	0	0	
6	0	0	0	0	516	511	0	0	
7	0	0	0	0	514	512	0	0	
8	0	0	0	0	515	512	0	0	
9	0	0	0	0	513	513	0	0	
10	0	0	0	0	512	511	0	0	
11	0	0	0	0	511	511	0	0	
12	0	0	0	0	508	511	0	0	
13	0	0	0	0	508	508	0	0	
14	0	0	0	0	504	512	0	0	
15	0	0	0	0	507	513	0	0	
0	0	0	0	0	505	511	0	0	
1	0	0	0	0	504	511	0	0	
2	0	0	0	0	504	511	0	0	
3	0	0	0	0	503	507	0	0	
4	0	0	0	0	509	508	0	0	
5	0	0	0	0	510	511	0	0	
6	0	0	0	0	506	511	0	0	
7	0	0	0	0	508	512	0	0	
8	0	0	0	0	511	511	0	0	
9	0	0	0	0	513	510	0	0	
10	0	0	0	0	513	511	0	0	
11	0	0	0	0	511	509	0	0	
12	0	0	0	0	509	508	0	0	
13	0	0	0	0	512	512	0	0	
14	0	0	0	0	512	510	0	0	
15	0	0	0	0	514	514	0	0	
0	0	0	0	0	509	512	0	0	
1	0	0	0	0	508	511	0	0	
2	0	0	0	0	505	511	0	0	
3	0	0	0	0	504	510	0	0	
4	0	0	0	0	507	510	0	0	
5	0	0	0	0	504	510	0	0	
6	0	0	0	0	503	510	0	0	
7	0	0	0	0	504	510	0	0	
8	0	0	0	0	508	512	0	0	
9	0	0	0	0	507	511	0	0	
10	0	0	0	0	507	507	0	0	
11	0	0	0	0	509	511	0	0	
12	0	0	0	0	510	509	0	0	
13	0	0	0	0	513	509	0	0	
14	0	0	0	0	511	509	0	0	
15	0	0	0	0	513	511	0	0	
0	0	0	0	0	512	510	0	0	
1	0	0	0	0	512	513	0	0	
2	0	0	0	0	511	511	0	0	
3	0	0	0	0	513	512	0	0	
4	0	0	0	0	511	513	0	0	
5	0	0	0	0	508	511	0	0	
6	0	0	0	0	508	510	0	0	
7	0	0	0	0	507	510	0	0	
8	0	0	0	0	504	512	0	0	
9	0	0	0	0	504	511	0	0	
10	0	0	0	0	504	509	0	0	
11	0	0	0	0	504	509	0	0	
12	0	0	0	0	505	510	0	0	
13	0	0	0	0	506	510	0	0	
14	0	0	0	0	506	508	0	0	
15	0	0	0	0	510	509	0	0	
0	0	0	0	0	512	510	0	0	
1	0	0	0	0	514	509	0	0	
2	0	0	0	0	517	511	0	0	
3	0	0	0	0	516	512	0	0	
4	0	0	0	0	514	511	0	0	
5	0	0	0	0	512	512	0	0	
6	0	0	0	0	510	513	0	0	
7	0	0	0	0	512	512	0	0	
8	0	0	0	0	509	512	0	0	
9	0	0	0	0	507	511	0	0	
10	0	0	0	0	503	510	0	0	
11	0	0	0	0	501	508	0	0	
12	0	0	0	0	502	508	0	0	
13	0	0	0	0	504	510	0	0	
14	0	0	0	0	507	509	0	0	
15	0	0	0	0	505	510	0	0	
0	0	0	0	0	506	509	0	0	
1	0	0	0	0	506	512	0	0	
2	0	0	0	0	508	508	0	0	
3	0	0	0	0	508	512	0	0	
4	0	0	0	0	513	512	0	0	
5	0	0	0	0	512	511	0	0	
6	0	0	0	0	514	512	0	0	
7	0	0	0	0	515	511	0	0	
8	0	0	0	0	514	513	0	0	
9	0	0	0	0	510	510	0	0	
10	0	0	0	0	510	510	0	0	
11	0	0	0	0	509	511	0	0	
12	0	0	0	0	507	510	0	0	
13	0	0	0	0	508	510	0	0	
14	0	0	0	0	505	511	0	0	
15	0	0	0	0	504	509	0	0	
0	0	0	0	0	501	510	0	0	
1	0	0	0	0	503	509	0	0	
2	0	0	0	0	504	511	0	0	
3	0	0	0	0	505	511	0	0	
4	0	0	0	0	506	511	0	0	
5	0	0	0	0	509	510	0	0	
6	0	0	0	0	510	511	0	0	
7	0	0	0	0	511	510	0	0	
8	0	0	0	0	514	511	0	0	
9	0	0	0	0	510	510	0	0	
10	0	0	0	0	509	510	0	0	
11	0	0	0	0	513	511	0	0	
12	0	0	0	0	513	510	0	0	
13	0	0	0	0	516	510	0	0	
14	0	0	0	0	509	510	0	0	
15	0	0	0	0	510	511	0	0	
0	0	0	0	0	508	509	0	0	
1	0	0	0	0	507	508	0	0	
2	0	0	0	0	508	510	0	0	
3	0	0	0	0	504	511	0	0	
4	0	0	0	0	503	511	0	0	
5	0	0	0	0	502	511	0	0	
6	0	0	0	0	506	511	0	0	
7	0	0	0	0	510	511	0	0	
8	0	0	0	0	511	510	0	0	
9	0	0	0	0	509	510	0	0	
10	0	0	0	0	507	508	0	0	
11	0	0	0	0	509	514	0	0	
12	0	0	0	0	512	513	0	0	
13	0	0	0	0	507	509	0	0	
14	0	0	0	0	507	513	0	0	
15	0	0	0	0	510	511	0	0	
0	0	0	0	0	512	512	0	0	
1	0	0	0	0	512	512	0	0	
2	0	0	0	0	515	513	0	0	
3	0	0	0	0	512	511	0	0	
4	0	0	0	0	510	511	0	0	
5	0	0	0	0	507	510	0	0	
6	0	0	0	0	504	508	0	0	
7	0	0	0	0	507	508	0	0	
8	0	0	0	0	505	508	0	0	
9	0	0	0	0	502	511	0	0	
10	0	0	0	0	504	510	0	0	
11	0	0	0	0	504	508	0	0	
12	0	0	0	0	506	509	0	0	
13	0	0	0	0	508	509	0	0	
14	0	0	0	0	507	512	0	0	
15	0	0	0	0	511	507	0	0	
0	0	0	0	0	512	510	0	0	
1	0	0	0	0	511	511	0	0	
2	0	0	0	0	511	510	0	0	
3	0	0	0	0	513	510	0	0	
4	0	0	0	0	513	512	0	0	
5	0	0	0	0	514	512	0	0	
6	0	0	0	0	511	512	0	0	
7	0	0	0	0	508	511	0	0	
8	0	0	0	0	510	510	0	0	
9	0	0	0	0	505	513	0	0	
10	0	0	0	0	503	509	0	0	
11	0	0	0	0	508	510	0	0	
12	0	0	0	0	507	511	0	0	
13	0	0	0	0	504	511	0	0	
14	0	0	0	0	503	509	0	0	
15	0	0	0	0	505	510	0	0	
0	0	0	0	0	504	510	0	0	
1	0	0	0	0	504	511	0	0	
2	0	0	0	0	507	511	0	0	
3	0	0	0	0	511	511	0	0	
4	0	0	0	0	512	513	0	0	
5	0	0	0	0	511	510	0	0	
6	0	0	0	0	511	511	0	0	
7	0	0	0	0	512	513	0	0	
8	0	0	0	0	514	512	0	0	
9	0	0	0	0	513	512	0	0	
10	0	0	0	0	513	512	0	0	
11	0	0	0	0	509	511	0	0	
12	0	0	0	0	504	511	0	0	
13	0	0	0	0	503	510	0	0	
14	0	0	0	0	503	510	0	0	
15	0	0	0	0	510	509	0	0	
0	0	0	0	0	507	511	0	0	
1	0	0	0	0	507	511	0	0	
2	0	0	0	0	505	511	0	0	
3	0	0	0	0	505	509	0	0	
4	0	0	0	0	502	507	0	0	
5	0	0	0	0	504	507	0	0	
6	0	0	0	0	509	508	0	0	
7	0	0	0	0	511	511	0	0	
8	0	0	0	0	513	511	0	0	
9	0	0	0	0	513	512	0	0	
10	0	0	0	0	516	512	0	0	
11	0	0	0	0	514	511	0	0	
12	0	0	0	0	512	513	0	0	
13	0	0	0	0	511	511	0	0	
14	0	0	0	0	508	512	0	0	
15	0	0	0	0	508	511	0	0	
0	0	0	0	0	509	511	0	0	
1	0	0	0	0	508	511	0	0	
2	0	0	0	0	507	509	0	0	
3	0	0	0	0	506	508	0	0	
4	0	0	0	0	505	510	0	0	
5	0	0	0	0	502	510	0	0	
6	0	0	0	0	505	508	0	0	
7	0	0	0	0	504	508	0	0	
8	0	0	0	0	508	509	0	0	
9	0	0	0	0	510	510	0	0	
10	0	0	0	0	505	511	0	0	
11	0	0	0	0	504	510	0	0	
12	0	0	0	0	509	509	0	0	
13	0	0	0	0	515	512	0	0	
14	0	0	0	0	513	511	0	0	
15	0	0	0	0	511	513	0	0	
0	0	0	0	0	514	510	0	0	
1	0	0	0	0	515	510	0	0	
2	0	0	0	0	509	512	0	0	
3	0	0	0	0	510	511	0	0	
4	0	0	0	0	507	510	0	0	
5	0	0	0	0	507	512	0	0	
6	0	0	0	0	511	511	0	0	
7	0	0	0	0	507	508	0	0	
8	0	0	0	0	507	510	0	0	
9	0	0	0	0	503	510	0	0	
10	0	0	0	0	503	512	0	0	
11	0	0	0	0	507	510	0	0	
12	0	0	0	0	506	511	0	0	
13	0	0	0	0	504	511	0	0	
14	0	0	0	0	507	509	0	0	
15	0	0	0	0	510	509	0	0	
0	0	0	0	0	511	509	0	0	
1	0	0	0	0	514	510	0	0	
2	0	0	0	0	517	509	0	0	
3	0	0	0	0	516	510	0	0	
4	0	0	0	0	514	511	0	0	
5	0	0	0	0	513	512	0	0	
6	0	0	0	0	508	513	0	0	
7	0	0	0	0	508	512	0	0	
8	0	0	0	0	510	512	0	0	
9	0	0	0	0	507	513	0	0	
10	0	0	0	0	503	510	0	0	
11	0	0	0	0	497	508	0	0	
12	0	0	0	0	501	508	0	0	
13	0	0	0	0	505	509	0	0	
14	0	0	0	0	509	508	0	0	
15	0	0	0	0	503	511	0	0	
0	0	0	0	0	505	510	0	0	
1	0	0	0	0	504	510	0	0	
2	0	0	0	0	509	509	0	0	
3	0	0	0	0	512	511	0	0	
4	0	0	0	0	513	511	0	0	
5	0	0	0	0	515	512	0	0	
6	0	0	0	0	515	512	0	0	
7	0	0	0	0	516	512	0	0	
8	0	0	0	0	515	511	0	0	
9	0	0	0	0	511	511	0	0	
10	0	0	0	0	509	510	0	0	
11	0	0	0	0	510	512	0	0	
12	0	0	0	0	512	512	0	0	
13	0	0	0	0	511	511	0	0	
14	0	0	0	0	513	511	0	0	
15	0	0	0	0	513	511	0	0	
0	0	0	0	0	501	511	0	0	
1	0	0	0	0	494	510	0	0	
2	0	0	0	0	503	510	0	0	
3	0	0	0	0	500	510	0	0	
4	0	0	0	0	492	511	0	0	
5	0	0	0	0	501	506	0	0	
6	0	0	0	0	505	511	0	0	
7	0	0	0	0	512	508	0	0	
8	0	0	0	0	519	508	0	0	
9	0	0	0	0	518	512	0	0	
10	0	0	0	0	517	510	0	0	
11	0	0	0	0	513	510	0	0	
12	0	0	0	0	512	512	0	0	
13	0	0	0	0	512	512	0	0	
14	0	0	0	0	514	511	0	0	
15	0	0	0	0	510	512	0	0	
0	0	0	0	0	505	511	0	0	
1	0	0	0	0	506	513	0	0	
2	0	0	0	0	505	512	0	0	
3	0	0	0	0	505	510	0	0	
4	0	0	0	0	506	510	0	0	
5	0	0	0	0	505	510	0	0	
6	0	0	0	0	505	510	0	0	
7	0	0	0	0	505	510	0	0	
8	0	0	0	0	505	510	0	0	
9	0	0	0	0	507	510	0	0	
10	0	0	0	0	508	510	0	0	
11	0	0	0	0	509	509	0	0	
12	0	0	0	0	509	511	0	0	
13	0	0	0	0	511	511	0	0	
14	0	0	0	0	515	512	0	0	
15	0	0	0	0	516	511	0	0	
0	0	0	0	0	516	511	0	0	
1	0	0	0	0	513	511	0	0	
2	0	0	0	0	507	508	0	0	
3	0	0	0	0	511	511	0	0	
4	0	0	0	0	511	513	0	0	
5	0	0	0	0	509	510	0	0	
6	0	0	0	0	507	511	0	0	
7	0	0	0	0	502	511	0	0	
8	0	0	0	0	500	511	0	0	
9	0	0	0	0	501	509	0	0	
10	0	0	0	0	505	509	0	0	
11	0	0	0	0	506	509	0	0	
12	0	0	0	0	504	510	0	0	
13	0	0	0	0	505	511	0	0	
14	0	0	0	0	507	511	0	0	
15	0	0	0	0	510	511	0	0	
0	0	0	0	0	514	510	0	0	
1	0	0	0	0	513	511	0	0	
2	0	0	0	0	516	512	0	0	
3	0	0	0	0	516	509	0	0	
4	0	0	0	0	512	511	0	0	
5	0	0	0	0	510	512	0	0	
6	0	0	0	0	509	512	0	0	
7	0	0	0	0	509	513	0	0	
8	0	0	0	0	509	510	0	0	
9	0	0	0	0	504	512	0	0	
10	0	0	0	0	504	511	0	0	
11	0	0	0	0	504	509	0	0	
12	0	0	0	0	507	511	0	0	
13	0	0	0	0	504	511	0	0	
14	0	0	0	0	506	511	0	0	
15	0	0	0	0	503	511	0	0	
0	0	0	0	0	504	509	0	0	
1	0	0	0	0	505	510	0	0	
2	0	0	0	0	507	510	0	0	
3	0	0	0	0	510	508	0	0	
4	0	0	0	0	511	509	0	0	
5	0	0	0	0	519	510	0	0	
6	0	0	0	0	518	512	0	0	
7	0	0	0	0	515	511	0	0	
8	0	0	0	0	511	513	0	0	
9	0	0	0	0	509	511	0	0	
10	0	0	0	0	510	512	0	0	
11	0	0	0	0	512	511	0	0	
12	0	0	0	0	506	511	0	0	
13	0	0	0	0	504	510	0	0	
14	0	0	0	0	505	510	0	0	
15	0	0	0	0	508	508	0	0	
0	0	0	0	0	509	509	0	0	
1	0	0	0	0	503	510	0	0	
2	0	0	0	0	499	510	0	0	
3	0	0	0	0	504	508	0	0	
4	0	0	0	0	503	510	0	0	
5	0	0	0	0	504	511	0	0	
6	0	0	0	0	505	510	0	0	
7	0	0	0	0	507	508	0	0	
8	0	0	0	0	508	510	0	0	
9	0	0	0	0	510	511	0	0	
10	0	0	0	0	515	512	0	0	
11	0	0	0	0	515	512	0	0	
12	0	0	0	0	514	512	0	0	
13	0	0	0	0	516	510	0	0	
14	0	0	0	0	515	512	0	0	
15	0	0	0	0	516	511	0	0	
0	0	0	0	0	509	511	0	0	
1	0	0	0	0	503	510	0	0	
2	0	0	0	0	505	510	0	0	
3	0	0	0	0	504	509	0	0	
4	0	0	0	0	506	512	0	0	
5	0	0	0	0	504	508	0	0	
6	0	0	0	0	504	510	0	0	
7	0	0	0	0	507	510	0	0	
8	0	0	0	0	510	512	0	0	
9	0	0	0	0	508	511	0	0	
10	0	0	0	0	508	510	0	0	
11	0	0	0	0	510	512	0	0	
12	0	0	0	0	513	511	0	0	
13	0	0	0	0	511	513	0	0	
14	0	0	0	0	512	514	0	0	
15	0	0	0	0	504	512	0	0	
0	0	0	0	0	508	511	0	0	
1	0	0	0	0	511	511	0	0	
2	0	0	0	0	512	510	0	0	
3	0	0	0	0	511	511	0	0	
4	0	0	0	0	509	509	0	0	
5	0	0	0	0	508	509	0	0	
6	0	0	0	0	505	510	0	0	
7	0	0	0	0	507	511	0	0	
8	0	0	0	0	506	510	0	0	
9	0	0	0	0	504	511	0	0	
10	0	0	0	0	504	512	0	0	
11	0	0	0	0	504	511	0	0	
12	0	0	0	0	507	511	0	0	
13	0	0	0	0	508	509	0	0	
14	0	0	0	0	509	511	0	0	
15	0	0	0	0	511	509	0	0	
0	0	0	0	0	510	511	0	0	
1	0	0	0	0	511	511	0	0	
2	0	0	0	0	514	511	0	0	
3	0	0	0	0	515	513	0	0	
4	0	0	0	0	513	513	0	0	
5	0	0	0	0	513	510	0	0	
6	0	0	0	0	510	510	0	0	
7	0	0	0	0	512	510	0	0	
8	0	0	0	0	512	511	0	0	
9	0	0	0	0	507	512	0	0	
10	0	0	0	0	508	510	0	0	
11	0	0	0	0	505	511	0	0	
12	0	0	0	0	505	510	0	0	
13	0	0	0	0	499	510	0	0	
14	0	0	0	0	497	507	0	0	
15	0	0	0	0	497	510	0	0	
0	0	0	0	0	503	510	0	0	
1	0	0	0	0	506	510	0	0	
2	0	0	0	0	509	509	0	0	
3	0	0	0	0	514	510	0	0	
4	0	0	0	0	516	509	0	0	
5	0	0	0	0	513	510	0	0	
6	0	0	0	0	515	510	0	0	
7	0	0	0	0	514	512	0	0	
8	0	0	0	0	512	512	0	0	
9	0	0	0	0	514	511	0	0	
10	0	0	0	0	515	515	0	0	
11	0	0	0	0	512	512	0	0	
12	0	0	0	0	506	512	0	0	
13	0	0	0	0	508	510	0	0	
14	0	0	0	0	507	511	0	0	
15	0	0	0	0	500	508	0	0	
0	0	0	0	0	502	512	0	0	
1	0	0	0	0	503	510	0	0	
2	0	0	0	0	508	510	0	0	
3	0	0	0	0	505	510	0	0	
4	0	0	0	0	509	510	0	0	
5	0	0	0	0	508	509	0	0	
6	0	0	0	0	508	511	0	0	
7	0	0	0	0	512	509	0	0	
8	0	0	0	0	515	509	0	0	
9	0	0	0	0	512	511	0	0	
10	0	0	0	0	510	509	0	0	
11	0	0	0	0	507	510	0	0	
12	0	0	0	0	503	508	0	0	
13	0	0	0	0	505	508	0	0	
14	0	0	0	0	509	510	0	0	
15	0	0	0	0	514	512	0	0	
0	0	0	0	0	513	511	0	0	
1	0	0	0	0	511	510	0	0	
2	0	0	0	0	508	510	0	0	
3	0	0	0	0	511	511	0	0	
4	0	0	0	0	511	511	0	0	
5	0	0	0	0	509	511	0	0	
6	0	0	0	0	506	512	0	0	
7	0	0	0	0	504	512	0	0	
8	0	0	0	0	508	511	0	0	
9	0	0	0	0	505	511	0	0	
10	0	0	0	0	509	508	0	0	
11	0	0	0	0	511	510	0	0	
12	0	0	0	0	503	510	0	0	
13	0	0	0	0	503	507	0	0	
14	0	0	0	0	507	510	0	0	
15	0	0	0	0	510	511	0	0	
0	0	0	0	0	510	511	0	0	
1	0	0	0	0	508	512	0	0	
2	0	0	0	0	512	512	0	0	
3	0	0	0	0	511	508	0	0	
4	0	0	0	0	504	510	0	0	
5	0	0	0	0	505	511	0	0	
6	0	0	0	0	505	509	0	0	
7	0	0	0	0	508	512	0	0	
8	0	0	0	0	505	509	0	0	
9	0	0	0	0	503	511	0	0	
10	0	0	0	0	507	510	0	0	
11	0	0	0	0	509	510	0	0	
12	0	0	0	0	513	511	0	0	
13	0	0	0	0	512	510	0	0	
14	0	0	0	0	514	510	0	0	
15	0	0	0	0	513	513	0	0	
0	0	0	0	0	510	512	0	0	
1	0	0	0	0	513	510	0	0	
2	0	0	0	0	515	510	0	0	
3	0	0	0	0	508	511	0	0	
4	0	0	0	0	510	512	0	0	
5	0	0	0	0	509	512	0	0	
6	0	0	0	0	508	511	3	0	
7	0	0	0	0	508	511	5	0	
8	0	0	0	0	505	508	6	0	
9	0	0	0	0	503	509	6	0	
10	0	0	0	0	504	511	6	0	
11	0	0	0	0	508	512	7	0	
12	0	0	0	0	513	511	7	0	
13	0	0	0	0	510	510	7	0	
14	0	0	0	0	504	511	7	0	
15	0	0	0	0	507	510	6	0	
0	0	0	0	0	507	509	8	0	
1	0	0	0	0	505	508	8	0	
2	0	0	0	0	508	509	9	0	
3	0	0	0	0	514	513	10	0	
4	0	0	0	0	506	511	12	0	
5	0	0	0	0	507	512	12	0	
6	0	0	0	0	517	512	12	0	
7	0	0	0	0	520	514	14	0	
8	0	0	0	0	515	511	17	0	
9	0	0	0	0	511	509	20	0	
10	0	0	0	0	505	510	22	0	
11	0	0	0	0	498	511	23	0	
12	0	0	0	0	498	511	23	0	
13	0	0	0	0	505	511	22	0	
14	0	0	0	0	511	510	24	0	
15	0	0	0	0	511	510	24	0	
0	0	0	0	0	508	511	24	0	
1	0	0	0	0	500	512	25	0	
2	0	0	0	0	505	511	25	0	
3	0	0	0	0	505	511	25	0	
4	0	0	0	0	516	509	25	0	
5	0	0	0	0	522	510	26	0	
6	0	0	0	0	511	509	25	0	
7	0	0	0	0	500	507	26	0	
8	0	0	0	0	509	507	21	0	
9	0	0	0	0	513	511	22	0	
10	0	0	0	0	515	512	23	0	
11	0	0	0	0	503	508	25	0	
12	0	0	0	0	492	508	27	0	
13	0	0	0	0	500	510	24	0	
14	0	0	0	0	508	512	25	0	
15	0	0	0	0	513	512	27	0	
0	0	0	0	0	524	512	28	0	
1	0	0	0	0	532	508	29	0	
2	0	0	0	0	526	511	29	0	
3	0	0	0	0	522	515	30	0	
4	0	0	0	0	516	514	28	0	
5	0	0	0	0	504	512	30	0	
6	0	0	0	0	505	515	31	0	
7	0	0	0	0	497	514	32	0	
8	0	0	0	0	483	509	32	0	
9	0	0	0	0	471	506	32	0	
10	0	0	0	0	474	507	34	0	
11	0	0	0	0	504	510	33	0	
12	0	0	0	0	512	508	32	0	
13	0	0	0	0	511	508	31	0	
14	0	0	0	0	524	511	32	0	
15	0	0	0	0	528	512	33	0	
0	0	0	0	0	511	508	33	0	
1	0	0	0	0	503	505	37	0	
2	0	0	0	0	499	503	38	0	
3	0	0	0	0	502	502	40	0	
4	0	0	0	0	524	510	40	0	
5	0	0	0	0	527	512	40	0	
6	0	0	0	0	519	514	37	0	
7	0	0	0	0	508	512	39	0	
8	0	0	0	0	505	511	40	0	
9	0	0	0	0	508	512	41	0	
10	0	0	0	0	510	508	44	0	
11	0	0	0	0	511	506	44	0	
12	0	0	0	0	513	508	42	0	
13	0	0	0	0	514	511	45	0	
14	0	0	0	0	515	514	47	0	
15	0	0	0	0	514	516	47	0	
0	0	0	0	0	515	513	48	0	
1	0	0	0	0	505	512	46	0	
2	0	0	0	0	495	513	46	0	
3	0	0	0	0	498	511	44	0	
4	0	0	0	0	497	513	48	0	
5	0	0	0	0	500	514	48	0	
6	0	0	0	0	514	514	46	0	
7	0	0	0	0	518	518	48	0	
8	0	0	0	0	518	518	47	0	
9	0	0	0	0	504	511	47	0	
10	0	0	0	0	496	500	47	0	
11	0	0	0	0	505	503	47	0	
12	0	0	0	0	513	504	48	0	
13	0	0	0	0	515	513	48	0	
14	0	0	0	0	496	510	48	0	
15	0	0	0	0	513	512	50	0	
0	0	0	0	0	530	513	52	0	
1	0	0	0	0	524	511	53	0	
2	0	0	0	0	517	508	56	0	
3	0	0	0	0	507	505	55	0	
4	0	0	0	0	502	513	55	0	
5	0	0	0	0	510	515	57	0	
6	0	0	0	0	495	508	58	0	
7	0	0	0	0	478	505	59	0	
8	0	0	0	0	499	515	60	0	
9	0	0	0	0	508	515	59	0	
10	0	0	0	0	507	508	63	0	
11	0	0	0	0	524	503	64	0	
12	0	0	0	0	519	507	69	0	
13	0	0	0	0	511	514	70	0	
14	0	0	0	0	520	514	70	0	
15	0	0	0	0	523	514	71	0	
0	0	0	0	0	517	509	69	0	
1	0	0	0	0	505	509	68	0	
2	0	0	0	0	504	511	68	0	
3	0	0	0	0	489	506	66	0	
4	0	0	0	0	477	503	72	0	
5	0	0	0	0	484	507	68	0	
6	0	0	0	0	501	506	70	0	
7	0	0	0	0	504	504	72	0	
8	0	0	0	0	511	510	69	0	
9	0	0	0	0	525	517	68	0	
10	0	0	0	0	536	519	66	0	
11	0	0	0	0	525	511	68	0	
12	0	0	0	0	519	512	68	0	
13	0	0	0	0	528	518	67	0	
14	0	0	0	0	520	526	67	0	
15	0	0	0	0	516	519	67	0	
0	0	0	0	0	511	502	69	0	
1	0	0	0	0	505	497	72	0	
2	0	0	0	0	489	511	76	0	
3	0	0	0	0	499	509	78	0	
4	0	0	0	0	508	512	81	0	
5	0	0	0	0	509	513	87	0	
6	0	0	0	0	514	512	90	0	
7	0	0	0	0	501	508	92	0	
8	0	0	0	0	487	493	95	0	
9	0	0	0	0	491	495	95	0	
10	0	0	0	0	497	504	95	0	
11	0	0	0	0	511	509	98	0	
12	0	0	0	0	508	512	101	0	
13	0	0	0	0	511	515	103	0	
14	0	0	0	0	515	529	103	0	
15	0	0	0	0	519	533	104	0	
0	0	0	0	0	526	517	108	0	
1	0	0	0	0	515	500	112	0	
2	0	0	0	0	501	508	117	0	
3	0	0	0	0	491	519	121	0	
4	0	0	0	0	499	519	125	0	
5	0	0	0	0	526	514	128	0	
6	0	0	0	0	533	495	131	0	
7	0	0	0	0	505	487	133	0	
8	0	0	0	0	495	495	135	0	
9	0	0	0	0	511	518	137	0	
10	0	0	0	0	526	527	140	0	
11	0	0	0	0	503	507	142	0	
12	0	0	0	0	503	493	143	0	
13	0	0	0	0	499	507	144	0	
14	0	0	0	0	509	513	141	0	
15	0	0	0	0	527	528	145	0	
0	0	0	0	0	516	513	146	0	
1	0	0	0	0	502	529	150	0	
2	0	0	0	0	486	519	151	0	
3	0	0	0	0	506	517	150	0	
4	0	0	0	0	543	526	151	0	
5	0	0	0	0	526	530	152	0	
6	0	0	0	0	526	513	155	0	
7	0	0	0	0	517	516	158	0	
8	0	0	0	0	497	502	159	0	
9	0	0	0	0	489	508	159	0	
10	0	0	0	0	484	510	161	0	
11	0	0	0	0	463	482	162	0	
12	0	0	0	0	482	402	165	0	
13	0	0	0	0	519	408	169	0	
14	0	0	0	0	536	451	167	0	
15	0	0	0	0	539	509	172	0	
0	0	0	0	0	512	534	171	0	
1	0	0	0	0	507	585	175	0	
2	0	0	0	0	524	615	176	0	
3	0	0	0	0	497	596	176	0	
4	0	0	0	0	483	608	187	0	
5	0	0	0	0	491	607	182	0	
6	0	0	0	0	494	543	186	0	
7	0	0	0	0	508	503	188	0	
8	0	0	0	0	538	511	189	0	
9	0	0	0	0	551	478	195	0	
10	0	0	0	0	522	445	196	0	
11	0	0	0	0	495	448	204	0	
12	0	0	0	0	480	466	211	0	
13	0	0	0	0	476	419	213	0	
14	0	0	0	0	478	426	217	0	
15	0	0	0	0	502	480	220	0	
0	0	0	0	0	513	481	224	0	
1	0	0	0	0	528	472	228	0	
2	0	0	0	0	521	486	231	0	
3	0	0	0	0	484	516	231	0	
4	0	0	0	0	509	556	233	0	
5	0	0	0	0	478	563	235	0	
6	0	0	0	0	491	543	240	0	
7	0	0	0	0	528	531	242	0	
8	0	0	0	0	547	531	246	0	
9	0	0	0	0	543	511	250	0	
10	0	0	0	0	517	534	255	0	
11	0	0	0	0	533	532	253	0	
12	0	0	0	0	540	500	258	0	
13	0	0	0	0	536	507	264	0	
14	0	0	0	0	528	532	266	0	
15	0	0	0	0	498	519	270	0	
0	0	0	0	0	482	530	273	0	
1	0	0	0	0	472	540	279	0	
2	0	0	0	0	490	512	280	0	
3	0	0	0	0	504	495	279	0	
4	0	0	0	0	505	513	278	0	
5	0	0	0	0	527	552	275	0	
6	0	0	0	0	515	527	277	0	
7	0	0	0	0	504	523	277	0	
8	0	0	0	0	487	526	276	0	
9	0	0	0	0	499	488	273	0	
10	0	0	0	0	537	502	274	0	
11	0	0	0	0	533	505	273	0	
12	0	0	0	0	556	494	272	0	
13	0	0	0	0	524	512	271	0	
14	0	0	0	0	496	505	275	0	
15	0	0	0	0	495	491	279	0	
0	0	0	0	0	497	464	277	0	
1	0	0	0	0	518	442	281	0	
2	0	0	0	0	477	433	281	0	
3	0	0	0	0	439	525	278	0	
4	0	0	0	0	468	571	281	0	
5	0	0	0	0	460	541	309	0	
6	0	0	0	0	492	554	313	0	
7	0	0	0	0	539	529	316	0	
8	0	0	0	0	541	536	319	0	
9	0	0	0	0	524	497	320	0	
10	0	0	0	0	556	483	320	0	
11	0	0	0	0	524	456	324	0	
12	0	0	0	0	542	486	322	0	
13	0	0	0	0	520	549	323	0	
14	0	0	0	0	478	539	324	0	
15	0	0	0	0	403	521	323	0	
0	0	0	0	0	438	503	323	0	
1	0	0	0	0	518	515	321	0	
2	0	0	0	0	542	524	319	0	
3	0	0	0	0	540	487	322	0	
4	0	0	0	0	534	518	322	0	
5	0	0	0	0	532	547	322	0	
6	0	0	0	0	547	572	321	0	
7	0	0	0	0	542	560	322	0	
8	0	0	0	0	507	520	321	0	
9	0	0	0	0	528	507	321	0	
10	0	0	0	0	519	495	323	0	
11	0	0	0	0	521	486	323	0	
12	0	0	0	0	507	497	321	0	
13	0	0	0	0	518	463	324	0	
14	0	0	0	0	525	495	324	0	
15	0	0	0	0	496	492	328	0	
0	0	0	0	0	460	492	327	0	
1	0	0	0	0	485	495	328	0	
2	0	0	0	0	546	494	330	0	
3	0	0	0	0	537	492	332	0	
4	0	0	0	0	455	511	331	0	
5	0	0	0	0	455	492	333	0	
6	0	0	0	0	496	474	332	0	
7	0	0	0	0	483	468	332	0	
8	0	0	0	0	482	513	334	0	
9	0	0	0	0	484	546	329	0	
10	0	0	0	0	537	560	328	1	
11	0	0	0	0	566	561	329	5	
12	0	0	0	0	574	556	329	36	
13	0	0	0	0	534	512	330	49	
14	0	0	0	0	465	501	329	51	
15	0	0	0	0	463	535	331	54	
0	0	0	0	0	446	531	332	57	
1	0	0	0	0	499	511	330	63	
2	0	0	0	0	535	511	331	69	
3	0	0	0	0	492	457	325	76	
4	0	0	0	0	484	476	304	77	
5	0	0	0	0	531	506	304	81	
6	0	0	0	0	578	558	306	84	
7	0	0	0	0	573	561	307	83	
8	0	0	0	0	515	490	308	87	
9	0	0	0	0	482	505	307	91	
10	0	0	0	0	475	464	305	99	
11	0	0	0	0	483	434	306	93	
12	0	0	0	0	484	448	307	96	
13	0	0	0	0	527	531	306	103	
14	0	0	0	0	526	545	304	105	
15	0	0	0	0	504	552	305	111	
0	0	0	0	0	521	556	304	113	
1	0	0	0	0	531	499	302	136	
2	0	0	0	0	511	517	301	140	
3	0	0	0	0	512	548	298	138	
4	0	0	0	0	515	538	299	141	
5	0	0	0	0	497	481	300	143	
6	0	0	0	0	453	516	299	142	
7	0	0	0	0	472	495	298	143	
8	0	0	0	0	536	515	297	143	
9	0	0	0	0	539	550	298	147	
10	0	0	0	0	548	516	301	150	
11	0	0	0	0	524	481	301	155	
12	0	0	0	0	476	448	298	157	
13	0	0	0	0	486	474	299	158	
14	0	0	0	0	507	503	300	161	
15	0	0	0	0	526	488	301	165	
0	0	0	0	0	544	498	300	172	
1	0	0	0	0	532	518	301	175	
2	0	0	0	0	509	536	304	177	
3	0	0	0	0	478	542	304	185	
4	0	0	0	0	480	526	305	182	
5	0	0	0	0	494	514	305	184	
6	0	0	0	0	452	512	306	185	
7	0	0	0	0	471	506	307	186	
8	0	0	0	0	510	543	306	192	
9	0	0	0	0	551	554	307	193	
10	0	0	0	0	555	515	305	193	
11	0	0	0	0	544	483	307	193	
12	0	0	0	0	541	489	308	191	
13	0	0	0	0	530	512	308	196	
14	0	0	0	0	525	515	309	203	
15	0	0	0	0	502	507	309	210	
0	0	0	0	0	500	510	308	211	
1	0	0	0	0	491	510	308	211	
2	0	0	0	0	458	508	309	210	
3	0	0	0	0	456	495	310	209	
4	0	0	0	0	482	492	311	209	
5	0	0	0	0	507	527	311	208	
6	0	0	0	0	540	563	312	209	
7	0	0	0	0	556	559	313	215	
8	0	0	0	0	542	530	316	217	
9	0	0	0	0	511	410	316	218	
10	0	0	0	0	510	443	318	221	
11	0	0	0	0	516	535	317	221	
12	0	0	0	0	524	534	317	221	
13	0	0	0	0	505	527	318	227	
14	0	0	0	0	519	497	319	226	
15	0	0	0	0	470	528	319	226	
0	0	0	0	0	486	542	320	227	
1	0	0	0	0	462	513	320	228	
2	0	0	0	0	462	475	319	234	
3	0	0	0	0	473	408	320	235	
4	0	0	0	0	516	450	319	241	
5	0	0	0	0	530	557	321	247	
6	0	0	0	0	546	577	319	245	
7	0	0	0	0	566	574	318	251	
8	0	0	0	0	573	510	316	250	
9	0	0	0	0	591	472	317	248	
10	0	0	0	0	537	481	318	252	
11	0	0	0	0	478	476	319	249	
12	0	0	0	0	483	519	319	253	
13	0	0	0	0	511	537	319	254	
14	0	0	0	0	446	553	319	261	
15	0	0	0	0	403	494	320	258	
0	0	0	0	0	433	486	321	258	
1	0	0	0	0	447	516	321	258	
2	0	0	0	0	500	523	320	257	
3	0	0	0	0	553	522	319	261	
4	0	0	0	0	561	511	319	267	
5	0	0	0	0	556	515	319	271	
6	0	0	0	0	546	513	320	271	
7	0	0	0	0	533	538	320	265	
8	0	0	0	0	476	511	319	264	
9	0	0	0	0	502	487	319	272	
10	0	0	0	0	514	486	319	272	
11	0	0	0	0	500	512	318	272	
12	0	0	0	0	521	526	318	276	
13	0	0	0	0	513	528	318	271	
14	0	0	0	0	504	552	317	274	
15	0	0	0	0	510	528	318	274	
0	0	0	0	0	537	529	317	276	
1	0	0	0	0	532	500	319	275	
2	0	0	0	0	525	505	317	277	
3	0	0	0	0	514	514	315	280	
4	0	0	0	0	499	502	315	282	
5	0	0	0	0	486	460	314	280	
6	0	0	0	0	499	446	313	280	
7	0	0	0	0	528	494	313	284	
8	0	0	0	0	525	491	312	284	
9	0	0	0	0	515	530	312	288	
10	0	0	0	0	458	565	312	291	
11	0	0	0	0	440	542	312	292	
12	0	0	0	0	457	467	315	291	
13	0	0	0	0	513	492	315	292	
14	0	0	0	0	533	506	313	292	
15	0	0	0	0	543	513	313	295	
0	0	0	0	0	518	544	313	298	
1	0	0	0	0	515	515	312	298	
2	0	0	0	0	529	506	310	299	
3	0	0	0	0	524	508	311	303	
4	0	0	0	0	518	501	310	306	
5	0	0	0	0	512	527	310	303	
6	0	0	0	0	510	525	310	306	
7	0	0	0	0	508	519	311	302	
8	0	0	0	0	499	503	310	303	
9	0	0	0	0	518	513	312	303	
10	0	0	0	0	526	487	311	305	
11	0	0	0	0	505	463	311	305	
12	0	0	0	0	494	495	312	309	
13	0	0	0	0	470	528	312	308	
14	0	0	0	0	481	533	314	312	
15	0	0	0	0	526	550	314	313	
0	0	0	0	0	513	523	313	313	
1	0	0	0	0	507	512	315	312	
2	0	0	0	0	509	507	316	311	
3	0	0	0	0	514	516	316	306	
4	0	0	0	0	531	529	316	307	
5	0	0	0	0	544	529	318	309	
6	0	0	0	0	564	534	318	309	
7	0	0	0	0	531	500	318	308	
8	0	0	0	0	497	527	319	308	
9	0	0	0	0	492	536	319	311	
10	0	0	0	0	487	518	320	315	
11	0	0	0	0	486	476	321	312	
12	0	0	0	0	415	448	321	311	
13	0	0	0	0	454	450	323	309	
14	0	0	0	0	511	490	323	310	
15	0	0	0	0	526	487	322	311	
0	0	0	0	0	534	513	323	311	
1	0	0	0	0	529	548	323	314	
2	0	0	0	0	508	530	324	318	
3	0	0	0	0	488	524	323	324	
4	0	0	0	0	509	540	324	326	
5	0	0	0	0	547	471	325	327	
6	0	0	0	0	535	482	325	331	
7	0	0	0	0	496	526	323	330	
8	0	0	0	0	471	501	324	330	
9	0	0	0	0	526	472	324	330	
10	0	0	0	0	530	480	324	324	
11	0	0	0	0	547	515	323	323	
12	0	0	0	0	536	544	321	319	
13	0	0	0	0	501	554	319	317	
14	0	0	0	0	481	575	319	320	
15	0	0	0	0	488	518	317	324	
0	0	0	0	0	488	486	316	323	
1	0	0	0	0	472	471	315	323	
2	0	0	0	0	475	455	313	322	
3	0	0	0	0	508	515	313	323	
4	0	0	0	0	526	608	311	320	
5	0	0	0	0	531	587	309	319	
6	0	0	0	0	534	533	307	322	
7	0	0	0	0	523	469	305	327	
8	0	0	0	0	508	460	304	331	
9	0	0	0	0	534	504	303	329	
10	0	0	0	0	538	532	302	331	
11	0	0	0	0	527	471	302	331	
12	0	0	0	0	515	477	301	332	
13	0	0	0	0	526	471	301	334	
14	0	0	0	0	475	493	300	336	
15	0	0	0	0	451	519	300	336	
0	0	0	0	0	498	536	301	333	
1	0	0	0	0	484	501	300	333	
2	0	0	0	0	492	507	300	335	
3	0	0	0	0	494	519	300	335	
4	0	0	0	0	511	530	300	335	
5	0	0	0	0	537	539	298	336	
6	0	0	0	0	541	524	297	337	
7	0	0	0	0	559	524	295	337	
8	0	0	0	0	534	544	295	339	
9	0	0	0	0	477	554	294	342	
10	0	0	0	0	496	565	291	339	
11	0	0	0	0	512	535	289	339	
12	0	0	0	0	483	464	289	340	
13	0	0	0	0	454	465	289	343	
14	0	0	0	0	467	455	287	337	
15	0	0	0	0	517	434	287	336	
0	0	0	0	0	550	469	287	335	
1	0	0	0	0	570	518	285	339	
2	0	0	0	0	543	520	284	339	
3	0	0	0	0	528	520	281	342	
4	0	0	0	0	522	526	280	342	
5	0	0	0	0	470	512	279	338	
6	0	0	0	0	446	510	278	338	
7	0	0	0	0	474	519	278	335	
8	0	0	0	0	499	538	278	334	
9	0	0	0	0	520	537	277	335	
10	0	0	0	0	541	534	276	335	
11	0	0	0	0	559	531	275	336	
12	0	0	0	0	533	510	275	340	
13	0	0	0	0	497	529	275	336	
14	0	0	0	0	496	484	275	333	
15	0	0	0	0	515	453	274	331	
0	0	0	0	0	526	496	272	336	
1	0	0	0	0	440	466	272	336	
2	0	0	0	0	401	443	271	336	
3	0	0	0	0	495	591	271	336	
4	0	0	0	0	527	566	270	333	
5	0	0	0	0	560	518	270	337	
6	0	0	0	0	546	542	270	336	
7	0	0	0	0	539	560	269	334	
8	0	0	0	0	547	542	269	334	
9	0	0	0	0	520	542	271	336	
10	0	0	0	0	505	492	270	332	
11	0	0	0	0	519	480	271	332	
12	0	0	0	0	414	470	271	331	
13	0	0	0	0	420	452	272	333	
14	0	0	0	0	484	502	271	333	
15	0	0	0	0	508	494	271	336	
0	0	0	0	0	546	486	271	333	
1	0	0	0	0	558	519	271	331	
2	0	0	0	0	526	517	270	333	
3	0	0	0	0	492	522	270	330	
4	0	0	0	0	486	520	272	329	
5	0	0	0	0	524	535	271	330	
6	0	0	0	0	529	530	272	330	
7	0	0	0	0	531	530	271	331	
8	0	0	0	0	535	515	271	331	
9	0	0	0	0	529	466	270	334	
10	0	0	0	0	524	436	271	333	
11	0	0	0	0	520	495	271	332	
12	0	0	0	0	514	541	271	335	
13	0	0	0	0	512	507	272	334	
14	0	0	0	0	512	513	272	338	
15	0	0	0	0	492	525	273	337	
0	0	0	0	0	494	546	274	339	
1	0	0	0	0	502	532	274	337	
2	0	0	0	0	492	506	274	337	
3	0	0	0	0	507	475	275	336	
4	0	0	0	0	510	504	275	335	
5	0	0	0	0	525	528	275	334	
6	0	0	0	0	492	513	276	335	
7	0	0	0	0	480	504	276	336	
8	0	0	0	0	502	506	276	337	
9	0	0	0	0	524	524	275	335	
10	0	0	0	0	539	508	276	335	
11	0	0	0	0	520	472	276	335	
12	0	0	0	0	518	483	276	333	
13	0	0	0	0	507	540	277	334	
14	0	0	0	0	522	554	278	335	
15	0	0	0	0	495	549	278	335	
0	0	0	0	0	497	501	279	333	
1	0	0	0	0	476	480	279	333	
2	0	0	0	0	482	495	279	330	
3	0	0	0	0	450	477	280	331	
4	0	0	0	0	463	556	281	331	
5	0	0	0	0	494	538	281	335	
6	0	0	0	0	508	513	281	339	
7	0	0	0	0	539	511	281	339	
8	0	0	0	0	542	518	281	335	
9	0	0	0	0	539	512	282	338	
10	0	0	0	0	520	537	283	337	
11	0	0	0	0	535	555	283	337	
12	0	0	0	0	549	541	284	334	
13	0	0	0	0	547	465	284	335	
14	0	0	0	0	511	456	284	334	
15	0	0	0	0	480	465	284	334	
0	0	0	0	0	519	491	284	335	
1	0	0	0	0	522	494	284	336	
2	0	0	0	0	498	508	284	334	
3	0	0	0	0	455	526	286	336	
4	0	0	0	0	439	535	285	339	
5	0	0	0	0	497	514	286	340	
6	0	0	0	0	522	524	286	339	
7	0	0	0	0	517	495	286	341	
8	0	0	0	0	514	479	286	341	
9	0	0	0	0	536	507	286	341	
10	0	0	0	0	511	529	286	341	
11	0	0	0	0	487	518	286	339	
12	0	0	0	0	508	508	285	341	
13	0	0	0	0	527	513	285	342	
14	0	0	0	0	524	504	285	341	
15	0	0	0	0	523	513	285	341	
0	0	0	0	0	536	529	284	342	
1	0	0	0	0	559	516	284	342	
2	0	0	0	0	532	518	283	342	
3	0	0	0	0	499	527	281	343	
4	0	0	0	0	475	525	281	345	
5	0	0	0	0	482	513	280	343	
6	0	0	0	0	441	504	279	343	
7	0	0	0	0	476	494	278	344	
8	0	0	0	0	521	516	278	344	
9	0	0	0	0	552	522	278	344	
10	0	0	0	0	532	478	277	343	
11	0	0	0	0	525	472	276	343	
12	0	0	0	0	500	504	275	343	
13	0	0	0	0	472	488	276	340	
14	0	0	0	0	458	539	276	339	
15	0	0	0	0	497	530	276	337	
0	0	0	0	0	497	523	276	340	
1	0	0	0	0	529	543	276	338	
2	0	0	0	0	527	511	275	337	
3	0	0	0	0	532	492	275	337	
4	0	0	0	0	531	501	274	335	
5	0	0	0	0	562	510	275	336	
6	0	0	0	0	552	503	275	337	
7	0	0	0	0	487	547	276	337	
8	0	0	0	0	438	543	276	335	
9	0	0	0	0	428	483	275	335	
10	0	0	0	0	479	466	275	332	
11	0	0	0	0	528	510	275	335	
12	0	0	0	0	532	537	275	336	
13	0	0	0	0	518	540	277	334	
14	0	0	0	0	512	517	277	334	
15	0	0	0	0	533	466	278	337	
0	0	0	0	0	525	490	277	335	
1	0	0	0	0	519	516	277	334	
2	0	0	0	0	519	478	278	336	
3	0	0	0	0	527	472	278	335	
4	0	0	0	0	527	502	278	335	
5	0	0	0	0	514	544	277	334	
6	0	0	0	0	513	610	278	335	
7	0	0	0	0	496	608	279	336	
8	0	0	0	0	478	558	280	336	
9	0	0	0	0	508	485	279	338	
10	0	0	0	0	493	402	280	332	
11	0	0	0	0	505	424	279	334	
12	0	0	0	0	523	429	278	333	
13	0	0	0	0	519	480	278	335	
14	0	0	0	0	495	537	278	334	
15	0	0	0	0	478	541	278	337	
0	0	0	0	0	480	523	278	336	
1	0	0	0	0	508	505	278	335	
2	0	0	0	0	536	519	278	335	
3	0	0	0	0	525	508	278	334	
4	0	0	0	0	524	521	278	332	
5	0	0	0	0	526	513	277	332	
6	0	0	0	0	491	482	278	335	
7	0	0	0	0	478	513	277	334	
8	0	0	0	0	499	547	279	335	
9	0	0	0	0	549	526	278	333	
10	0	0	0	0	566	550	279	332	
11	0	0	0	0	553	562	277	332	
12	0	0	0	0	566	570	277	331	
13	0	0	0	0	496	491	277	329	
14	0	0	0	0	440	463	276	330	
15	0	0	0	0	409	406	277	329	
0	0	0	0	0	426	428	275	327	
1	0	0	0	0	462	516	277	330	
2	0	0	0	0	501	551	277	331	
3	0	0	0	0	536	545	276	329	
4	0	0	0	0	559	550	277	330	
5	0	0	0	0	541	525	278	329	
6	0	0	0	0	500	515	278	328	
7	0	0	0	0	499	508	278	327	
8	0	0	0	0	513	513	277	328	
9	0	0	0	0	520	511	278	327	
10	0	0	0	0	499	504	278	329	
11	0	0	0	0	527	505	278	326	
12	0	0	0	0	560	516	277	327	
13	0	0	0	0	579	552	276	327	
14	0	0	0	0	573	515	275	327	
15	0	0	0	0	534	501	275	329	
0	0	0	0	0	510	529	273	327	
1	0	0	0	0	421	532	274	327	
2	0	0	0	0	368	548	272	327	
3	0	0	0	0	455	529	270	328	
4	0	0	0	0	549	515	270	328	
5	0	0	0	0	483	404	269	328	
6	0	0	0	0	466	417	267	328	
7	0	0	0	0	526	468	266	328	
8	0	0	0	0	536	539	264	330	
9	0	0	0	0	544	533	263	331	
10	0	0	0	0	536	496	263	332	
11	0	0	0	0	526	514	263	331	
12	0	0	0	0	532	522	263	331	
13	0	0	0	0	522	516	262	331	
14	0	0	0	0	463	498	263	331	
15	0	0	0	0	470	505	262	328	
0	0	0	0	0	511	521	263	328	
1	0	0	0	0	521	540	263	338	
2	0	0	0	0	516	532	262	337	
3	0	0	0	0	526	502	262	338	
4	0	0	0	0	518	504	262	339	
5	0	0	0	0	512	512	262	339	
6	0	0	0	0	524	515	262	339	
7	0	0	0	0	512	526	263	339	
8	0	0	0	0	512	534	262	339	
9	0	0	0	0	547	519	262	342	
10	0	0	0	0	557	509	263	341	
11	0	0	0	0	542	508	263	342	
12	0	0	0	0	512	486	263	342	
13	0	0	0	0	481	530	262	342	
14	0	0	0	0	451	519	263	342	
15	0	0	0	0	497	505	263	340	
0	0	0	0	0	521	491	263	339	
1	0	0	0	0	534	526	263	337	
2	0	0	0	0	536	528	263	338	
3	0	0	0	0	458	514	264	338	
4	0	0	0	0	334	498	264	338	
5	0	0	0	0	398	464	264	337	
6	0	0	0	0	471	470	264	338	
7	0	0	0	0	551	504	263	337	
8	0	0	0	0	557	530	263	339	
9	0	0	0	0	561	531	264	338	
10	0	0	0	0	558	525	264	340	
