# OpenSignals Text File Format. Version 1
# {"20:18:06:13:21:78": {"position": 0, "device": "bitalino_rev", "device name": "20:18:06:13:21:78", "device connection": "BTH20:18:06:13:21:78", "sampling rate": 1000, "resolution": [4, 1, 1, 1, 1, 10, 10, 10, 10], "firmware version": 1281, "comments": "", "keywords": "", "mode": 0, "sync interval": 2, "date": "2023-6-6", "time": "0:0:45.482", "channels": [1, 2, 3, 4], "sensor": ["EMGBITREV", "EMGBITREV", "RAW", "RAW"], "label": ["A1", "A2", "A3", "A4"], "column": ["nSeq", "I1", "I2", "O1", "O2", "A1", "A2", "A3", "A4"], "special": [{}, {}, {}, {}], "digital IO": [0, 0, 1, 1]}}
# EndOfHeader
0	0	0	0	0	514	510	0	0	
1	0	0	0	0	512	510	0	0	
2	0	0	0	0	510	512	0	0	
3	0	0	0	0	509	511	0	0	
4	0	0	0	0	508	510	0	0	
5	0	0	0	0	506	508	0	0	
6	0	0	0	0	504	512	0	0	
7	0	0	0	0	504	512	0	0	
8	0	0	0	0	504	512	0	0	
9	0	0	0	0	505	510	0	0	
10	0	0	0	0	504	513	0	0	
11	0	0	0	0	506	510	0	0	
12	0	0	0	0	506	510	0	0	
13	0	0	0	0	506	510	0	0	
14	0	0	0	0	508	512	0	0	
15	0	0	0	0	511	511	0	0	
0	0	0	0	0	510	511	0	0	
1	0	0	0	0	513	509	0	0	
2	0	0	0	0	514	511	0	0	
3	0	0	0	0	512	511	0	0	
4	0	0	0	0	513	509	0	0	
5	0	0	0	0	509	510	0	0	
6	0	0	0	0	511	512	0	0	
7	0	0	0	0	510	511	0	0	
8	0	0	0	0	506	511	0	0	
9	0	0	0	0	506	510	0	0	
10	0	0	0	0	505	512	0	0	
11	0	0	0	0	506	509	0	0	
12	0	0	0	0	504	511	0	0	
13	0	0	0	0	503	512	0	0	
14	0	0	0	0	504	509	0	0	
15	0	0	0	0	507	508	0	0	
0	0	0	0	0	506	510	0	0	
1	0	0	0	0	507	510	0	0	
2	0	0	0	0	507	510	0	0	
3	0	0	0	0	511	510	0	0	
4	0	0	0	0	512	511	0	0	
5	0	0	0	0	513	510	0	0	
6	0	0	0	0	515	509	0	0	
7	0	0	0	0	512	510	0	0	
8	0	0	0	0	513	512	0	0	
9	0	0	0	0	514	511	0	0	
10	0	0	0	0	511	511	0	0	
11	0	0	0	0	510	512	0	0	
12	0	0	0	0	507	512	0	0	
13	0	0	0	0	507	510	0	0	
14	0	0	0	0	504	510	0	0	
15	0	0	0	0	504	511	0	0	
0	0	0	0	0	504	510	0	0	
1	0	0	0	0	502	511	0	0	
2	0	0	0	0	502	511	0	0	
3	0	0	0	0	505	512	0	0	
4	0	0	0	0	505	508	0	0	
5	0	0	0	0	506	506	0	0	
6	0	0	0	0	508	512	0	0	
7	0	0	0	0	512	510	0	0	
8	0	0	0	0	513	511	0	0	
9	0	0	0	0	513	511	0	0	
10	0	0	0	0	514	511	0	0	
11	0	0	0	0	514	510	0	0	
12	0	0	0	0	514	510	0	0	
13	0	0	0	0	514	510	0	0	
14	0	0	0	0	510	511	0	0	
15	0	0	0	0	508	513	0	0	
0	0	0	0	0	509	512	0	0	
1	0	0	0	0	506	511	0	0	
2	0	0	0	0	505	512	0	0	
3	0	0	0	0	504	509	0	0	
4	0	0	0	0	504	508	0	0	
5	0	0	0	0	503	510	0	0	
6	0	0	0	0	503	511	0	0	
7	0	0	0	0	504	512	0	0	
8	0	0	0	0	507	512	0	0	
9	0	0	0	0	508	510	0	0	
10	0	0	0	0	510	510	0	0	
11	0	0	0	0	511	512	0	0	
12	0	0	0	0	512	510	0	0	
13	0	0	0	0	513	509	0	0	
14	0	0	0	0	515	508	0	0	
15	0	0	0	0	512	510	0	0	
0	0	0	0	0	514	511	0	0	
1	0	0	0	0	513	511	0	0	
2	0	0	0	0	511	512	0	0	
3	0	0	0	0	508	510	0	0	
4	0	0	0	0	509	513	0	0	
5	0	0	0	0	504	510	0	0	
6	0	0	0	0	504	510	0	0	
7	0	0	0	0	503	511	0	0	
8	0	0	0	0	504	513	0	0	
9	0	0	0	0	503	512	0	0	
10	0	0	0	0	504	510	0	0	
11	0	0	0	0	505	512	0	0	
12	0	0	0	0	506	510	0	0	
13	0	0	0	0	508	511	0	0	
14	0	0	0	0	511	509	0	0	
15	0	0	0	0	510	510	0	0	
0	0	0	0	0	512	511	0	0	
1	0	0	0	0	513	510	0	0	
2	0	0	0	0	514	509	0	0	
3	0	0	0	0	513	512	0	0	
4	0	0	0	0	513	511	0	0	
5	0	0	0	0	512	510	0	0	
6	0	0	0	0	511	511	0	0	
7	0	0	0	0	510	510	0	0	
8	0	0	0	0	509	510	0	0	
9	0	0	0	0	508	513	0	0	
10	0	0	0	0	505	510	0	0	
11	0	0	0	0	503	511	0	0	
12	0	0	0	0	504	510	0	0	
13	0	0	0	0	503	510	0	0	
14	0	0	0	0	504	510	0	0	
15	0	0	0	0	505	508	0	0	
0	0	0	0	0	507	510	0	0	
1	0	0	0	0	508	509	0	0	
2	0	0	0	0	507	510	0	0	
3	0	0	0	0	510	509	0	0	
4	0	0	0	0	513	511	0	0	
5	0	0	0	0	515	511	0	0	
6	0	0	0	0	513	511	0	0	
7	0	0	0	0	512	512	0	0	
8	0	0	0	0	515	512	0	0	
9	0	0	0	0	512	511	0	0	
10	0	0	0	0	511	512	0	0	
11	0	0	0	0	508	511	0	0	
12	0	0	0	0	507	509	0	0	
13	0	0	0	0	506	509	0	0	
14	0	0	0	0	505	510	0	0	
15	0	0	0	0	504	509	0	0	
0	0	0	0	0	503	510	0	0	
1	0	0	0	0	505	509	0	0	
2	0	0	0	0	503	510	0	0	
3	0	0	0	0	505	512	0	0	
4	0	0	0	0	505	509	0	0	
5	0	0	0	0	508	511	0	0	
6	0	0	0	0	510	511	0	0	
7	0	0	0	0	511	509	0	0	
8	0	0	0	0	513	509	0	0	
9	0	0	0	0	512	510	0	0	
10	0	0	0	0	513	509	0	0	
11	0	0	0	0	514	511	0	0	
12	0	0	0	0	516	512	0	0	
13	0	0	0	0	512	511	0	0	
14	0	0	0	0	510	512	0	0	
15	0	0	0	0	510	510	0	0	
0	0	0	0	0	507	512	0	0	
1	0	0	0	0	506	511	0	0	
2	0	0	0	0	504	511	0	0	
3	0	0	0	0	506	510	0	0	
4	0	0	0	0	504	510	0	0	
5	0	0	0	0	502	511	0	0	
6	0	0	0	0	504	513	0	0	
7	0	0	0	0	505	511	0	0	
8	0	0	0	0	507	511	0	0	
9	0	0	0	0	508	511	0	0	
10	0	0	0	0	509	510	0	0	
11	0	0	0	0	511	509	0	0	
12	0	0	0	0	512	510	0	0	
13	0	0	0	0	511	513	0	0	
14	0	0	0	0	513	511	0	0	
15	0	0	0	0	514	512	0	0	
0	0	0	0	0	515	509	0	0	
1	0	0	0	0	513	510	0	0	
2	0	0	0	0	512	511	0	0	
3	0	0	0	0	510	508	0	0	
4	0	0	0	0	507	511	0	0	
5	0	0	0	0	505	512	0	0	
6	0	0	0	0	505	509	0	0	
7	0	0	0	0	504	509	0	0	
8	0	0	0	0	505	508	0	0	
9	0	0	0	0	504	509	0	0	
10	0	0	0	0	505	509	0	0	
11	0	0	0	0	504	511	0	0	
12	0	0	0	0	504	511	0	0	
13	0	0	0	0	507	510	0	0	
14	0	0	0	0	507	512	0	0	
15	0	0	0	0	510	512	0	0	
0	0	0	0	0	513	512	0	0	
1	0	0	0	0	513	511	0	0	
2	0	0	0	0	513	511	0	0	
3	0	0	0	0	514	509	0	0	
4	0	0	0	0	514	509	0	0	
5	0	0	0	0	513	510	0	0	
6	0	0	0	0	512	511	0	0	
7	0	0	0	0	510	509	0	0	
8	0	0	0	0	508	509	0	0	
9	0	0	0	0	504	509	0	0	
10	0	0	0	0	504	510	0	0	
11	0	0	0	0	504	511	0	0	
12	0	0	0	0	505	510	0	0	
13	0	0	0	0	504	512	0	0	
14	0	0	0	0	502	510	0	0	
15	0	0	0	0	504	509	0	0	
0	0	0	0	0	507	510	0	0	
1	0	0	0	0	507	512	0	0	
2	0	0	0	0	507	511	0	0	
3	0	0	0	0	511	509	0	0	
4	0	0	0	0	512	509	0	0	
5	0	0	0	0	512	510	0	0	
6	0	0	0	0	515	510	0	0	
7	0	0	0	0	514	512	0	0	
8	0	0	0	0	513	511	0	0	
9	0	0	0	0	514	512	0	0	
10	0	0	0	0	512	512	0	0	
11	0	0	0	0	509	511	0	0	
12	0	0	0	0	507	510	0	0	
13	0	0	0	0	507	511	0	0	
14	0	0	0	0	505	511	0	0	
15	0	0	0	0	504	509	0	0	
0	0	0	0	0	502	510	0	0	
1	0	0	0	0	502	508	0	0	
2	0	0	0	0	503	513	0	0	
3	0	0	0	0	505	510	0	0	
4	0	0	0	0	507	511	0	0	
5	0	0	0	0	507	511	0	0	
6	0	0	0	0	511	510	0	0	
7	0	0	0	0	510	511	0	0	
8	0	0	0	0	512	511	0	0	
9	0	0	0	0	512	511	0	0	
10	0	0	0	0	514	513	0	0	
11	0	0	0	0	512	510	0	0	
12	0	0	0	0	512	510	0	0	
13	0	0	0	0	512	512	0	0	
14	0	0	0	0	511	512	0	0	
15	0	0	0	0	510	513	0	0	
0	0	0	0	0	509	511	0	0	
1	0	0	0	0	504	510	0	0	
2	0	0	0	0	507	510	0	0	
3	0	0	0	0	504	509	0	0	
4	0	0	0	0	504	510	0	0	
5	0	0	0	0	504	510	0	0	
6	0	0	0	0	503	509	0	0	
7	0	0	0	0	504	511	0	0	
8	0	0	0	0	504	510	0	0	
9	0	0	0	0	507	511	0	0	
10	0	0	0	0	508	511	0	0	
11	0	0	0	0	510	511	0	0	
12	0	0	0	0	514	510	0	0	
13	0	0	0	0	514	511	0	0	
14	0	0	0	0	514	512	0	0	
15	0	0	0	0	514	510	0	0	
0	0	0	0	0	511	510	0	0	
1	0	0	0	0	512	509	0	0	
2	0	0	0	0	511	510	0	0	
3	0	0	0	0	511	510	0	0	
4	0	0	0	0	508	510	0	0	
5	0	0	0	0	504	510	0	0	
6	0	0	0	0	503	511	0	0	
7	0	0	0	0	506	511	0	0	
8	0	0	0	0	504	509	0	0	
9	0	0	0	0	503	512	0	0	
10	0	0	0	0	503	508	0	0	
11	0	0	0	0	504	510	0	0	
12	0	0	0	0	505	511	0	0	
13	0	0	0	0	509	510	0	0	
14	0	0	0	0	508	510	0	0	
15	0	0	0	0	511	510	0	0	
0	0	0	0	0	512	511	0	0	
1	0	0	0	0	513	510	0	0	
2	0	0	0	0	515	511	0	0	
3	0	0	0	0	514	512	0	0	
4	0	0	0	0	513	512	0	0	
5	0	0	0	0	512	508	0	0	
6	0	0	0	0	511	509	0	0	
7	0	0	0	0	508	512	0	0	
8	0	0	0	0	508	511	0	0	
9	0	0	0	0	507	511	0	0	
10	0	0	0	0	506	511	0	0	
11	0	0	0	0	502	512	0	0	
12	0	0	0	0	503	511	0	0	
13	0	0	0	0	501	511	0	0	
14	0	0	0	0	505	509	0	0	
15	0	0	0	0	505	510	0	0	
0	0	0	0	0	505	509	0	0	
1	0	0	0	0	506	510	0	0	
2	0	0	0	0	507	513	0	0	
3	0	0	0	0	511	512	0	0	
4	0	0	0	0	512	508	0	0	
5	0	0	0	0	514	511	0	0	
6	0	0	0	0	514	509	0	0	
7	0	0	0	0	515	511	0	0	
8	0	0	0	0	514	508	0	0	
9	0	0	0	0	512	511	0	0	
10	0	0	0	0	510	512	0	0	
11	0	0	0	0	510	509	0	0	
12	0	0	0	0	508	510	0	0	
13	0	0	0	0	506	512	0	0	
14	0	0	0	0	504	511	0	0	
15	0	0	0	0	504	511	0	0	
0	0	0	0	0	505	510	0	0	
1	0	0	0	0	504	512	0	0	
2	0	0	0	0	504	511	0	0	
3	0	0	0	0	504	510	0	0	
4	0	0	0	0	505	512	0	0	
5	0	0	0	0	507	512	0	0	
6	0	0	0	0	508	510	0	0	
7	0	0	0	0	511	509	0	0	
8	0	0	0	0	512	510	0	0	
9	0	0	0	0	512	510	0	0	
10	0	0	0	0	515	510	0	0	
11	0	0	0	0	515	511	0	0	
12	0	0	0	0	512	510	0	0	
13	0	0	0	0	512	512	0	0	
14	0	0	0	0	509	511	0	0	
15	0	0	0	0	509	509	0	0	
0	0	0	0	0	508	511	0	0	
1	0	0	0	0	506	510	0	0	
2	0	0	0	0	504	510	0	0	
3	0	0	0	0	505	509	0	0	
4	0	0	0	0	506	512	0	0	
5	0	0	0	0	505	513	0	0	
6	0	0	0	0	504	509	0	0	
7	0	0	0	0	503	510	0	0	
8	0	0	0	0	505	511	0	0	
9	0	0	0	0	506	511	0	0	
10	0	0	0	0	509	513	0	0	
11	0	0	0	0	509	511	0	0	
12	0	0	0	0	512	510	0	0	
13	0	0	0	0	512	510	0	0	
14	0	0	0	0	515	510	0	0	
15	0	0	0	0	515	510	0	0	
0	0	0	0	0	516	508	0	0	
1	0	0	0	0	512	511	0	0	
2	0	0	0	0	510	510	0	0	
3	0	0	0	0	510	510	0	0	
4	0	0	0	0	507	509	0	0	
5	0	0	0	0	505	511	0	0	
6	0	0	0	0	504	513	0	0	
7	0	0	0	0	504	511	0	0	
8	0	0	0	0	502	511	0	0	
9	0	0	0	0	504	510	0	0	
10	0	0	0	0	504	510	0	0	
11	0	0	0	0	504	510	0	0	
12	0	0	0	0	505	511	0	0	
13	0	0	0	0	507	511	0	0	
14	0	0	0	0	508	508	0	0	
15	0	0	0	0	511	512	0	0	
0	0	0	0	0	512	509	0	0	
1	0	0	0	0	513	510	0	0	
2	0	0	0	0	513	510	0	0	
3	0	0	0	0	517	512	0	0	
4	0	0	0	0	514	511	0	0	
5	0	0	0	0	513	512	0	0	
6	0	0	0	0	510	510	0	0	
7	0	0	0	0	508	509	0	0	
8	0	0	0	0	508	512	0	0	
9	0	0	0	0	505	510	0	0	
10	0	0	0	0	504	511	0	0	
11	0	0	0	0	504	509	0	0	
12	0	0	0	0	506	510	0	0	
13	0	0	0	0	503	512	0	0	
14	0	0	0	0	504	511	0	0	
15	0	0	0	0	504	509	0	0	
0	0	0	0	0	505	509	0	0	
1	0	0	0	0	507	509	0	0	
2	0	0	0	0	508	511	0	0	
3	0	0	0	0	510	511	0	0	
4	0	0	0	0	513	511	0	0	
5	0	0	0	0	512	509	0	0	
6	0	0	0	0	514	511	0	0	
7	0	0	0	0	516	512	0	0	
8	0	0	0	0	514	508	0	0	
9	0	0	0	0	515	511	0	0	
10	0	0	0	0	512	513	0	0	
11	0	0	0	0	507	511	0	0	
12	0	0	0	0	508	511	0	0	
13	0	0	0	0	505	509	0	0	
14	0	0	0	0	502	511	0	0	
15	0	0	0	0	506	509	0	0	
0	0	0	0	0	503	511	0	0	
1	0	0	0	0	505	509	0	0	
2	0	0	0	0	504	512	0	0	
3	0	0	0	0	504	512	0	0	
4	0	0	0	0	505	511	0	0	
5	0	0	0	0	506	510	0	0	
6	0	0	0	0	508	509	0	0	
7	0	0	0	0	511	511	0	0	
8	0	0	0	0	512	512	0	0	
9	0	0	0	0	512	510	0	0	
10	0	0	0	0	514	510	0	0	
11	0	0	0	0	514	510	0	0	
12	0	0	0	0	516	511	0	0	
13	0	0	0	0	512	511	0	0	
14	0	0	0	0	512	510	0	0	
15	0	0	0	0	511	513	0	0	
0	0	0	0	0	508	509	0	0	
1	0	0	0	0	508	510	0	0	
2	0	0	0	0	505	511	0	0	
3	0	0	0	0	505	511	0	0	
4	0	0	0	0	504	512	0	0	
5	0	0	0	0	502	509	0	0	
6	0	0	0	0	504	511	0	0	
7	0	0	0	0	503	513	0	0	
8	0	0	0	0	508	512	0	0	
9	0	0	0	0	508	512	0	0	
10	0	0	0	0	508	509	0	0	
11	0	0	0	0	510	509	0	0	
12	0	0	0	0	512	510	0	0	
13	0	0	0	0	512	511	0	0	
14	0	0	0	0	513	511	0	0	
15	0	0	0	0	514	508	0	0	
0	0	0	0	0	513	510	0	0	
1	0	0	0	0	512	511	0	0	
2	0	0	0	0	512	512	0	0	
3	0	0	0	0	510	510	0	0	
4	0	0	0	0	508	513	0	0	
5	0	0	0	0	505	509	0	0	
6	0	0	0	0	505	509	0	0	
7	0	0	0	0	505	509	0	0	
8	0	0	0	0	504	511	0	0	
9	0	0	0	0	504	511	0	0	
10	0	0	0	0	504	510	0	0	
11	0	0	0	0	505	511	0	0	
12	0	0	0	0	505	509	0	0	
13	0	0	0	0	505	510	0	0	
14	0	0	0	0	507	511	0	0	
15	0	0	0	0	510	510	0	0	
0	0	0	0	0	512	510	0	0	
1	0	0	0	0	513	511	0	0	
2	0	0	0	0	513	513	0	0	
3	0	0	0	0	514	510	0	0	
4	0	0	0	0	513	512	0	0	
5	0	0	0	0	513	510	0	0	
6	0	0	0	0	511	510	0	0	
7	0	0	0	0	511	509	0	0	
8	0	0	0	0	510	511	0	0	
9	0	0	0	0	506	510	0	0	
10	0	0	0	0	503	512	0	0	
11	0	0	0	0	504	510	0	0	
12	0	0	0	0	504	511	0	0	
13	0	0	0	0	502	511	0	0	
14	0	0	0	0	505	511	0	0	
15	0	0	0	0	505	509	0	0	
0	0	0	0	0	505	511	0	0	
1	0	0	0	0	506	510	0	0	
2	0	0	0	0	509	511	0	0	
3	0	0	0	0	509	513	0	0	
4	0	0	0	0	513	512	0	0	
5	0	0	0	0	512	510	0	0	
6	0	0	0	0	514	512	0	0	
7	0	0	0	0	515	510	0	0	
8	0	0	0	0	515	511	0	0	
9	0	0	0	0	513	509	0	0	
10	0	0	0	0	511	508	0	0	
11	0	0	0	0	508	509	0	0	
12	0	0	0	0	509	509	0	0	
13	0	0	0	0	505	511	0	0	
14	0	0	0	0	505	511	0	0	
15	0	0	0	0	504	509	0	0	
0	0	0	0	0	503	508	0	0	
1	0	0	0	0	505	510	0	0	
2	0	0	0	0	504	511	0	0	
3	0	0	0	0	503	510	0	0	
4	0	0	0	0	505	511	0	0	
5	0	0	0	0	507	511	0	0	
6	0	0	0	0	510	511	0	0	
7	0	0	0	0	510	509	0	0	
8	0	0	0	0	513	509	0	0	
9	0	0	0	0	515	512	0	0	
10	0	0	0	0	512	510	0	0	
11	0	0	0	0	515	512	0	0	
12	0	0	0	0	512	511	0	0	
13	0	0	0	0	513	510	0	0	
14	0	0	0	0	511	511	0	0	
15	0	0	0	0	509	508	0	0	
0	0	0	0	0	511	509	0	0	
1	0	0	0	0	504	508	0	0	
2	0	0	0	0	505	511	0	0	
3	0	0	0	0	505	508	0	0	
4	0	0	0	0	501	510	0	0	
5	0	0	0	0	502	512	0	0	
6	0	0	0	0	502	510	0	0	
7	0	0	0	0	505	511	0	0	
8	0	0	0	0	506	512	0	0	
9	0	0	0	0	508	512	0	0	
10	0	0	0	0	509	510	0	0	
11	0	0	0	0	511	511	0	0	
12	0	0	0	0	511	511	0	0	
13	0	0	0	0	513	511	0	0	
14	0	0	0	0	515	511	0	0	
15	0	0	0	0	514	514	0	0	
0	0	0	0	0	513	510	0	0	
1	0	0	0	0	511	510	0	0	
2	0	0	0	0	511	508	0	0	
3	0	0	0	0	511	512	0	0	
4	0	0	0	0	507	511	0	0	
5	0	0	0	0	508	511	0	0	
6	0	0	0	0	503	512	0	0	
7	0	0	0	0	505	511	0	0	
8	0	0	0	0	505	512	0	0	
9	0	0	0	0	502	513	0	0	
10	0	0	0	0	502	510	0	0	
11	0	0	0	0	504	511	0	0	
12	0	0	0	0	506	510	0	0	
13	0	0	0	0	507	510	0	0	
14	0	0	0	0	507	509	0	0	
15	0	0	0	0	513	506	0	0	
0	0	0	0	0	513	509	0	0	
1	0	0	0	0	512	510	0	0	
2	0	0	0	0	515	508	0	0	
3	0	0	0	0	515	511	0	0	
4	0	0	0	0	514	509	0	0	
5	0	0	0	0	514	512	0	0	
6	0	0	0	0	512	512	0	0	
7	0	0	0	0	509	511	0	0	
8	0	0	0	0	506	510	0	0	
9	0	0	0	0	507	511	0	0	
10	0	0	0	0	503	513	0	0	
11	0	0	0	0	503	513	0	0	
12	0	0	0	0	502	512	0	0	
13	0	0	0	0	503	509	0	0	
14	0	0	0	0	503	510	0	0	
15	0	0	0	0	504	510	0	0	
0	0	0	0	0	504	509	0	0	
1	0	0	0	0	506	510	0	0	
2	0	0	0	0	507	510	0	0	
3	0	0	0	0	511	512	0	0	
4	0	0	0	0	513	510	0	0	
5	0	0	0	0	513	513	0	0	
6	0	0	0	0	515	511	0	0	
7	0	0	0	0	515	511	0	0	
8	0	0	0	0	513	511	0	0	
9	0	0	0	0	515	510	0	0	
10	0	0	0	0	511	510	0	0	
11	0	0	0	0	511	510	0	0	
12	0	0	0	0	508	510	0	0	
13	0	0	0	0	507	509	0	0	
14	0	0	0	0	504	508	0	0	
15	0	0	0	0	505	511	0	0	
0	0	0	0	0	503	511	0	0	
1	0	0	0	0	500	511	0	0	
2	0	0	0	0	502	509	0	0	
3	0	0	0	0	504	512	0	0	
4	0	0	0	0	506	512	0	0	
5	0	0	0	0	506	509	0	0	
6	0	0	0	0	512	511	0	0	
7	0	0	0	0	513	510	0	0	
8	0	0	0	0	514	512	0	0	
9	0	0	0	0	515	511	0	0	
10	0	0	0	0	514	511	0	0	
11	0	0	0	0	515	510	0	0	
12	0	0	0	0	513	510	0	0	
13	0	0	0	0	512	512	0	0	
14	0	0	0	0	510	513	0	0	
15	0	0	0	0	510	510	0	0	
0	0	0	0	0	508	510	0	0	
1	0	0	0	0	504	509	0	0	
2	0	0	0	0	505	511	0	0	
3	0	0	0	0	504	511	0	0	
4	0	0	0	0	503	512	0	0	
5	0	0	0	0	502	512	0	0	
6	0	0	0	0	503	512	0	0	
7	0	0	0	0	504	510	0	0	
8	0	0	0	0	505	508	0	0	
9	0	0	0	0	507	509	0	0	
10	0	0	0	0	507	510	0	0	
11	0	0	0	0	511	510	0	0	
12	0	0	0	0	513	510	0	0	
13	0	0	0	0	511	510	0	0	
14	0	0	0	0	514	509	0	0	
15	0	0	0	0	514	511	0	0	
0	0	0	0	0	514	510	0	0	
1	0	0	0	0	514	511	0	0	
2	0	0	0	0	512	510	0	0	
3	0	0	0	0	510	510	0	0	
4	0	0	0	0	511	512	0	0	
5	0	0	0	0	508	511	0	0	
6	0	0	0	0	507	514	0	0	
7	0	0	0	0	505	510	0	0	
8	0	0	0	0	502	511	0	0	
9	0	0	0	0	499	508	0	0	
10	0	0	0	0	502	509	0	0	
11	0	0	0	0	503	510	0	0	
12	0	0	0	0	503	510	0	0	
13	0	0	0	0	508	508	0	0	
14	0	0	0	0	507	511	0	0	
15	0	0	0	0	510	509	0	0	
0	0	0	0	0	512	511	0	0	
1	0	0	0	0	513	511	0	0	
2	0	0	0	0	515	511	0	0	
3	0	0	0	0	515	514	0	0	
4	0	0	0	0	514	510	0	0	
5	0	0	0	0	515	510	0	0	
6	0	0	0	0	511	511	0	0	
7	0	0	0	0	509	512	0	0	
8	0	0	0	0	507	511	0	0	
9	0	0	0	0	507	510	0	0	
10	0	0	0	0	504	508	0	0	
11	0	0	0	0	505	510	0	0	
12	0	0	0	0	502	510	0	0	
13	0	0	0	0	502	511	0	0	
14	0	0	0	0	505	511	0	0	
15	0	0	0	0	504	508	0	0	
0	0	0	0	0	505	509	0	0	
1	0	0	0	0	507	509	0	0	
2	0	0	0	0	508	511	0	0	
3	0	0	0	0	510	510	0	0	
4	0	0	0	0	513	513	0	0	
5	0	0	0	0	515	513	0	0	
6	0	0	0	0	512	512	0	0	
7	0	0	0	0	515	512	0	0	
8	0	0	0	0	513	511	0	0	
9	0	0	0	0	513	510	0	0	
10	0	0	0	0	512	510	0	0	
11	0	0	0	0	509	512	0	0	
12	0	0	0	0	508	508	0	0	
13	0	0	0	0	505	510	0	0	
14	0	0	0	0	505	511	0	0	
15	0	0	0	0	506	511	0	0	
0	0	0	0	0	503	507	0	0	
1	0	0	0	0	503	512	0	0	
2	0	0	0	0	504	511	0	0	
3	0	0	0	0	505	510	0	0	
4	0	0	0	0	506	511	0	0	
5	0	0	0	0	508	511	0	0	
6	0	0	0	0	506	512	0	0	
7	0	0	0	0	508	510	0	0	
8	0	0	0	0	511	509	0	0	
9	0	0	0	0	511	510	0	0	
10	0	0	0	0	514	508	0	0	
11	0	0	0	0	516	511	0	0	
12	0	0	0	0	512	509	0	0	
13	0	0	0	0	513	510	0	0	
14	0	0	0	0	511	510	0	0	
15	0	0	0	0	513	511	0	0	
0	0	0	0	0	509	513	0	0	
1	0	0	0	0	505	514	0	0	
2	0	0	0	0	505	510	0	0	
3	0	0	0	0	507	512	0	0	
4	0	0	0	0	504	510	0	0	
5	0	0	0	0	503	511	0	0	
6	0	0	0	0	503	511	0	0	
7	0	0	0	0	502	510	0	0	
8	0	0	0	0	505	511	0	0	
9	0	0	0	0	507	511	0	0	
10	0	0	0	0	508	509	0	0	
11	0	0	0	0	512	511	0	0	
12	0	0	0	0	514	510	0	0	
13	0	0	0	0	511	510	0	0	
14	0	0	0	0	512	510	0	0	
15	0	0	0	0	515	510	0	0	
0	0	0	0	0	515	510	0	0	
1	0	0	0	0	512	512	0	0	
2	0	0	0	0	511	513	0	0	
3	0	0	0	0	511	512	0	0	
4	0	0	0	0	508	509	0	0	
5	0	0	0	0	506	510	0	0	
6	0	0	0	0	506	510	0	0	
7	0	0	0	0	504	510	0	0	
8	0	0	0	0	504	511	0	0	
9	0	0	0	0	504	509	0	0	
10	0	0	0	0	504	510	0	0	
11	0	0	0	0	505	510	0	0	
12	0	0	0	0	506	510	0	0	
13	0	0	0	0	507	512	0	0	
14	0	0	0	0	506	510	0	0	
15	0	0	0	0	510	509	0	0	
0	0	0	0	0	511	510	0	0	
1	0	0	0	0	511	510	0	0	
2	0	0	0	0	513	510	0	0	
3	0	0	0	0	515	511	0	0	
4	0	0	0	0	513	509	0	0	
5	0	0	0	0	513	509	0	0	
6	0	0	0	0	511	511	0	0	
7	0	0	0	0	511	511	0	0	
8	0	0	0	0	508	511	0	0	
9	0	0	0	0	507	509	0	0	
10	0	0	0	0	508	510	0	0	
11	0	0	0	0	505	511	0	0	
12	0	0	0	0	504	510	0	0	
13	0	0	0	0	501	512	0	0	
14	0	0	0	0	503	512	0	0	
15	0	0	0	0	505	512	0	0	
0	0	0	0	0	505	509	0	0	
1	0	0	0	0	505	510	0	0	
2	0	0	0	0	507	513	0	0	
3	0	0	0	0	509	511	0	0	
4	0	0	0	0	514	509	0	0	
5	0	0	0	0	511	511	0	0	
6	0	0	0	0	513	510	0	0	
7	0	0	0	0	514	510	0	0	
8	0	0	0	0	513	513	0	0	
9	0	0	0	0	514	510	0	0	
10	0	0	0	0	511	511	0	0	
11	0	0	0	0	510	511	0	0	
12	0	0	0	0	510	514	0	0	
13	0	0	0	0	507	510	0	0	
14	0	0	0	0	504	510	0	0	
15	0	0	0	0	504	509	0	0	
0	0	0	0	0	503	512	0	0	
1	0	0	0	0	503	510	0	0	
2	0	0	0	0	503	510	0	0	
3	0	0	0	0	503	511	0	0	
4	0	0	0	0	506	510	0	0	
5	0	0	0	0	508	508	0	0	
6	0	0	0	0	509	512	0	0	
7	0	0	0	0	508	510	0	0	
8	0	0	0	0	514	510	0	0	
9	0	0	0	0	513	510	0	0	
10	0	0	0	0	515	512	0	0	
11	0	0	0	0	514	511	0	0	
12	0	0	0	0	515	511	0	0	
13	0	0	0	0	514	510	0	0	
14	0	0	0	0	512	510	0	0	
15	0	0	0	0	510	508	0	0	
0	0	0	0	0	508	512	0	0	
1	0	0	0	0	507	510	0	0	
2	0	0	0	0	503	511	0	0	
3	0	0	0	0	502	511	0	0	
4	0	0	0	0	502	509	0	0	
5	0	0	0	0	502	511	0	0	
6	0	0	0	0	505	511	0	0	
7	0	0	0	0	505	510	0	0	
8	0	0	0	0	506	512	0	0	
9	0	0	0	0	506	509	0	0	
10	0	0	0	0	508	510	0	0	
11	0	0	0	0	510	511	0	0	
12	0	0	0	0	511	511	0	0	
13	0	0	0	0	513	511	0	0	
14	0	0	0	0	515	509	0	0	
15	0	0	0	0	515	511	0	0	
0	0	0	0	0	513	512	0	0	
1	0	0	0	0	513	511	0	0	
2	0	0	0	0	511	511	0	0	
3	0	0	0	0	510	512	0	0	
4	0	0	0	0	508	513	0	0	
5	0	0	0	0	506	512	0	0	
6	0	0	0	0	505	511	0	0	
7	0	0	0	0	506	510	0	0	
8	0	0	0	0	503	511	0	0	
9	0	0	0	0	504	510	0	0	
10	0	0	0	0	502	511	0	0	
11	0	0	0	0	503	510	0	0	
12	0	0	0	0	504	511	0	0	
13	0	0	0	0	506	509	0	0	
14	0	0	0	0	509	511	0	0	
15	0	0	0	0	513	511	0	0	
0	0	0	0	0	512	510	0	0	
1	0	0	0	0	512	510	0	0	
2	0	0	0	0	514	510	0	0	
3	0	0	0	0	514	509	0	0	
4	0	0	0	0	513	509	0	0	
5	0	0	0	0	513	508	0	0	
6	0	0	0	0	510	508	0	0	
7	0	0	0	0	510	512	0	0	
8	0	0	0	0	510	512	0	0	
9	0	0	0	0	507	509	0	0	
10	0	0	0	0	504	512	0	0	
11	0	0	0	0	503	512	0	0	
12	0	0	0	0	503	511	0	0	
13	0	0	0	0	502	510	0	0	
14	0	0	0	0	503	508	0	0	
15	0	0	0	0	504	510	0	0	
0	0	0	0	0	506	511	0	0	
1	0	0	0	0	506	512	0	0	
2	0	0	0	0	511	514	0	0	
3	0	0	0	0	512	511	0	0	
4	0	0	0	0	512	512	0	0	
5	0	0	0	0	513	510	0	0	
6	0	0	0	0	512	510	0	0	
7	0	0	0	0	515	512	0	0	
8	0	0	0	0	515	512	0	0	
9	0	0	0	0	513	511	0	0	
10	0	0	0	0	510	512	0	0	
11	0	0	0	0	509	511	0	0	
12	0	0	0	0	510	512	0	0	
13	0	0	0	0	508	511	0	0	
14	0	0	0	0	504	510	0	0	
15	0	0	0	0	504	511	0	0	
0	0	0	0	0	504	510	0	0	
1	0	0	0	0	501	509	0	0	
2	0	0	0	0	504	511	0	0	
3	0	0	0	0	505	509	0	0	
4	0	0	0	0	505	510	0	0	
5	0	0	0	0	504	510	0	0	
6	0	0	0	0	509	508	0	0	
7	0	0	0	0	510	508	0	0	
8	0	0	0	0	514	509	0	0	
9	0	0	0	0	514	511	0	0	
10	0	0	0	0	513	510	0	0	
11	0	0	0	0	515	512	0	0	
12	0	0	0	0	514	511	0	0	
13	0	0	0	0	514	510	0	0	
14	0	0	0	0	511	508	0	0	
15	0	0	0	0	507	511	0	0	
0	0	0	0	0	506	510	0	0	
1	0	0	0	0	507	511	0	0	
2	0	0	0	0	506	511	0	0	
3	0	0	0	0	502	512	0	0	
4	0	0	0	0	503	511	0	0	
5	0	0	0	0	504	512	0	0	
6	0	0	0	0	504	511	0	0	
7	0	0	0	0	505	510	0	0	
8	0	0	0	0	505	512	0	0	
9	0	0	0	0	507	511	0	0	
10	0	0	0	0	507	510	0	0	
11	0	0	0	0	511	510	0	0	
12	0	0	0	0	513	511	0	0	
13	0	0	0	0	512	511	0	0	
14	0	0	0	0	513	510	0	0	
15	0	0	0	0	513	511	0	0	
0	0	0	0	0	514	512	0	0	
1	0	0	0	0	513	510	0	0	
2	0	0	0	0	512	511	0	0	
3	0	0	0	0	510	511	0	0	
4	0	0	0	0	508	510	0	0	
5	0	0	0	0	506	511	0	0	
6	0	0	0	0	505	510	0	0	
7	0	0	0	0	505	509	0	0	
8	0	0	0	0	505	513	0	0	
9	0	0	0	0	503	509	0	0	
10	0	0	0	0	504	510	0	0	
11	0	0	0	0	504	510	0	0	
12	0	0	0	0	505	512	0	0	
13	0	0	0	0	505	508	0	0	
14	0	0	0	0	507	511	0	0	
15	0	0	0	0	510	511	0	0	
0	0	0	0	0	513	511	0	0	
1	0	0	0	0	514	512	0	0	
2	0	0	0	0	513	513	0	0	
3	0	0	0	0	513	512	0	0	
4	0	0	0	0	513	512	0	0	
5	0	0	0	0	514	511	0	0	
6	0	0	0	0	510	510	0	0	
7	0	0	0	0	510	509	0	0	
8	0	0	0	0	509	510	0	0	
9	0	0	0	0	507	509	0	0	
10	0	0	0	0	503	509	0	0	
11	0	0	0	0	503	510	0	0	
12	0	0	0	0	502	510	0	0	
13	0	0	0	0	504	511	0	0	
14	0	0	0	0	505	510	0	0	
15	0	0	0	0	506	511	0	0	
0	0	0	0	0	509	511	0	0	
1	0	0	0	0	507	509	0	0	
2	0	0	0	0	508	509	0	0	
3	0	0	0	0	511	510	0	0	
4	0	0	0	0	511	510	0	0	
5	0	0	0	0	508	510	0	0	
6	0	0	0	0	510	510	0	0	
7	0	0	0	0	513	511	0	0	
8	0	0	0	0	513	509	0	0	
9	0	0	0	0	515	509	0	0	
10	0	0	0	0	512	509	0	0	
11	0	0	0	0	510	512	0	0	
12	0	0	0	0	506	511	0	0	
13	0	0	0	0	507	511	0	0	
14	0	0	0	0	504	512	0	0	
15	0	0	0	0	505	511	0	0	
0	0	0	0	0	504	509	0	0	
1	0	0	0	0	504	511	0	0	
2	0	0	0	0	503	510	0	0	
3	0	0	0	0	503	508	0	0	
4	0	0	0	0	505	510	0	0	
5	0	0	0	0	507	511	0	0	
6	0	0	0	0	509	512	0	0	
7	0	0	0	0	510	511	0	0	
8	0	0	0	0	513	511	0	0	
9	0	0	0	0	513	511	0	0	
10	0	0	0	0	514	511	0	0	
11	0	0	0	0	514	512	0	0	
12	0	0	0	0	513	508	0	0	
13	0	0	0	0	513	511	0	0	
14	0	0	0	0	511	509	0	0	
15	0	0	0	0	508	510	0	0	
0	0	0	0	0	508	510	0	0	
1	0	0	0	0	506	511	0	0	
2	0	0	0	0	504	510	0	0	
3	0	0	0	0	505	509	0	0	
4	0	0	0	0	504	511	0	0	
5	0	0	0	0	503	510	0	0	
6	0	0	0	0	503	508	0	0	
7	0	0	0	0	504	508	0	0	
8	0	0	0	0	505	511	0	0	
9	0	0	0	0	508	510	0	0	
10	0	0	0	0	509	511	0	0	
11	0	0	0	0	511	511	0	0	
12	0	0	0	0	512	512	0	0	
13	0	0	0	0	511	512	0	0	
14	0	0	0	0	512	511	0	0	
15	0	0	0	0	514	510	0	0	
0	0	0	0	0	514	511	0	0	
1	0	0	0	0	512	510	0	0	
2	0	0	0	0	510	509	0	0	
3	0	0	0	0	510	511	0	0	
4	0	0	0	0	509	511	0	0	
5	0	0	0	0	510	512	0	0	
6	0	0	0	0	506	511	0	0	
7	0	0	0	0	504	511	0	0	
8	0	0	0	0	505	507	0	0	
9	0	0	0	0	504	509	0	0	
10	0	0	0	0	504	509	0	0	
11	0	0	0	0	503	508	0	0	
12	0	0	0	0	505	510	0	0	
13	0	0	0	0	505	510	0	0	
14	0	0	0	0	508	511	0	0	
15	0	0	0	0	510	510	0	0	
0	0	0	0	0	513	510	0	0	
1	0	0	0	0	511	510	0	0	
2	0	0	0	0	512	510	0	0	
3	0	0	0	0	513	512	0	0	
4	0	0	0	0	515	511	0	0	
5	0	0	0	0	515	512	0	0	
6	0	0	0	0	511	511	0	0	
7	0	0	0	0	511	512	0	0	
8	0	0	0	0	510	509	0	0	
9	0	0	0	0	507	508	0	0	
10	0	0	0	0	505	510	0	0	
11	0	0	0	0	506	512	0	0	
12	0	0	0	0	503	510	0	0	
13	0	0	0	0	502	511	0	0	
14	0	0	0	0	503	509	0	0	
15	0	0	0	0	503	511	0	0	
0	0	0	0	0	503	510	0	0	
1	0	0	0	0	508	509	0	0	
2	0	0	0	0	507	513	0	0	
3	0	0	0	0	510	510	0	0	
4	0	0	0	0	511	510	0	0	
5	0	0	0	0	513	511	0	0	
6	0	0	0	0	516	510	0	0	
7	0	0	0	0	515	509	0	0	
8	0	0	0	0	515	510	0	0	
9	0	0	0	0	514	510	0	0	
10	0	0	0	0	512	511	0	0	
11	0	0	0	0	509	513	0	0	
12	0	0	0	0	506	512	0	0	
13	0	0	0	0	504	508	0	0	
14	0	0	0	0	505	511	0	0	
15	0	0	0	0	504	511	0	0	
0	0	0	0	0	503	512	0	0	
1	0	0	0	0	504	512	0	0	
2	0	0	0	0	504	509	0	0	
3	0	0	0	0	505	507	0	0	
4	0	0	0	0	507	510	0	0	
5	0	0	0	0	507	511	0	0	
6	0	0	0	0	508	509	0	0	
7	0	0	0	0	508	511	0	0	
8	0	0	0	0	512	511	0	0	
9	0	0	0	0	514	512	0	0	
10	0	0	0	0	514	511	0	0	
11	0	0	0	0	514	512	0	0	
12	0	0	0	0	513	511	0	0	
13	0	0	0	0	515	512	0	0	
14	0	0	0	0	511	510	0	0	
15	0	0	0	0	510	511	0	0	
0	0	0	0	0	509	512	0	0	
1	0	0	0	0	505	512	0	0	
2	0	0	0	0	504	509	0	0	
3	0	0	0	0	505	509	0	0	
4	0	0	0	0	505	509	0	0	
5	0	0	0	0	503	509	0	0	
6	0	0	0	0	503	509	0	0	
7	0	0	0	0	503	509	0	0	
8	0	0	0	0	504	511	0	0	
9	0	0	0	0	508	511	0	0	
10	0	0	0	0	508	508	0	0	
11	0	0	0	0	511	511	0	0	
12	0	0	0	0	513	510	0	0	
13	0	0	0	0	513	510	0	0	
14	0	0	0	0	512	512	0	0	
15	0	0	0	0	514	512	0	0	
0	0	0	0	0	514	510	0	0	
1	0	0	0	0	512	511	0	0	
2	0	0	0	0	511	512	0	0	
3	0	0	0	0	510	508	0	0	
4	0	0	0	0	509	511	0	0	
5	0	0	0	0	507	510	0	0	
6	0	0	0	0	505	511	0	0	
7	0	0	0	0	503	513	0	0	
8	0	0	0	0	504	511	0	0	
9	0	0	0	0	504	508	0	0	
10	0	0	0	0	504	510	0	0	
11	0	0	0	0	502	510	0	0	
12	0	0	0	0	504	512	0	0	
13	0	0	0	0	507	509	0	0	
14	0	0	0	0	507	511	0	0	
15	0	0	0	0	510	511	0	0	
0	0	0	0	0	512	511	0	0	
1	0	0	0	0	513	510	0	0	
2	0	0	0	0	515	511	0	0	
3	0	0	0	0	515	510	0	0	
4	0	0	0	0	513	513	0	0	
5	0	0	0	0	514	511	0	0	
6	0	0	0	0	509	511	0	0	
7	0	0	0	0	508	511	0	0	
8	0	0	0	0	509	511	0	0	
9	0	0	0	0	508	509	0	0	
10	0	0	0	0	507	508	0	0	
11	0	0	0	0	506	511	0	0	
12	0	0	0	0	507	510	0	0	
13	0	0	0	0	504	511	0	0	
14	0	0	0	0	502	510	0	0	
15	0	0	0	0	502	509	0	0	
0	0	0	0	0	504	512	0	0	
1	0	0	0	0	508	513	0	0	
2	0	0	0	0	508	511	0	0	
3	0	0	0	0	512	509	0	0	
4	0	0	0	0	513	512	0	0	
5	0	0	0	0	513	511	0	0	
6	0	0	0	0	514	511	0	0	
7	0	0	0	0	514	509	0	0	
8	0	0	0	0	512	510	0	0	
9	0	0	0	0	512	510	0	0	
10	0	0	0	0	511	511	0	0	
11	0	0	0	0	511	511	0	0	
12	0	0	0	0	508	510	0	0	
13	0	0	0	0	507	511	0	0	
14	0	0	0	0	504	509	0	0	
15	0	0	0	0	506	512	0	0	
0	0	0	0	0	505	511	0	0	
1	0	0	0	0	504	510	0	0	
2	0	0	0	0	507	511	0	0	
3	0	0	0	0	504	511	0	0	
4	0	0	0	0	501	508	0	0	
5	0	0	0	0	504	510	0	0	
6	0	0	0	0	507	508	0	0	
7	0	0	0	0	510	509	0	0	
8	0	0	0	0	510	511	0	0	
9	0	0	0	0	513	511	0	0	
10	0	0	0	0	513	511	0	0	
11	0	0	0	0	513	512	0	0	
12	0	0	0	0	512	509	0	0	
13	0	0	0	0	514	512	0	0	
14	0	0	0	0	510	511	0	0	
15	0	0	0	0	509	509	0	0	
0	0	0	0	0	511	510	0	0	
1	0	0	0	0	506	511	0	0	
2	0	0	0	0	504	512	0	0	
3	0	0	0	0	505	510	0	0	
4	0	0	0	0	504	512	0	0	
5	0	0	0	0	504	511	0	0	
6	0	0	0	0	503	512	0	0	
7	0	0	0	0	504	512	0	0	
8	0	0	0	0	505	509	0	0	
9	0	0	0	0	506	509	0	0	
10	0	0	0	0	508	508	0	0	
11	0	0	0	0	510	510	0	0	
12	0	0	0	0	513	508	0	0	
13	0	0	0	0	511	509	0	0	
14	0	0	0	0	513	511	0	0	
15	0	0	0	0	516	510	0	0	
0	0	0	0	0	515	510	0	0	
1	0	0	0	0	512	513	0	0	
2	0	0	0	0	514	511	0	0	
3	0	0	0	0	510	511	0	0	
4	0	0	0	0	508	512	0	0	
5	0	0	0	0	506	511	0	0	
6	0	0	0	0	505	512	0	0	
7	0	0	0	0	505	509	0	0	
8	0	0	0	0	504	510	0	0	
9	0	0	0	0	502	511	0	0	
10	0	0	0	0	501	511	0	0	
11	0	0	0	0	504	509	0	0	
12	0	0	0	0	506	508	0	0	
13	0	0	0	0	505	510	0	0	
14	0	0	0	0	508	509	0	0	
15	0	0	0	0	508	509	0	0	
0	0	0	0	0	511	512	0	0	
1	0	0	0	0	512	511	0	0	
2	0	0	0	0	513	512	0	0	
3	0	0	0	0	515	512	0	0	
4	0	0	0	0	515	510	0	0	
5	0	0	0	0	514	512	0	0	
6	0	0	0	0	513	512	0	0	
7	0	0	0	0	510	512	0	0	
8	0	0	0	0	508	510	0	0	
9	0	0	0	0	505	511	0	0	
10	0	0	0	0	505	510	0	0	
11	0	0	0	0	505	509	0	0	
12	0	0	0	0	502	510	0	0	
13	0	0	0	0	502	511	0	0	
14	0	0	0	0	503	509	0	0	
15	0	0	0	0	504	510	0	0	
0	0	0	0	0	506	510	0	0	
1	0	0	0	0	508	509	0	0	
2	0	0	0	0	505	511	0	0	
3	0	0	0	0	507	510	0	0	
4	0	0	0	0	512	510	0	0	
5	0	0	0	0	513	510	0	0	
6	0	0	0	0	513	508	0	0	
7	0	0	0	0	515	510	0	0	
8	0	0	0	0	515	512	0	0	
9	0	0	0	0	515	513	0	0	
10	0	0	0	0	511	512	0	0	
11	0	0	0	0	510	509	0	0	
12	0	0	0	0	510	508	0	0	
13	0	0	0	0	506	512	0	0	
14	0	0	0	0	503	512	0	0	
15	0	0	0	0	502	512	0	0	
0	0	0	0	0	503	511	0	0	
1	0	0	0	0	504	513	0	0	
2	0	0	0	0	504	509	0	0	
3	0	0	0	0	504	511	0	0	
4	0	0	0	0	506	511	0	0	
5	0	0	0	0	505	512	0	0	
6	0	0	0	0	509	511	0	0	
7	0	0	0	0	511	510	0	0	
8	0	0	0	0	512	510	0	0	
9	0	0	0	0	510	511	0	0	
10	0	0	0	0	511	511	0	0	
11	0	0	0	0	513	511	0	0	
12	0	0	0	0	515	509	0	0	
13	0	0	0	0	514	512	0	0	
14	0	0	0	0	512	510	0	0	
15	0	0	0	0	512	508	0	0	
0	0	0	0	0	509	511	0	0	
1	0	0	0	0	505	510	0	0	
2	0	0	0	0	503	511	0	0	
3	0	0	0	0	504	510	0	0	
4	0	0	0	0	503	508	0	0	
5	0	0	0	0	503	508	0	0	
6	0	0	0	0	501	509	0	0	
7	0	0	0	0	504	510	0	0	
8	0	0	0	0	504	512	0	0	
9	0	0	0	0	510	511	0	0	
10	0	0	0	0	506	511	0	0	
11	0	0	0	0	510	512	0	0	
12	0	0	0	0	513	510	0	0	
13	0	0	0	0	513	510	0	0	
14	0	0	0	0	513	510	0	0	
15	0	0	0	0	515	509	0	0	
0	0	0	0	0	514	508	0	0	
1	0	0	0	0	514	509	0	0	
2	0	0	0	0	514	508	0	0	
3	0	0	0	0	511	512	0	0	
4	0	0	0	0	509	513	0	0	
5	0	0	0	0	507	512	0	0	
6	0	0	0	0	505	511	0	0	
7	0	0	0	0	505	511	0	0	
8	0	0	0	0	504	512	0	0	
9	0	0	0	0	503	509	0	0	
10	0	0	0	0	501	510	0	0	
11	0	0	0	0	502	511	0	0	
12	0	0	0	0	504	508	0	0	
13	0	0	0	0	507	512	0	0	
14	0	0	0	0	505	511	0	0	
15	0	0	0	0	510	510	0	0	
0	0	0	0	0	511	512	0	0	
1	0	0	0	0	513	508	0	0	
2	0	0	0	0	514	510	0	0	
3	0	0	0	0	515	512	0	0	
4	0	0	0	0	513	512	0	0	
5	0	0	0	0	514	513	0	0	
6	0	0	0	0	513	510	0	0	
7	0	0	0	0	509	509	0	0	
8	0	0	0	0	509	510	0	0	
9	0	0	0	0	507	511	0	0	
10	0	0	0	0	505	510	0	0	
11	0	0	0	0	505	512	0	0	
12	0	0	0	0	506	512	0	0	
13	0	0	0	0	503	512	0	0	
14	0	0	0	0	504	511	0	0	
15	0	0	0	0	503	510	0	0	
0	0	0	0	0	505	512	0	0	
1	0	0	0	0	507	511	0	0	
2	0	0	0	0	506	512	0	0	
3	0	0	0	0	509	510	0	0	
4	0	0	0	0	512	513	0	0	
5	0	0	0	0	513	510	0	0	
6	0	0	0	0	515	511	0	0	
7	0	0	0	0	516	511	0	0	
8	0	0	0	0	515	509	0	0	
9	0	0	0	0	514	511	0	0	
10	0	0	0	0	510	510	0	0	
11	0	0	0	0	508	510	0	0	
12	0	0	0	0	509	509	0	0	
13	0	0	0	0	506	510	0	0	
14	0	0	0	0	504	511	0	0	
15	0	0	0	0	505	511	0	0	
0	0	0	0	0	505	508	0	0	
1	0	0	0	0	503	508	0	0	
2	0	0	0	0	503	509	0	0	
3	0	0	0	0	504	509	0	0	
4	0	0	0	0	505	510	0	0	
5	0	0	0	0	506	511	0	0	
6	0	0	0	0	508	512	0	0	
7	0	0	0	0	511	512	0	0	
8	0	0	0	0	513	511	0	0	
9	0	0	0	0	513	510	0	0	
10	0	0	0	0	512	509	0	0	
11	0	0	0	0	515	512	0	0	
12	0	0	0	0	515	511	0	0	
13	0	0	0	0	512	513	0	0	
14	0	0	0	0	512	510	0	0	
15	0	0	0	0	510	510	0	0	
0	0	0	0	0	508	512	0	0	
1	0	0	0	0	507	510	0	0	
2	0	0	0	0	504	510	0	0	
3	0	0	0	0	503	511	0	0	
4	0	0	0	0	504	511	0	0	
5	0	0	0	0	502	509	0	0	
6	0	0	0	0	504	509	0	0	
7	0	0	0	0	504	508	0	0	
8	0	0	0	0	504	511	0	0	
9	0	0	0	0	507	510	0	0	
10	0	0	0	0	506	511	0	0	
11	0	0	0	0	509	512	0	0	
12	0	0	0	0	511	508	0	0	
13	0	0	0	0	512	509	0	0	
14	0	0	0	0	513	511	0	0	
15	0	0	0	0	516	511	0	0	
0	0	0	0	0	514	511	0	0	
1	0	0	0	0	514	511	0	0	
2	0	0	0	0	512	510	0	0	
3	0	0	0	0	510	512	0	0	
4	0	0	0	0	509	509	0	0	
5	0	0	0	0	507	512	0	0	
6	0	0	0	0	506	510	0	0	
7	0	0	0	0	503	511	0	0	
8	0	0	0	0	501	511	0	0	
9	0	0	0	0	502	510	0	0	
10	0	0	0	0	504	511	0	0	
11	0	0	0	0	504	512	0	0	
12	0	0	0	0	506	508	0	0	
13	0	0	0	0	511	511	0	0	
14	0	0	0	0	508	510	0	0	
15	0	0	0	0	510	511	0	0	
0	0	0	0	0	512	510	0	0	
1	0	0	0	0	512	512	0	0	
2	0	0	0	0	513	510	0	0	
3	0	0	0	0	515	511	0	0	
4	0	0	0	0	513	510	0	0	
5	0	0	0	0	515	512	0	0	
6	0	0	0	0	512	511	0	0	
7	0	0	0	0	508	508	0	0	
8	0	0	0	0	507	510	0	0	
9	0	0	0	0	505	509	0	0	
10	0	0	0	0	506	510	0	0	
11	0	0	0	0	505	508	0	0	
12	0	0	0	0	504	512	0	0	
13	0	0	0	0	502	510	0	0	
14	0	0	0	0	504	511	0	0	
15	0	0	0	0	506	512	0	0	
0	0	0	0	0	506	511	0	0	
1	0	0	0	0	507	510	0	0	
2	0	0	0	0	508	510	0	0	
3	0	0	0	0	510	511	0	0	
4	0	0	0	0	510	512	0	0	
5	0	0	0	0	512	510	0	0	
6	0	0	0	0	513	510	0	0	
7	0	0	0	0	515	509	0	0	
8	0	0	0	0	516	511	0	0	
9	0	0	0	0	514	511	0	0	
10	0	0	0	0	511	512	0	0	
11	0	0	0	0	511	511	0	0	
12	0	0	0	0	507	512	0	0	
13	0	0	0	0	508	510	0	0	
14	0	0	0	0	506	510	0	0	
15	0	0	0	0	503	511	0	0	
0	0	0	0	0	504	508	0	0	
1	0	0	0	0	503	509	0	0	
2	0	0	0	0	505	510	0	0	
3	0	0	0	0	503	510	0	0	
4	0	0	0	0	505	509	0	0	
5	0	0	0	0	506	509	0	0	
6	0	0	0	0	507	511	0	0	
7	0	0	0	0	509	510	0	0	
8	0	0	0	0	509	511	0	0	
9	0	0	0	0	512	509	0	0	
10	0	0	0	0	515	510	0	0	
11	0	0	0	0	515	512	0	0	
12	0	0	0	0	515	511	0	0	
13	0	0	0	0	512	511	0	0	
14	0	0	0	0	511	511	0	0	
15	0	0	0	0	509	508	0	0	
0	0	0	0	0	509	512	0	0	
1	0	0	0	0	507	512	0	0	
2	0	0	0	0	505	511	0	0	
3	0	0	0	0	506	510	0	0	
4	0	0	0	0	505	511	0	0	
5	0	0	0	0	503	509	0	0	
6	0	0	0	0	504	509	0	0	
7	0	0	0	0	503	512	0	0	
8	0	0	0	0	505	510	0	0	
9	0	0	0	0	506	509	0	0	
10	0	0	0	0	508	512	0	0	
11	0	0	0	0	509	513	0	0	
12	0	0	0	0	512	511	0	0	
13	0	0	0	0	515	511	0	0	
14	0	0	0	0	511	510	0	0	
15	0	0	0	0	515	513	0	0	
0	0	0	0	0	514	510	0	0	
1	0	0	0	0	515	511	0	0	
2	0	0	0	0	511	511	0	0	
3	0	0	0	0	511	510	0	0	
4	0	0	0	0	507	510	0	0	
5	0	0	0	0	508	511	0	0	
6	0	0	0	0	505	509	0	0	
7	0	0	0	0	505	508	0	0	
8	0	0	0	0	503	508	0	0	
9	0	0	0	0	503	510	0	0	
10	0	0	0	0	502	510	0	0	
11	0	0	0	0	503	511	0	0	
12	0	0	0	0	504	510	0	0	
13	0	0	0	0	506	512	0	0	
14	0	0	0	0	505	512	0	0	
15	0	0	0	0	510	510	0	0	
0	0	0	0	0	514	509	0	0	
1	0	0	0	0	513	511	0	0	
2	0	0	0	0	512	510	0	0	
3	0	0	0	0	516	511	0	0	
4	0	0	0	0	514	510	0	0	
5	0	0	0	0	513	511	0	0	
6	0	0	0	0	513	511	0	0	
7	0	0	0	0	512	512	0	0	
8	0	0	0	0	509	509	0	0	
9	0	0	0	0	507	510	0	0	
10	0	0	0	0	504	510	0	0	
11	0	0	0	0	504	511	0	0	
12	0	0	0	0	502	508	0	0	
13	0	0	0	0	503	511	0	0	
14	0	0	0	0	504	511	0	0	
15	0	0	0	0	503	511	0	0	
0	0	0	0	0	506	510	0	0	
1	0	0	0	0	506	511	0	0	
2	0	0	0	0	508	512	0	0	
3	0	0	0	0	511	512	0	0	
4	0	0	0	0	513	512	0	0	
5	0	0	0	0	513	512	0	0	
6	0	0	0	0	512	510	0	0	
7	0	0	0	0	515	508	0	0	
8	0	0	0	0	514	510	0	0	
9	0	0	0	0	513	511	0	0	
10	0	0	0	0	512	511	0	0	
11	0	0	0	0	508	512	0	0	
12	0	0	0	0	505	511	0	0	
13	0	0	0	0	508	510	0	0	
14	0	0	0	0	505	509	0	0	
15	0	0	0	0	505	509	0	0	
0	0	0	0	0	503	511	0	0	
1	0	0	0	0	506	508	0	0	
2	0	0	0	0	505	509	0	0	
3	0	0	0	0	503	508	0	0	
4	0	0	0	0	506	511	0	0	
5	0	0	0	0	505	510	0	0	
6	0	0	0	0	506	511	0	0	
7	0	0	0	0	507	510	0	0	
8	0	0	0	0	511	509	0	0	
9	0	0	0	0	513	511	0	0	
10	0	0	0	0	515	510	0	0	
11	0	0	0	0	516	510	0	0	
12	0	0	0	0	514	511	0	0	
13	0	0	0	0	514	512	0	0	
14	0	0	0	0	512	513	0	0	
15	0	0	0	0	511	510	0	0	
0	0	0	0	0	510	510	0	0	
1	0	0	0	0	507	511	0	0	
2	0	0	0	0	505	513	0	0	
3	0	0	0	0	507	512	0	0	
4	0	0	0	0	505	510	0	0	
5	0	0	0	0	501	513	0	0	
6	0	0	0	0	500	513	0	0	
7	0	0	0	0	503	509	0	0	
8	0	0	0	0	503	509	0	0	
9	0	0	0	0	505	513	0	0	
10	0	0	0	0	508	509	0	0	
11	0	0	0	0	510	510	0	0	
12	0	0	0	0	512	510	0	0	
13	0	0	0	0	513	510	0	0	
14	0	0	0	0	514	510	0	0	
15	0	0	0	0	515	510	0	0	
0	0	0	0	0	513	510	0	0	
1	0	0	0	0	511	512	0	0	
2	0	0	0	0	512	512	0	0	
3	0	0	0	0	510	512	0	0	
4	0	0	0	0	509	512	0	0	
5	0	0	0	0	509	511	0	0	
6	0	0	0	0	505	511	0	0	
7	0	0	0	0	504	510	0	0	
8	0	0	0	0	504	509	0	0	
9	0	0	0	0	506	508	0	0	
10	0	0	0	0	501	511	0	0	
11	0	0	0	0	505	511	0	0	
12	0	0	0	0	504	513	0	0	
13	0	0	0	0	506	512	0	0	
14	0	0	0	0	510	510	0	0	
15	0	0	0	0	508	513	0	0	
0	0	0	0	0	511	509	0	0	
1	0	0	0	0	511	512	0	0	
2	0	0	0	0	514	510	0	0	
3	0	0	0	0	515	509	0	0	
4	0	0	0	0	513	510	0	0	
5	0	0	0	0	513	509	0	0	
6	0	0	0	0	513	510	0	0	
7	0	0	0	0	509	509	0	0	
8	0	0	0	0	507	510	0	0	
9	0	0	0	0	508	513	0	0	
10	0	0	0	0	505	511	0	0	
11	0	0	0	0	504	512	0	0	
12	0	0	0	0	502	510	0	0	
13	0	0	0	0	503	512	0	0	
14	0	0	0	0	503	509	0	0	
15	0	0	0	0	506	509	0	0	
0	0	0	0	0	505	511	0	0	
1	0	0	0	0	507	512	0	0	
2	0	0	0	0	507	511	0	0	
3	0	0	0	0	508	509	0	0	
4	0	0	0	0	513	510	0	0	
5	0	0	0	0	513	509	0	0	
6	0	0	0	0	516	512	0	0	
7	0	0	0	0	518	510	0	0	
8	0	0	0	0	515	511	0	0	
9	0	0	0	0	516	512	0	0	
10	0	0	0	0	511	511	0	0	
11	0	0	0	0	508	511	0	0	
12	0	0	0	0	508	512	0	0	
13	0	0	0	0	506	510	0	0	
14	0	0	0	0	505	511	0	0	
15	0	0	0	0	505	510	0	0	
0	0	0	0	0	504	510	0	0	
1	0	0	0	0	502	510	0	0	
2	0	0	0	0	502	509	0	0	
3	0	0	0	0	504	511	0	0	
4	0	0	0	0	505	510	0	0	
5	0	0	0	0	506	511	0	0	
6	0	0	0	0	505	509	0	0	
7	0	0	0	0	507	510	0	0	
8	0	0	0	0	514	510	0	0	
9	0	0	0	0	515	512	0	0	
10	0	0	0	0	514	512	0	0	
11	0	0	0	0	514	511	0	0	
12	0	0	0	0	516	509	0	0	
13	0	0	0	0	513	512	0	0	
14	0	0	0	0	512	512	0	0	
15	0	0	0	0	511	513	0	0	
0	0	0	0	0	509	511	0	0	
1	0	0	0	0	504	510	0	0	
2	0	0	0	0	504	511	0	0	
3	0	0	0	0	504	510	0	0	
4	0	0	0	0	505	513	0	0	
5	0	0	0	0	503	510	0	0	
6	0	0	0	0	505	511	0	0	
7	0	0	0	0	502	509	0	0	
8	0	0	0	0	505	509	0	0	
9	0	0	0	0	507	510	0	0	
10	0	0	0	0	510	513	0	0	
11	0	0	0	0	509	509	0	0	
12	0	0	0	0	512	510	0	0	
13	0	0	0	0	512	511	0	0	
14	0	0	0	0	511	511	0	0	
15	0	0	0	0	515	510	0	0	
0	0	0	0	0	515	509	0	0	
1	0	0	0	0	515	511	0	0	
2	0	0	0	0	511	511	0	0	
3	0	0	0	0	511	512	0	0	
4	0	0	0	0	509	511	0	0	
5	0	0	0	0	509	512	0	0	
6	0	0	0	0	505	511	0	0	
7	0	0	0	0	503	510	0	0	
8	0	0	0	0	503	510	0	0	
9	0	0	0	0	504	508	0	0	
10	0	0	0	0	500	509	0	0	
11	0	0	0	0	505	510	0	0	
12	0	0	0	0	504	510	0	0	
13	0	0	0	0	506	508	0	0	
14	0	0	0	0	505	509	0	0	
15	0	0	0	0	510	509	0	0	
0	0	0	0	0	510	509	0	0	
1	0	0	0	0	513	511	0	0	
2	0	0	0	0	512	512	0	0	
3	0	0	0	0	515	510	0	0	
4	0	0	0	0	515	513	0	0	
5	0	0	0	0	513	511	0	0	
6	0	0	0	0	513	511	0	0	
7	0	0	0	0	512	511	0	0	
8	0	0	0	0	510	510	0	0	
9	0	0	0	0	504	510	0	0	
10	0	0	0	0	505	512	0	0	
11	0	0	0	0	504	512	0	0	
12	0	0	0	0	504	512	0	0	
13	0	0	0	0	503	511	0	0	
14	0	0	0	0	503	510	0	0	
15	0	0	0	0	504	511	0	0	
0	0	0	0	0	503	510	0	0	
1	0	0	0	0	506	510	0	0	
2	0	0	0	0	509	510	0	0	
3	0	0	0	0	507	512	0	0	
4	0	0	0	0	512	511	0	0	
5	0	0	0	0	513	511	0	0	
6	0	0	0	0	513	512	0	0	
7	0	0	0	0	515	511	0	0	
8	0	0	0	0	514	510	0	0	
9	0	0	0	0	515	510	0	0	
10	0	0	0	0	515	509	0	0	
11	0	0	0	0	509	509	0	0	
12	0	0	0	0	508	512	0	0	
13	0	0	0	0	509	510	0	0	
14	0	0	0	0	506	510	0	0	
15	0	0	0	0	506	511	0	0	
0	0	0	0	0	504	511	0	0	
1	0	0	0	0	502	509	0	0	
2	0	0	0	0	502	510	0	0	
3	0	0	0	0	505	510	0	0	
4	0	0	0	0	504	507	0	0	
5	0	0	0	0	506	510	0	0	
6	0	0	0	0	508	510	0	0	
7	0	0	0	0	509	512	0	0	
8	0	0	0	0	511	510	0	0	
9	0	0	0	0	512	511	0	0	
10	0	0	0	0	514	510	0	0	
11	0	0	0	0	518	512	0	0	
12	0	0	0	0	513	510	0	0	
13	0	0	0	0	514	511	0	0	
14	0	0	0	0	512	511	0	0	
15	0	0	0	0	511	511	0	0	
0	0	0	0	0	508	512	0	0	
1	0	0	0	0	508	510	0	0	
2	0	0	0	0	507	508	0	0	
3	0	0	0	0	503	511	0	0	
4	0	0	0	0	502	511	0	0	
5	0	0	0	0	499	510	0	0	
6	0	0	0	0	500	510	0	0	
7	0	0	0	0	503	510	0	0	
8	0	0	0	0	506	511	0	0	
9	0	0	0	0	506	509	0	0	
10	0	0	0	0	508	511	0	0	
11	0	0	0	0	511	512	0	0	
12	0	0	0	0	513	510	0	0	
13	0	0	0	0	513	510	0	0	
14	0	0	0	0	514	511	0	0	
15	0	0	0	0	514	510	0	0	
0	0	0	0	0	515	511	0	0	
1	0	0	0	0	512	510	0	0	
2	0	0	0	0	512	511	0	0	
3	0	0	0	0	509	509	0	0	
4	0	0	0	0	510	512	0	0	
5	0	0	0	0	508	512	0	0	
6	0	0	0	0	505	509	0	0	
7	0	0	0	0	503	510	0	0	
8	0	0	0	0	505	511	0	0	
9	0	0	0	0	504	511	0	0	
10	0	0	0	0	504	510	0	0	
11	0	0	0	0	503	512	0	0	
12	0	0	0	0	506	511	0	0	
13	0	0	0	0	508	511	0	0	
14	0	0	0	0	505	512	0	0	
15	0	0	0	0	509	508	0	0	
0	0	0	0	0	510	509	0	0	
1	0	0	0	0	512	509	0	0	
2	0	0	0	0	514	507	0	0	
3	0	0	0	0	516	512	0	0	
4	0	0	0	0	516	511	0	0	
5	0	0	0	0	512	510	0	0	
6	0	0	0	0	512	510	0	0	
7	0	0	0	0	511	508	0	0	
8	0	0	0	0	509	512	0	0	
9	0	0	0	0	507	512	0	0	
10	0	0	0	0	505	513	0	0	
11	0	0	0	0	504	512	0	0	
12	0	0	0	0	504	511	0	0	
13	0	0	0	0	504	510	0	0	
14	0	0	0	0	503	510	0	0	
15	0	0	0	0	504	511	0	0	
0	0	0	0	0	505	508	0	0	
1	0	0	0	0	506	508	0	0	
2	0	0	0	0	508	511	0	0	
3	0	0	0	0	509	510	0	0	
4	0	0	0	0	512	511	0	0	
5	0	0	0	0	511	511	0	0	
6	0	0	0	0	512	511	0	0	
7	0	0	0	0	514	511	0	0	
8	0	0	0	0	513	511	0	0	
9	0	0	0	0	514	510	0	0	
10	0	0	0	0	514	512	0	0	
11	0	0	0	0	512	512	0	0	
12	0	0	0	0	509	511	0	0	
13	0	0	0	0	504	511	0	0	
14	0	0	0	0	506	509	0	0	
15	0	0	0	0	504	512	0	0	
0	0	0	0	0	504	508	0	0	
1	0	0	0	0	503	511	0	0	
2	0	0	0	0	501	508	0	0	
3	0	0	0	0	506	510	0	0	
4	0	0	0	0	505	510	0	0	
5	0	0	0	0	507	512	0	0	
6	0	0	0	0	507	510	0	0	
7	0	0	0	0	509	509	0	0	
8	0	0	0	0	511	511	0	0	
9	0	0	0	0	512	508	0	0	
10	0	0	0	0	513	511	0	0	
11	0	0	0	0	516	511	0	0	
12	0	0	0	0	514	513	0	0	
13	0	0	0	0	513	512	0	0	
14	0	0	0	0	511	510	0	0	
15	0	0	0	0	509	510	0	0	
0	0	0	0	0	510	511	0	0	
1	0	0	0	0	508	510	0	0	
2	0	0	0	0	508	509	0	0	
3	0	0	0	0	504	510	0	0	
4	0	0	0	0	504	509	0	0	
5	0	0	0	0	502	511	0	0	
6	0	0	0	0	504	512	0	0	
7	0	0	0	0	505	511	0	0	
8	0	0	0	0	504	509	0	0	
9	0	0	0	0	505	510	0	0	
10	0	0	0	0	505	508	0	0	
11	0	0	0	0	509	510	0	0	
12	0	0	0	0	512	508	0	0	
13	0	0	0	0	512	510	0	0	
14	0	0	0	0	511	510	0	0	
15	0	0	0	0	517	511	0	0	
0	0	0	0	0	516	511	0	0	
1	0	0	0	0	514	512	0	0	
2	0	0	0	0	513	513	0	0	
3	0	0	0	0	509	514	0	0	
4	0	0	0	0	508	511	0	0	
5	0	0	0	0	508	510	0	0	
6	0	0	0	0	506	511	0	0	
7	0	0	0	0	506	511	0	0	
8	0	0	0	0	504	508	0	0	
9	0	0	0	0	503	511	0	0	
10	0	0	0	0	502	510	0	0	
11	0	0	0	0	504	511	0	0	
12	0	0	0	0	506	509	0	0	
13	0	0	0	0	509	509	0	0	
14	0	0	0	0	508	511	0	0	
15	0	0	0	0	508	510	0	0	
0	0	0	0	0	512	512	0	0	
1	0	0	0	0	512	510	0	0	
2	0	0	0	0	514	510	0	0	
3	0	0	0	0	514	510	0	0	
4	0	0	0	0	513	512	0	0	
5	0	0	0	0	511	513	0	0	
6	0	0	0	0	512	512	0	0	
7	0	0	0	0	512	512	0	0	
8	0	0	0	0	509	510	0	0	
9	0	0	0	0	507	512	0	0	
10	0	0	0	0	504	510	0	0	
11	0	0	0	0	506	512	0	0	
12	0	0	0	0	505	511	0	0	
13	0	0	0	0	503	511	0	0	
14	0	0	0	0	502	507	0	0	
15	0	0	0	0	505	510	0	0	
0	0	0	0	0	502	511	0	0	
1	0	0	0	0	507	511	0	0	
2	0	0	0	0	507	508	0	0	
3	0	0	0	0	508	508	0	0	
4	0	0	0	0	512	508	0	0	
5	0	0	0	0	514	509	0	0	
6	0	0	0	0	512	509	0	0	
7	0	0	0	0	514	510	0	0	
8	0	0	0	0	515	512	0	0	
9	0	0	0	0	513	511	0	0	
10	0	0	0	0	512	512	0	0	
11	0	0	0	0	510	511	0	0	
12	0	0	0	0	508	513	0	0	
13	0	0	0	0	506	508	0	0	
14	0	0	0	0	506	510	0	0	
15	0	0	0	0	504	511	0	0	
0	0	0	0	0	503	510	0	0	
1	0	0	0	0	502	511	0	0	
2	0	0	0	0	504	511	0	0	
3	0	0	0	0	505	512	0	0	
4	0	0	0	0	504	511	0	0	
5	0	0	0	0	507	511	0	0	
6	0	0	0	0	505	511	0	0	
7	0	0	0	0	508	510	0	0	
8	0	0	0	0	513	510	0	0	
9	0	0	0	0	512	511	0	0	
10	0	0	0	0	515	511	0	0	
11	0	0	0	0	514	513	0	0	
12	0	0	0	0	515	510	0	0	
13	0	0	0	0	515	511	0	0	
14	0	0	0	0	513	510	0	0	
15	0	0	0	0	510	512	0	0	
0	0	0	0	0	510	509	0	0	
1	0	0	0	0	507	510	0	0	
2	0	0	0	0	504	510	0	0	
3	0	0	0	0	504	509	0	0	
4	0	0	0	0	504	508	0	0	
5	0	0	0	0	502	509	0	0	
6	0	0	0	0	504	509	0	0	
7	0	0	0	0	505	511	0	0	
8	0	0	0	0	504	509	0	0	
9	0	0	0	0	505	507	0	0	
10	0	0	0	0	506	511	0	0	
11	0	0	0	0	508	510	0	0	
12	0	0	0	0	512	511	0	0	
13	0	0	0	0	515	511	0	0	
14	0	0	0	0	515	510	0	0	
15	0	0	0	0	515	513	0	0	
0	0	0	0	0	514	513	0	0	
1	0	0	0	0	512	512	0	0	
2	0	0	0	0	513	510	0	0	
3	0	0	0	0	512	508	0	0	
4	0	0	0	0	510	511	0	0	
5	0	0	0	0	509	509	0	0	
6	0	0	0	0	506	511	0	0	
7	0	0	0	0	504	511	0	0	
8	0	0	0	0	502	511	0	0	
9	0	0	0	0	503	510	0	0	
10	0	0	0	0	502	512	0	0	
11	0	0	0	0	504	511	0	0	
12	0	0	0	0	505	511	0	0	
13	0	0	0	0	504	512	0	0	
14	0	0	0	0	507	510	0	0	
15	0	0	0	0	510	511	0	0	
0	0	0	0	0	513	511	0	0	
1	0	0	0	0	512	508	0	0	
2	0	0	0	0	513	510	0	0	
3	0	0	0	0	514	510	0	0	
4	0	0	0	0	514	511	0	0	
5	0	0	0	0	513	513	0	0	
6	0	0	0	0	515	508	0	0	
7	0	0	0	0	511	511	0	0	
8	0	0	0	0	510	511	0	0	
9	0	0	0	0	508	512	0	0	
10	0	0	0	0	505	510	0	0	
11	0	0	0	0	504	510	0	0	
12	0	0	0	0	504	509	0	0	
13	0	0	0	0	505	510	0	0	
14	0	0	0	0	503	511	0	0	
15	0	0	0	0	504	511	0	0	
0	0	0	0	0	506	511	0	0	
1	0	0	0	0	505	509	0	0	
2	0	0	0	0	505	511	0	0	
3	0	0	0	0	507	509	0	0	
4	0	0	0	0	513	507	0	0	
5	0	0	0	0	512	511	0	0	
6	0	0	0	0	515	511	0	0	
7	0	0	0	0	518	512	0	0	
8	0	0	0	0	515	512	0	0	
9	0	0	0	0	514	510	0	0	
10	0	0	0	0	512	514	0	0	
11	0	0	0	0	509	512	0	0	
12	0	0	0	0	510	511	0	0	
13	0	0	0	0	508	510	0	0	
14	0	0	0	0	504	508	0	0	
15	0	0	0	0	505	510	0	0	
0	0	0	0	0	504	510	0	0	
1	0	0	0	0	503	510	0	0	
2	0	0	0	0	502	512	0	0	
3	0	0	0	0	504	510	0	0	
4	0	0	0	0	505	512	0	0	
5	0	0	0	0	506	511	0	0	
6	0	0	0	0	508	511	0	0	
7	0	0	0	0	508	510	0	0	
8	0	0	0	0	511	511	0	0	
9	0	0	0	0	513	509	0	0	
10	0	0	0	0	513	512	0	0	
11	0	0	0	0	515	511	0	0	
12	0	0	0	0	514	510	0	0	
13	0	0	0	0	513	511	0	0	
14	0	0	0	0	513	509	0	0	
15	0	0	0	0	510	510	0	0	
0	0	0	0	0	509	509	0	0	
1	0	0	0	0	508	508	0	0	
2	0	0	0	0	507	511	0	0	
3	0	0	0	0	502	510	0	0	
4	0	0	0	0	502	509	0	0	
5	0	0	0	0	501	509	0	0	
6	0	0	0	0	501	510	0	0	
7	0	0	0	0	502	511	0	0	
8	0	0	0	0	504	510	0	0	
9	0	0	0	0	507	510	0	0	
10	0	0	0	0	508	512	0	0	
11	0	0	0	0	508	511	0	0	
12	0	0	0	0	512	511	0	0	
13	0	0	0	0	513	513	0	0	
14	0	0	0	0	513	511	0	0	
15	0	0	0	0	514	511	0	0	
0	0	0	0	0	513	511	0	0	
1	0	0	0	0	513	510	0	0	
2	0	0	0	0	513	510	0	0	
3	0	0	0	0	510	510	0	0	
4	0	0	0	0	507	512	0	0	
5	0	0	0	0	508	508	0	0	
6	0	0	0	0	505	511	0	0	
7	0	0	0	0	505	511	0	0	
8	0	0	0	0	503	510	0	0	
9	0	0	0	0	503	508	0	0	
10	0	0	0	0	503	509	0	0	
11	0	0	0	0	503	511	0	0	
12	0	0	0	0	503	510	0	0	
13	0	0	0	0	504	511	0	0	
14	0	0	0	0	509	510	0	0	
15	0	0	0	0	510	510	0	0	
0	0	0	0	0	512	511	0	0	
1	0	0	0	0	513	512	0	0	
2	0	0	0	0	512	508	0	0	
3	0	0	0	0	513	509	0	0	
4	0	0	0	0	513	510	0	0	
5	0	0	0	0	515	510	0	0	
6	0	0	0	0	514	510	0	0	
7	0	0	0	0	510	511	0	0	
8	0	0	0	0	508	510	0	0	
9	0	0	0	0	507	510	0	0	
10	0	0	0	0	504	512	0	0	
11	0	0	0	0	504	510	0	0	
12	0	0	0	0	503	510	0	0	
13	0	0	0	0	504	508	0	0	
14	0	0	0	0	504	508	0	0	
15	0	0	0	0	506	510	0	0	
0	0	0	0	0	504	509	0	0	
1	0	0	0	0	508	510	0	0	
2	0	0	0	0	507	509	0	0	
3	0	0	0	0	510	510	0	0	
4	0	0	0	0	513	510	0	0	
5	0	0	0	0	513	509	0	0	
6	0	0	0	0	512	511	0	0	
7	0	0	0	0	515	511	0	0	
8	0	0	0	0	515	511	0	0	
9	0	0	0	0	512	510	0	0	
10	0	0	0	0	514	511	0	0	
11	0	0	0	0	511	508	0	0	
12	0	0	0	0	508	511	0	0	
13	0	0	0	0	508	512	0	0	
14	0	0	0	0	504	510	0	0	
15	0	0	0	0	504	510	0	0	
0	0	0	0	0	504	512	0	0	
1	0	0	0	0	503	510	0	0	
2	0	0	0	0	504	508	0	0	
3	0	0	0	0	504	511	0	0	
4	0	0	0	0	503	511	0	0	
5	0	0	0	0	506	513	0	0	
6	0	0	0	0	507	513	0	0	
7	0	0	0	0	508	510	0	0	
8	0	0	0	0	513	509	0	0	
9	0	0	0	0	514	510	0	0	
10	0	0	0	0	514	512	0	0	
11	0	0	0	0	515	510	0	0	
12	0	0	0	0	515	508	0	0	
13	0	0	0	0	514	511	0	0	
14	0	0	0	0	512	513	0	0	
15	0	0	0	0	511	513	0	0	
0	0	0	0	0	507	513	0	0	
1	0	0	0	0	505	512	0	0	
2	0	0	0	0	504	511	0	0	
3	0	0	0	0	505	511	0	0	
4	0	0	0	0	503	511	0	0	
5	0	0	0	0	504	510	0	0	
6	0	0	0	0	505	510	0	0	
7	0	0	0	0	501	510	0	0	
8	0	0	0	0	504	510	0	0	
9	0	0	0	0	505	511	0	0	
10	0	0	0	0	507	511	0	0	
11	0	0	0	0	509	509	0	0	
12	0	0	0	0	511	511	0	0	
13	0	0	0	0	513	511	0	0	
14	0	0	0	0	513	510	0	0	
15	0	0	0	0	515	510	0	0	
0	0	0	0	0	514	511	0	0	
1	0	0	0	0	513	514	0	0	
2	0	0	0	0	511	508	0	0	
3	0	0	0	0	512	512	0	0	
4	0	0	0	0	511	511	0	0	
5	0	0	0	0	507	509	0	0	
6	0	0	0	0	506	510	0	0	
7	0	0	0	0	505	509	0	0	
8	0	0	0	0	504	509	0	0	
9	0	0	0	0	503	508	0	0	
10	0	0	0	0	504	509	0	0	
11	0	0	0	0	504	512	0	0	
12	0	0	0	0	502	511	0	0	
13	0	0	0	0	504	510	0	0	
14	0	0	0	0	507	510	0	0	
15	0	0	0	0	508	511	0	0	
0	0	0	0	0	511	511	0	0	
1	0	0	0	0	513	511	0	0	
2	0	0	0	0	512	509	0	0	
3	0	0	0	0	515	511	0	0	
4	0	0	0	0	517	510	0	0	
5	0	0	0	0	515	511	0	0	
6	0	0	0	0	512	511	0	0	
7	0	0	0	0	510	509	0	0	
8	0	0	0	0	508	510	0	0	
9	0	0	0	0	507	510	0	0	
10	0	0	0	0	507	512	0	0	
11	0	0	0	0	505	511	0	0	
12	0	0	0	0	503	510	0	0	
13	0	0	0	0	502	511	0	0	
14	0	0	0	0	504	511	0	0	
15	0	0	0	0	501	509	0	0	
0	0	0	0	0	501	511	0	0	
1	0	0	0	0	507	510	0	0	
2	0	0	0	0	505	511	0	0	
3	0	0	0	0	509	511	0	0	
4	0	0	0	0	513	509	0	0	
5	0	0	0	0	512	511	0	0	
6	0	0	0	0	513	511	0	0	
7	0	0	0	0	513	511	0	0	
8	0	0	0	0	515	510	0	0	
9	0	0	0	0	516	510	0	0	
10	0	0	0	0	512	513	0	0	
11	0	0	0	0	513	512	0	0	
12	0	0	0	0	510	510	0	0	
13	0	0	0	0	507	510	0	0	
14	0	0	0	0	504	506	0	0	
15	0	0	0	0	505	509	0	0	
0	0	0	0	0	504	509	0	0	
1	0	0	0	0	503	511	0	0	
2	0	0	0	0	504	510	0	0	
3	0	0	0	0	505	511	0	0	
4	0	0	0	0	504	510	0	0	
5	0	0	0	0	507	511	0	0	
6	0	0	0	0	508	512	0	0	
7	0	0	0	0	508	513	0	0	
8	0	0	0	0	511	510	0	0	
9	0	0	0	0	511	511	0	0	
10	0	0	0	0	514	510	0	0	
11	0	0	0	0	515	511	0	0	
12	0	0	0	0	514	509	0	0	
13	0	0	0	0	513	511	0	0	
14	0	0	0	0	512	512	0	0	
15	0	0	0	0	510	509	0	0	
0	0	0	0	0	510	509	0	0	
1	0	0	0	0	506	509	0	0	
2	0	0	0	0	505	509	0	0	
3	0	0	0	0	504	511	0	0	
4	0	0	0	0	504	510	0	0	
5	0	0	0	0	502	510	0	0	
6	0	0	0	0	504	510	0	0	
7	0	0	0	0	503	510	0	0	
8	0	0	0	0	504	508	0	0	
9	0	0	0	0	506	509	0	0	
10	0	0	0	0	507	512	0	0	
11	0	0	0	0	509	513	0	0	
12	0	0	0	0	511	513	0	0	
13	0	0	0	0	510	510	0	0	
14	0	0	0	0	513	512	0	0	
15	0	0	0	0	515	510	0	0	
0	0	0	0	0	514	511	0	0	
1	0	0	0	0	513	509	0	0	
2	0	0	0	0	510	509	0	0	
3	0	0	0	0	511	510	0	0	
4	0	0	0	0	511	511	0	0	
5	0	0	0	0	507	512	0	0	
6	0	0	0	0	504	511	0	0	
7	0	0	0	0	505	511	0	0	
8	0	0	0	0	504	511	0	0	
9	0	0	0	0	502	511	0	0	
10	0	0	0	0	501	511	0	0	
11	0	0	0	0	504	511	0	0	
12	0	0	0	0	506	510	0	0	
13	0	0	0	0	507	508	0	0	
14	0	0	0	0	507	509	0	0	
15	0	0	0	0	507	509	0	0	
0	0	0	0	0	512	511	0	0	
1	0	0	0	0	513	512	0	0	
2	0	0	0	0	514	511	0	0	
3	0	0	0	0	515	512	0	0	
4	0	0	0	0	516	511	0	0	
5	0	0	0	0	515	511	0	0	
6	0	0	0	0	510	511	0	0	
7	0	0	0	0	509	510	0	0	
8	0	0	0	0	509	511	0	0	
9	0	0	0	0	509	507	0	0	
10	0	0	0	0	506	509	0	0	
11	0	0	0	0	503	509	0	0	
12	0	0	0	0	505	507	0	0	
13	0	0	0	0	503	511	0	0	
14	0	0	0	0	504	508	0	0	
15	0	0	0	0	504	511	0	0	
0	0	0	0	0	503	508	0	0	
1	0	0	0	0	505	510	0	0	
2	0	0	0	0	508	512	0	0	
3	0	0	0	0	510	509	0	0	
4	0	0	0	0	513	512	0	0	
5	0	0	0	0	512	512	0	0	
6	0	0	0	0	515	513	0	0	
7	0	0	0	0	514	512	0	0	
8	0	0	0	0	514	510	0	0	
9	0	0	0	0	514	510	0	0	
10	0	0	0	0	512	511	0	0	
11	0	0	0	0	511	512	0	0	
12	0	0	0	0	512	511	0	0	
13	0	0	0	0	508	509	0	0	
14	0	0	0	0	504	509	0	0	
15	0	0	0	0	502	509	0	0	
0	0	0	0	0	503	509	0	0	
1	0	0	0	0	503	509	0	0	
2	0	0	0	0	503	510	0	0	
3	0	0	0	0	503	512	0	0	
4	0	0	0	0	505	508	0	0	
5	0	0	0	0	507	510	0	0	
6	0	0	0	0	508	510	0	0	
7	0	0	0	0	509	508	0	0	
8	0	0	0	0	511	509	0	0	
9	0	0	0	0	514	510	0	0	
10	0	0	0	0	513	511	0	0	
11	0	0	0	0	514	512	0	0	
12	0	0	0	0	515	513	0	0	
13	0	0	0	0	514	512	0	0	
14	0	0	0	0	514	512	0	0	
15	0	0	0	0	511	512	0	0	
0	0	0	0	0	508	511	0	0	
1	0	0	0	0	507	512	0	0	
2	0	0	0	0	505	512	0	0	
3	0	0	0	0	502	511	0	0	
4	0	0	0	0	504	511	0	0	
5	0	0	0	0	503	511	0	0	
6	0	0	0	0	502	511	0	0	
7	0	0	0	0	503	511	0	0	
8	0	0	0	0	504	508	0	0	
9	0	0	0	0	506	510	0	0	
10	0	0	0	0	509	510	0	0	
11	0	0	0	0	508	511	0	0	
12	0	0	0	0	513	512	0	0	
13	0	0	0	0	515	509	0	0	
14	0	0	0	0	513	511	0	0	
15	0	0	0	0	516	511	0	0	
0	0	0	0	0	514	510	0	0	
1	0	0	0	0	513	511	0	0	
2	0	0	0	0	508	509	0	0	
3	0	0	0	0	508	511	0	0	
4	0	0	0	0	510	510	0	0	
5	0	0	0	0	508	511	0	0	
6	0	0	0	0	504	513	0	0	
7	0	0	0	0	503	511	0	0	
8	0	0	0	0	503	511	0	0	
9	0	0	0	0	504	510	0	0	
10	0	0	0	0	505	509	0	0	
11	0	0	0	0	507	508	0	0	
12	0	0	0	0	505	508	0	0	
13	0	0	0	0	507	509	0	0	
14	0	0	0	0	506	508	0	0	
15	0	0	0	0	508	510	0	0	
0	0	0	0	0	512	509	0	0	
1	0	0	0	0	512	512	0	0	
2	0	0	0	0	514	511	0	0	
3	0	0	0	0	514	511	0	0	
4	0	0	0	0	515	510	0	0	
5	0	0	0	0	512	511	0	0	
6	0	0	0	0	511	511	0	0	
7	0	0	0	0	510	510	0	0	
8	0	0	0	0	510	509	0	0	
9	0	0	0	0	508	511	0	0	
10	0	0	0	0	504	512	0	0	
11	0	0	0	0	507	510	0	0	
12	0	0	0	0	504	511	0	0	
13	0	0	0	0	502	513	0	0	
14	0	0	0	0	505	510	0	0	
15	0	0	0	0	508	510	0	0	
0	0	0	0	0	504	512	0	0	
1	0	0	0	0	507	510	0	0	
2	0	0	0	0	506	509	0	0	
3	0	0	0	0	509	512	0	0	
4	0	0	0	0	512	511	0	0	
5	0	0	0	0	511	514	0	0	
6	0	0	0	0	513	510	0	0	
7	0	0	0	0	512	510	0	0	
8	0	0	0	0	513	512	0	0	
9	0	0	0	0	513	510	0	0	
10	0	0	0	0	513	511	0	0	
11	0	0	0	0	512	510	0	0	
12	0	0	0	0	508	511	0	0	
13	0	0	0	0	508	509	0	0	
14	0	0	0	0	505	510	0	0	
15	0	0	0	0	506	511	0	0	
0	0	0	0	0	505	509	0	0	
1	0	0	0	0	502	510	0	0	
2	0	0	0	0	501	510	0	0	
3	0	0	0	0	505	512	0	0	
4	0	0	0	0	506	511	0	0	
5	0	0	0	0	506	511	0	0	
6	0	0	0	0	507	512	0	0	
7	0	0	0	0	507	508	0	0	
8	0	0	0	0	511	508	0	0	
9	0	0	0	0	514	509	0	0	
10	0	0	0	0	512	513	0	0	
11	0	0	0	0	513	511	0	0	
12	0	0	0	0	514	512	0	0	
13	0	0	0	0	513	510	0	0	
14	0	0	0	0	511	509	0	0	
15	0	0	0	0	511	512	0	0	
0	0	0	0	0	508	513	0	0	
1	0	0	0	0	509	510	0	0	
2	0	0	0	0	506	509	0	0	
3	0	0	0	0	504	508	0	0	
4	0	0	0	0	504	509	0	0	
5	0	0	0	0	502	512	0	0	
6	0	0	0	0	502	508	0	0	
7	0	0	0	0	504	511	0	0	
8	0	0	0	0	503	511	0	0	
9	0	0	0	0	508	510	0	0	
10	0	0	0	0	506	511	0	0	
11	0	0	0	0	508	511	0	0	
12	0	0	0	0	511	511	0	0	
13	0	0	0	0	513	510	0	0	
14	0	0	0	0	515	513	0	0	
15	0	0	0	0	512	512	0	0	
0	0	0	0	0	513	511	0	0	
1	0	0	0	0	515	511	0	0	
2	0	0	0	0	512	508	0	0	
3	0	0	0	0	510	510	0	0	
4	0	0	0	0	509	511	0	0	
5	0	0	0	0	508	511	0	0	
6	0	0	0	0	504	509	0	0	
7	0	0	0	0	508	510	0	0	
8	0	0	0	0	505	510	0	0	
9	0	0	0	0	503	511	0	0	
10	0	0	0	0	505	512	0	0	
11	0	0	0	0	504	513	0	0	
12	0	0	0	0	505	510	0	0	
13	0	0	0	0	505	510	0	0	
14	0	0	0	0	506	510	0	0	
15	0	0	0	0	509	510	0	0	
0	0	0	0	0	510	511	0	0	
1	0	0	0	0	510	509	0	0	
2	0	0	0	0	513	511	0	0	
3	0	0	0	0	513	510	0	0	
4	0	0	0	0	511	511	0	0	
5	0	0	0	0	512	510	0	0	
6	0	0	0	0	513	512	0	0	
7	0	0	0	0	512	511	0	0	
8	0	0	0	0	511	511	0	0	
9	0	0	0	0	507	510	0	0	
10	0	0	0	0	506	508	0	0	
11	0	0	0	0	504	510	0	0	
12	0	0	0	0	503	510	0	0	
13	0	0	0	0	504	511	0	0	
14	0	0	0	0	504	510	0	0	
15	0	0	0	0	506	512	0	0	
0	0	0	0	0	505	510	0	0	
1	0	0	0	0	507	510	0	0	
2	0	0	0	0	505	511	0	0	
3	0	0	0	0	509	511	0	0	
4	0	0	0	0	513	510	0	0	
5	0	0	0	0	510	509	0	0	
6	0	0	0	0	512	511	0	0	
7	0	0	0	0	515	510	0	0	
8	0	0	0	0	514	511	0	0	
9	0	0	0	0	513	510	0	0	
10	0	0	0	0	511	512	0	0	
11	0	0	0	0	512	512	0	0	
12	0	0	0	0	508	512	0	0	
13	0	0	0	0	509	510	0	0	
14	0	0	0	0	506	512	0	0	
15	0	0	0	0	505	512	0	0	
0	0	0	0	0	504	511	0	0	
1	0	0	0	0	503	508	0	0	
2	0	0	0	0	504	511	0	0	
3	0	0	0	0	503	509	0	0	
4	0	0	0	0	504	510	0	0	
5	0	0	0	0	505	511	0	0	
6	0	0	0	0	504	513	0	0	
7	0	0	0	0	508	511	0	0	
8	0	0	0	0	512	509	0	0	
9	0	0	0	0	513	509	0	0	
10	0	0	0	0	515	508	0	0	
11	0	0	0	0	518	511	0	0	
12	0	0	0	0	515	509	0	0	
13	0	0	0	0	515	508	0	0	
14	0	0	0	0	512	511	0	0	
15	0	0	0	0	512	510	0	0	
0	0	0	0	0	510	512	0	0	
1	0	0	0	0	506	510	0	0	
2	0	0	0	0	503	513	0	0	
3	0	0	0	0	504	510	0	0	
4	0	0	0	0	505	512	0	0	
5	0	0	0	0	502	512	0	0	
6	0	0	0	0	502	509	0	0	
7	0	0	0	0	502	511	0	0	
8	0	0	0	0	503	510	0	0	
9	0	0	0	0	506	511	0	0	
10	0	0	0	0	506	510	0	0	
11	0	0	0	0	509	510	0	0	
12	0	0	0	0	513	511	0	0	
13	0	0	0	0	512	509	0	0	
14	0	0	0	0	512	510	0	0	
15	0	0	0	0	515	512	0	0	
0	0	0	0	0	513	509	0	0	
1	0	0	0	0	514	511	0	0	
2	0	0	0	0	512	511	0	0	
3	0	0	0	0	510	510	0	0	
4	0	0	0	0	508	512	0	0	
5	0	0	0	0	508	512	0	0	
6	0	0	0	0	507	510	0	0	
7	0	0	0	0	504	509	0	0	
8	0	0	0	0	504	510	0	0	
9	0	0	0	0	502	509	0	0	
10	0	0	0	0	502	511	0	0	
11	0	0	0	0	503	509	0	0	
12	0	0	0	0	508	511	0	0	
13	0	0	0	0	510	510	0	0	
14	0	0	0	0	509	510	0	0	
15	0	0	0	0	508	510	0	0	
0	0	0	0	0	512	510	0	0	
1	0	0	0	0	511	509	0	0	
2	0	0	0	0	512	511	0	0	
3	0	0	0	0	514	509	0	0	
4	0	0	0	0	514	509	0	0	
5	0	0	0	0	514	513	0	0	
6	0	0	0	0	514	512	0	0	
7	0	0	0	0	510	512	0	0	
8	0	0	0	0	509	513	0	0	
9	0	0	0	0	508	509	0	0	
10	0	0	0	0	504	511	0	0	
11	0	0	0	0	504	510	0	0	
12	0	0	0	0	504	510	0	0	
13	0	0	0	0	502	509	0	0	
14	0	0	0	0	504	510	0	0	
15	0	0	0	0	504	510	0	0	
0	0	0	0	0	504	510	0	0	
1	0	0	0	0	507	511	0	0	
2	0	0	0	0	506	511	0	0	
3	0	0	0	0	506	511	0	0	
4	0	0	0	0	509	512	0	0	
5	0	0	0	0	511	510	0	0	
6	0	0	0	0	513	511	0	0	
7	0	0	0	0	516	510	0	0	
8	0	0	0	0	515	510	0	0	
9	0	0	0	0	514	511	0	0	
10	0	0	0	0	511	511	0	0	
11	0	0	0	0	511	510	0	0	
12	0	0	0	0	512	511	0	0	
13	0	0	0	0	507	510	0	0	
14	0	0	0	0	505	508	0	0	
15	0	0	0	0	505	511	0	0	
0	0	0	0	0	505	510	0	0	
1	0	0	0	0	503	510	0	0	
2	0	0	0	0	502	508	0	0	
3	0	0	0	0	504	511	0	0	
4	0	0	0	0	503	511	0	0	
5	0	0	0	0	506	513	0	0	
6	0	0	0	0	507	511	0	0	
7	0	0	0	0	510	509	0	0	
8	0	0	0	0	512	510	0	0	
9	0	0	0	0	512	511	0	0	
10	0	0	0	0	511	512	0	0	
11	0	0	0	0	515	512	0	0	
12	0	0	0	0	515	510	0	0	
13	0	0	0	0	516	510	0	0	
14	0	0	0	0	512	511	0	0	
15	0	0	0	0	507	511	0	0	
0	0	0	0	0	508	510	0	0	
1	0	0	0	0	507	509	0	0	
2	0	0	0	0	506	510	0	0	
3	0	0	0	0	507	510	0	0	
4	0	0	0	0	505	511	0	0	
5	0	0	0	0	503	511	0	0	
6	0	0	0	0	503	510	0	0	
7	0	0	0	0	501	510	0	0	
8	0	0	0	0	505	509	0	0	
9	0	0	0	0	505	510	0	0	
10	0	0	0	0	507	511	0	0	
11	0	0	0	0	507	509	0	0	
12	0	0	0	0	511	509	0	0	
13	0	0	0	0	512	508	0	0	
14	0	0	0	0	514	508	0	0	
15	0	0	0	0	515	511	0	0	
0	0	0	0	0	514	510	0	0	
1	0	0	0	0	513	509	0	0	
2	0	0	0	0	513	512	0	0	
3	0	0	0	0	512	513	0	0	
4	0	0	0	0	510	511	0	0	
5	0	0	0	0	509	512	0	0	
6	0	0	0	0	504	512	0	0	
7	0	0	0	0	504	509	0	0	
8	0	0	0	0	503	512	0	0	
9	0	0	0	0	502	512	0	0	
10	0	0	0	0	504	510	0	0	
11	0	0	0	0	503	510	0	0	
12	0	0	0	0	504	511	0	0	
13	0	0	0	0	507	512	0	0	
14	0	0	0	0	508	509	0	0	
15	0	0	0	0	510	512	0	0	
0	0	0	0	0	512	512	0	0	
1	0	0	0	0	513	511	0	0	
2	0	0	0	0	515	511	0	0	
3	0	0	0	0	515	510	0	0	
4	0	0	0	0	513	511	0	0	
5	0	0	0	0	512	507	0	0	
6	0	0	0	0	510	511	0	0	
7	0	0	0	0	508	510	0	0	
8	0	0	0	0	510	513	0	0	
9	0	0	0	0	508	511	0	0	
10	0	0	0	0	505	511	0	0	
11	0	0	0	0	506	511	0	0	
12	0	0	0	0	504	511	0	0	
13	0	0	0	0	502	510	0	0	
14	0	0	0	0	505	510	0	0	
15	0	0	0	0	504	511	0	0	
0	0	0	0	0	503	510	0	0	
1	0	0	0	0	505	511	0	0	
2	0	0	0	0	507	512	0	0	
3	0	0	0	0	509	508	0	0	
4	0	0	0	0	510	510	0	0	
5	0	0	0	0	513	510	0	0	
6	0	0	0	0	514	510	0	0	
7	0	0	0	0	515	509	0	0	
8	0	0	0	0	512	510	0	0	
9	0	0	0	0	516	512	0	0	
10	0	0	0	0	515	509	0	0	
11	0	0	0	0	512	510	0	0	
12	0	0	0	0	508	510	0	0	
13	0	0	0	0	508	510	0	0	
14	0	0	0	0	502	511	0	0	
15	0	0	0	0	507	512	0	0	
0	0	0	0	0	505	511	0	0	
1	0	0	0	0	501	510	0	0	
2	0	0	0	0	503	508	0	0	
3	0	0	0	0	503	509	0	0	
4	0	0	0	0	504	511	0	0	
5	0	0	0	0	504	509	0	0	
6	0	0	0	0	506	511	0	0	
7	0	0	0	0	510	511	0	0	
8	0	0	0	0	511	511	0	0	
9	0	0	0	0	512	511	0	0	
10	0	0	0	0	514	509	0	0	
11	0	0	0	0	516	507	0	0	
12	0	0	0	0	516	510	0	0	
13	0	0	0	0	514	510	0	0	
14	0	0	0	0	515	510	0	0	
15	0	0	0	0	511	511	0	0	
0	0	0	0	0	510	510	0	0	
1	0	0	0	0	508	510	0	0	
2	0	0	0	0	505	512	0	0	
3	0	0	0	0	504	511	0	0	
4	0	0	0	0	503	511	0	0	
5	0	0	0	0	501	511	0	0	
6	0	0	0	0	500	511	0	0	
7	0	0	0	0	504	513	0	0	
8	0	0	0	0	506	511	0	0	
9	0	0	0	0	506	511	0	0	
10	0	0	0	0	508	510	0	0	
11	0	0	0	0	508	510	0	0	
12	0	0	0	0	512	512	0	0	
13	0	0	0	0	511	511	0	0	
14	0	0	0	0	514	511	0	0	
15	0	0	0	0	517	512	0	0	
0	0	0	0	0	515	512	0	0	
1	0	0	0	0	512	510	0	0	
2	0	0	0	0	511	511	0	0	
3	0	0	0	0	509	510	0	0	
4	0	0	0	0	509	509	0	0	
5	0	0	0	0	507	509	0	0	
6	0	0	0	0	505	508	0	0	
7	0	0	0	0	506	508	0	0	
8	0	0	0	0	504	508	0	0	
9	0	0	0	0	503	510	0	0	
10	0	0	0	0	502	510	0	0	
11	0	0	0	0	501	510	0	0	
12	0	0	0	0	502	510	0	0	
13	0	0	0	0	507	511	0	0	
14	0	0	0	0	508	512	0	0	
15	0	0	0	0	510	512	0	0	
0	0	0	0	0	513	511	0	0	
1	0	0	0	0	516	511	0	0	
2	0	0	0	0	513	511	0	0	
3	0	0	0	0	517	510	0	0	
4	0	0	0	0	516	511	0	0	
5	0	0	0	0	514	510	0	0	
6	0	0	0	0	513	510	0	0	
7	0	0	0	0	511	512	0	0	
8	0	0	0	0	508	511	0	0	
9	0	0	0	0	507	509	0	0	
10	0	0	0	0	500	510	0	0	
11	0	0	0	0	499	510	0	0	
12	0	0	0	0	502	511	0	0	
13	0	0	0	0	503	510	0	0	
14	0	0	0	0	504	508	0	0	
15	0	0	0	0	503	512	0	0	
0	0	0	0	0	504	509	0	0	
1	0	0	0	0	506	510	0	0	
2	0	0	0	0	505	510	0	0	
3	0	0	0	0	509	511	0	0	
4	0	0	0	0	514	509	0	0	
5	0	0	0	0	514	512	0	0	
6	0	0	0	0	512	511	0	0	
7	0	0	0	0	516	511	0	0	
8	0	0	0	0	519	511	0	0	
9	0	0	0	0	517	510	0	0	
10	0	0	0	0	515	510	0	0	
11	0	0	0	0	516	510	0	0	
12	0	0	0	0	511	508	0	0	
13	0	0	0	0	510	510	0	0	
14	0	0	0	0	505	512	0	0	
15	0	0	0	0	501	510	0	0	
0	0	0	0	0	503	512	0	0	
1	0	0	0	0	497	509	0	0	
2	0	0	0	0	497	510	0	0	
3	0	0	0	0	500	513	0	0	
4	0	0	0	0	502	512	0	0	
5	0	0	0	0	504	511	0	0	
6	0	0	0	0	502	510	0	0	
7	0	0	0	0	506	508	0	0	
8	0	0	0	0	515	510	0	0	
9	0	0	0	0	517	511	0	0	
10	0	0	0	0	517	510	0	0	
11	0	0	0	0	519	509	0	0	
12	0	0	0	0	519	509	0	0	
13	0	0	0	0	513	510	0	0	
14	0	0	0	0	504	508	0	0	
15	0	0	0	0	502	510	0	0	
0	0	0	0	0	501	512	0	0	
1	0	0	0	0	508	512	0	0	
2	0	0	0	0	510	511	0	0	
3	0	0	0	0	507	517	0	0	
4	0	0	0	0	506	519	0	0	
5	0	0	0	0	502	517	0	0	
6	0	0	0	0	504	514	0	0	
7	0	0	0	0	505	509	0	0	
8	0	0	0	0	510	502	0	0	
9	0	0	0	0	507	497	0	0	
10	0	0	0	0	506	502	0	0	
11	0	0	0	0	513	501	0	0	
12	0	0	0	0	516	504	0	0	
13	0	0	0	0	528	508	0	0	
14	0	0	0	0	523	513	0	0	
15	0	0	0	0	521	515	0	0	
0	0	0	0	0	508	513	0	0	
1	0	0	0	0	486	512	0	0	
2	0	0	0	0	489	514	0	0	
3	0	0	0	0	498	515	0	0	
4	0	0	0	0	511	515	0	0	
5	0	0	0	0	514	513	0	0	
6	0	0	0	0	505	511	0	0	
7	0	0	0	0	514	510	0	0	
8	0	0	0	0	515	512	0	0	
9	0	0	0	0	506	508	0	0	
10	0	0	0	0	506	511	0	0	
11	0	0	0	0	506	510	0	0	
12	0	0	0	0	502	509	0	0	
13	0	0	0	0	502	511	0	0	
14	0	0	0	0	494	513	0	0	
15	0	0	0	0	499	511	0	0	
0	0	0	0	0	508	511	0	0	
1	0	0	0	0	515	509	0	0	
2	0	0	0	0	517	509	0	0	
3	0	0	0	0	518	511	0	0	
4	0	0	0	0	519	511	0	0	
5	0	0	0	0	517	512	0	0	
6	0	0	0	0	519	511	0	0	
7	0	0	0	0	513	511	0	0	
8	0	0	0	0	512	511	0	0	
9	0	0	0	0	508	511	0	0	
10	0	0	0	0	507	510	0	0	
11	0	0	0	0	504	508	0	0	
12	0	0	0	0	504	509	0	0	
13	0	0	0	0	505	509	0	0	
14	0	0	0	0	504	509	0	0	
15	0	0	0	0	505	512	0	0	
0	0	0	0	0	503	511	0	0	
1	0	0	0	0	505	509	0	0	
2	0	0	0	0	512	510	0	0	
3	0	0	0	0	518	510	0	0	
4	0	0	0	0	510	510	0	0	
5	0	0	0	0	509	509	0	0	
6	0	0	0	0	515	511	0	0	
7	0	0	0	0	512	512	0	0	
8	0	0	0	0	508	512	0	0	
9	0	0	0	0	504	512	0	0	
10	0	0	0	0	503	511	0	0	
11	0	0	0	0	498	511	0	0	
12	0	0	0	0	505	511	0	0	
13	0	0	0	0	512	511	0	0	
14	0	0	0	0	511	510	0	0	
15	0	0	0	0	507	510	0	0	
0	0	0	0	0	510	510	0	0	
1	0	0	0	0	507	509	0	0	
2	0	0	0	0	503	512	0	0	
3	0	0	0	0	509	509	0	0	
4	0	0	0	0	504	511	0	0	
5	0	0	0	0	500	511	0	0	
6	0	0	0	0	504	510	0	0	
7	0	0	0	0	506	508	0	0	
8	0	0	0	0	512	510	0	0	
9	0	0	0	0	517	510	0	0	
10	0	0	0	0	518	511	0	0	
11	0	0	0	0	515	513	0	0	
12	0	0	0	0	513	509	0	0	
13	0	0	0	0	512	511	0	0	
14	0	0	0	0	514	511	0	0	
15	0	0	0	0	519	509	0	0	
0	0	0	0	0	520	510	0	0	
1	0	0	0	0	506	512	0	0	
2	0	0	0	0	494	513	0	0	
3	0	0	0	0	486	511	0	0	
4	0	0	0	0	491	511	0	0	
5	0	0	0	0	494	511	0	0	
6	0	0	0	0	510	512	0	0	
7	0	0	0	0	509	511	0	0	
8	0	0	0	0	508	510	0	0	
9	0	0	0	0	508	511	0	0	
10	0	0	0	0	512	510	0	0	
11	0	0	0	0	514	509	0	0	
12	0	0	0	0	515	512	0	0	
13	0	0	0	0	517	510	0	0	
14	0	0	0	0	517	509	0	0	
15	0	0	0	0	520	511	0	0	
0	0	0	0	0	519	511	0	0	
1	0	0	0	0	516	510	0	0	
2	0	0	0	0	515	511	0	0	
3	0	0	0	0	511	514	0	0	
4	0	0	0	0	503	510	0	0	
5	0	0	0	0	497	509	0	0	
6	0	0	0	0	493	508	0	0	
7	0	0	0	0	496	510	0	0	
8	0	0	0	0	497	509	0	0	
9	0	0	0	0	502	508	0	0	
10	0	0	0	0	507	510	0	0	
11	0	0	0	0	504	508	0	0	
12	0	0	0	0	499	510	0	0	
13	0	0	0	0	504	508	0	0	
14	0	0	0	0	507	511	0	0	
15	0	0	0	0	515	513	0	0	
0	0	0	0	0	527	511	0	0	
1	0	0	0	0	523	512	0	0	
2	0	0	0	0	500	512	0	0	
3	0	0	0	0	498	511	0	0	
4	0	0	0	0	509	513	0	0	
5	0	0	0	0	512	513	0	0	
6	0	0	0	0	512	513	0	0	
7	0	0	0	0	518	511	0	0	
8	0	0	0	0	534	512	0	0	
9	0	0	0	0	524	512	0	0	
10	0	0	0	0	515	510	0	0	
11	0	0	0	0	498	508	0	0	
12	0	0	0	0	499	510	0	0	
13	0	0	0	0	496	510	0	0	
14	0	0	0	0	497	510	0	0	
15	0	0	0	0	505	510	0	0	
0	0	0	0	0	511	508	0	0	
1	0	0	0	0	510	509	0	0	
2	0	0	0	0	506	508	0	0	
3	0	0	0	0	504	509	0	0	
4	0	0	0	0	505	511	0	0	
5	0	0	0	0	503	512	0	0	
6	0	0	0	0	500	510	0	0	
7	0	0	0	0	504	513	0	0	
8	0	0	0	0	513	511	0	0	
9	0	0	0	0	515	511	0	0	
10	0	0	0	0	516	511	0	0	
11	0	0	0	0	515	512	0	0	
12	0	0	0	0	515	509	0	0	
13	0	0	0	0	511	508	0	0	
14	0	0	0	0	509	509	0	0	
15	0	0	0	0	507	511	0	0	
0	0	0	0	0	505	509	0	0	
1	0	0	0	0	504	510	0	0	
2	0	0	0	0	501	510	0	0	
3	0	0	0	0	504	509	0	0	
4	0	0	0	0	504	510	0	0	
5	0	0	0	0	507	511	0	0	
6	0	0	0	0	507	510	0	0	
7	0	0	0	0	508	511	0	0	
8	0	0	0	0	512	510	0	0	
9	0	0	0	0	514	511	0	0	
10	0	0	0	0	511	509	0	0	
11	0	0	0	0	518	513	0	0	
12	0	0	0	0	525	512	0	0	
13	0	0	0	0	520	512	0	0	
14	0	0	0	0	513	509	0	0	
15	0	0	0	0	505	512	0	0	
0	0	0	0	0	499	512	0	0	
1	0	0	0	0	495	510	0	0	
2	0	0	0	0	494	513	0	0	
3	0	0	0	0	502	512	0	0	
4	0	0	0	0	506	509	0	0	
5	0	0	0	0	504	511	0	0	
6	0	0	0	0	504	508	0	0	
7	0	0	0	0	505	512	0	0	
8	0	0	0	0	505	513	0	0	
9	0	0	0	0	504	509	0	0	
10	0	0	0	0	505	510	0	0	
11	0	0	0	0	512	508	0	0	
12	0	0	0	0	524	511	0	0	
13	0	0	0	0	511	511	0	0	
14	0	0	0	0	511	509	0	0	
15	0	0	0	0	514	508	0	0	
0	0	0	0	0	513	511	0	0	
1	0	0	0	0	522	512	0	0	
2	0	0	0	0	520	511	0	0	
3	0	0	0	0	509	510	0	0	
4	0	0	0	0	506	510	0	0	
5	0	0	0	0	509	509	0	0	
6	0	0	0	0	504	510	0	0	
7	0	0	0	0	504	509	0	0	
8	0	0	0	0	503	511	0	0	
9	0	0	0	0	492	509	0	0	
10	0	0	0	0	502	511	0	0	
11	0	0	0	0	499	510	0	0	
12	0	0	0	0	507	512	0	0	
13	0	0	0	0	512	511	0	0	
14	0	0	0	0	511	509	0	0	
15	0	0	0	0	506	510	0	0	
0	0	0	0	0	507	510	0	0	
1	0	0	0	0	518	508	0	0	
2	0	0	0	0	512	510	0	0	
3	0	0	0	0	511	509	0	0	
4	0	0	0	0	521	510	0	0	
5	0	0	0	0	536	512	0	0	
6	0	0	0	0	531	511	0	0	
7	0	0	0	0	510	509	0	0	
8	0	0	0	0	500	510	0	0	
9	0	0	0	0	499	511	0	0	
10	0	0	0	0	481	511	0	0	
11	0	0	0	0	479	510	0	0	
12	0	0	0	0	491	510	0	0	
13	0	0	0	0	509	509	0	0	
14	0	0	0	0	505	510	0	0	
15	0	0	0	0	508	511	0	0	
0	0	0	0	0	521	512	0	0	
1	0	0	0	0	516	511	0	0	
2	0	0	0	0	518	511	0	0	
3	0	0	0	0	491	510	0	0	
4	0	0	0	0	492	509	0	0	
5	0	0	0	0	517	511	0	0	
6	0	0	0	0	513	510	0	0	
7	0	0	0	0	499	510	0	0	
8	0	0	0	0	501	511	0	0	
9	0	0	0	0	508	511	0	0	
10	0	0	0	0	521	514	0	0	
11	0	0	0	0	518	512	0	0	
12	0	0	0	0	521	511	0	0	
13	0	0	0	0	519	511	0	0	
14	0	0	0	0	521	513	0	0	
15	0	0	0	0	513	511	0	0	
0	0	0	0	0	506	511	0	0	
1	0	0	0	0	507	510	0	0	
2	0	0	0	0	505	508	0	0	
3	0	0	0	0	521	510	0	0	
4	0	0	0	0	524	509	0	0	
5	0	0	0	0	511	509	0	0	
6	0	0	0	0	507	512	0	0	
7	0	0	0	0	489	509	0	0	
8	0	0	0	0	489	507	0	0	
9	0	0	0	0	492	511	0	0	
10	0	0	0	0	502	514	0	0	
11	0	0	0	0	508	513	0	0	
12	0	0	0	0	511	511	0	0	
13	0	0	0	0	513	509	0	0	
14	0	0	0	0	510	509	0	0	
15	0	0	0	0	507	509	0	0	
0	0	0	0	0	509	508	0	0	
1	0	0	0	0	514	511	0	0	
2	0	0	0	0	511	511	0	0	
3	0	0	0	0	511	510	0	0	
4	0	0	0	0	501	511	0	0	
5	0	0	0	0	527	513	0	0	
6	0	0	0	0	515	511	0	0	
7	0	0	0	0	508	512	0	0	
8	0	0	0	0	501	509	0	0	
9	0	0	0	0	496	508	0	0	
10	0	0	0	0	499	510	0	0	
11	0	0	0	0	495	510	0	0	
12	0	0	0	0	489	508	0	0	
13	0	0	0	0	489	507	0	0	
14	0	0	0	0	517	511	0	0	
15	0	0	0	0	528	510	0	0	
0	0	0	0	0	525	510	0	0	
1	0	0	0	0	543	511	0	0	
2	0	0	0	0	518	511	0	0	
3	0	0	0	0	506	511	0	0	
4	0	0	0	0	507	511	0	0	
5	0	0	0	0	505	510	0	0	
6	0	0	0	0	500	509	0	0	
7	0	0	0	0	500	510	0	0	
8	0	0	0	0	504	510	0	0	
9	0	0	0	0	506	508	0	0	
10	0	0	0	0	498	508	0	0	
11	0	0	0	0	506	511	0	0	
12	0	0	0	0	499	511	0	0	
13	0	0	0	0	511	513	0	0	
14	0	0	0	0	524	512	0	0	
15	0	0	0	0	527	512	0	0	
0	0	0	0	0	527	511	0	0	
1	0	0	0	0	510	510	0	0	
2	0	0	0	0	496	512	0	0	
3	0	0	0	0	486	516	0	0	
4	0	0	0	0	490	514	0	0	
5	0	0	0	0	513	508	0	0	
6	0	0	0	0	536	505	0	0	
7	0	0	0	0	548	514	0	0	
8	0	0	0	0	519	520	0	0	
9	0	0	0	0	503	515	0	0	
10	0	0	0	0	495	515	0	0	
11	0	0	0	0	497	508	0	0	
12	0	0	0	0	510	505	0	0	
13	0	0	0	0	519	500	0	0	
14	0	0	0	0	511	502	0	0	
15	0	0	0	0	510	503	0	0	
0	0	0	0	0	519	508	0	0	
1	0	0	0	0	505	510	0	0	
2	0	0	0	0	493	514	0	0	
3	0	0	0	0	486	511	0	0	
4	0	0	0	0	487	516	0	0	
5	0	0	0	0	502	513	0	0	
6	0	0	0	0	496	515	0	0	
7	0	0	0	0	486	520	0	0	
8	0	0	0	0	511	520	0	0	
9	0	0	0	0	550	510	0	0	
10	0	0	0	0	555	509	0	0	
11	0	0	0	0	551	510	0	0	
12	0	0	0	0	511	494	0	0	
13	0	0	0	0	493	497	0	0	
14	0	0	0	0	504	511	0	0	
15	0	0	0	0	484	509	0	0	
0	0	0	0	0	470	507	0	0	
1	0	0	0	0	467	520	0	0	
2	0	0	0	0	479	525	0	0	
3	0	0	0	0	493	524	0	0	
4	0	0	0	0	491	505	0	0	
5	0	0	0	0	534	507	0	0	
6	0	0	0	0	529	530	0	0	
7	0	0	0	0	533	535	0	0	
8	0	0	0	0	516	526	0	0	
9	0	0	0	0	490	521	0	0	
10	0	0	0	0	511	515	0	0	
11	0	0	0	0	569	496	0	0	
12	0	0	0	0	590	474	0	0	
13	0	0	0	0	556	487	0	0	
14	0	0	0	0	498	483	0	0	
15	0	0	0	0	494	461	0	0	
0	0	0	0	0	487	471	0	0	
1	0	0	0	0	455	492	0	0	
2	0	0	0	0	427	529	3	0	
3	0	0	0	0	430	538	8	0	
4	0	0	0	0	459	533	11	0	
5	0	0	0	0	510	548	14	0	
6	0	0	0	0	507	529	15	0	
7	0	0	0	0	555	513	21	0	
8	0	0	0	0	575	519	23	0	
9	0	0	0	0	539	522	35	0	
10	0	0	0	0	515	513	39	0	
11	0	0	0	0	481	500	44	0	
12	0	0	0	0	511	497	49	0	
13	0	0	0	0	540	504	51	0	
14	0	0	0	0	516	481	54	0	
15	0	0	0	0	503	491	54	0	
0	0	0	0	0	547	525	60	0	
1	0	0	0	0	480	524	63	0	
2	0	0	0	0	471	517	59	0	
3	0	0	0	0	510	519	67	0	
4	0	0	0	0	498	531	69	0	
5	0	0	0	0	550	537	76	0	
6	0	0	0	0	544	529	79	0	
7	0	0	0	0	526	508	82	0	
8	0	0	0	0	480	475	83	0	
9	0	0	0	0	486	451	83	0	
10	0	0	0	0	507	472	89	0	
11	0	0	0	0	515	475	96	0	
12	0	0	0	0	477	499	100	0	
13	0	0	0	0	510	523	109	0	
14	0	0	0	0	543	537	114	0	
15	0	0	0	0	536	535	117	0	
0	0	0	0	0	582	543	130	0	
1	0	0	0	0	474	537	131	0	
2	0	0	0	0	416	515	143	0	
3	0	0	0	0	452	500	148	0	
4	0	0	0	0	522	521	159	0	
5	0	0	0	0	545	516	168	0	
6	0	0	0	0	575	506	176	0	
7	0	0	0	0	506	507	185	0	
8	0	0	0	0	427	527	192	0	
9	0	0	0	0	401	533	197	0	
10	0	0	0	0	450	513	200	0	
11	0	0	0	0	530	499	200	0	
12	0	0	0	0	561	514	204	0	
13	0	0	0	0	550	528	201	0	
14	0	0	0	0	551	509	213	0	
15	0	0	0	0	557	519	225	0	
0	0	0	0	0	532	499	254	0	
1	0	0	0	0	502	491	259	0	
2	0	0	0	0	496	488	268	0	
3	0	0	0	0	521	507	270	0	
4	0	0	0	0	533	479	273	0	
5	0	0	0	0	523	459	276	0	
6	0	0	0	0	420	467	277	0	
7	0	0	0	0	442	494	282	0	
8	0	0	0	0	590	514	284	0	
9	0	0	0	0	539	506	284	0	
10	0	0	0	0	576	515	286	0	
11	0	0	0	0	540	526	288	0	
12	0	0	0	0	528	546	291	0	
13	0	0	0	0	511	571	289	0	
14	0	0	0	0	398	538	292	0	
15	0	0	0	0	302	503	300	0	
0	0	0	0	0	423	492	304	0	
1	0	0	0	0	557	502	311	0	
2	0	0	0	0	640	530	313	0	
3	0	0	0	0	664	548	319	0	
4	0	0	0	0	560	519	323	0	
5	0	0	0	0	470	503	325	0	
6	0	0	0	0	457	489	329	0	
7	0	0	0	0	419	488	335	0	
8	0	0	0	0	445	517	333	0	
9	0	0	0	0	552	545	338	0	
10	0	0	0	0	547	537	342	0	
11	0	0	0	0	543	537	346	0	
12	0	0	0	0	554	516	347	0	
13	0	0	0	0	593	503	350	0	
14	0	0	0	0	539	498	352	0	
15	0	0	0	0	489	498	354	0	
0	0	0	0	0	457	486	354	0	
1	0	0	0	0	412	482	356	0	
2	0	0	0	0	414	514	360	0	
3	0	0	0	0	495	537	360	0	
4	0	0	0	0	529	520	363	0	
5	0	0	0	0	524	498	364	0	
6	0	0	0	0	519	503	363	0	
7	0	0	0	0	532	529	366	0	
8	0	0	0	0	504	513	370	0	
9	0	0	0	0	511	513	371	0	
10	0	0	0	0	496	492	371	0	
11	0	0	0	0	508	477	371	0	
12	0	0	0	0	547	483	374	0	
13	0	0	0	0	573	499	375	0	
14	0	0	0	0	574	500	374	0	
15	0	0	0	0	533	505	374	0	
0	0	0	0	0	520	494	372	0	
1	0	0	0	0	443	496	375	0	
2	0	0	0	0	433	502	378	0	
3	0	0	0	0	449	498	379	0	
4	0	0	0	0	473	508	379	0	
5	0	0	0	0	512	533	380	0	
6	0	0	0	0	492	511	381	0	
7	0	0	0	0	500	514	383	0	
8	0	0	0	0	551	540	389	0	
9	0	0	0	0	583	546	394	0	
10	0	0	0	0	587	549	391	0	
11	0	0	0	0	477	545	393	0	
12	0	0	0	0	452	499	393	0	
13	0	0	0	0	504	472	398	0	
14	0	0	0	0	518	492	397	0	
15	0	0	0	0	518	525	398	0	
0	0	0	0	0	553	521	396	0	
1	0	0	0	0	474	487	395	0	
2	0	0	0	0	451	491	398	0	
3	0	0	0	0	466	500	398	0	
4	0	0	0	0	498	505	401	0	
5	0	0	0	0	593	523	401	0	
6	0	0	0	0	544	532	401	0	
7	0	0	0	0	504	524	405	0	
8	0	0	0	0	520	516	407	0	
9	0	0	0	0	512	519	407	0	
10	0	0	0	0	497	526	408	0	
11	0	0	0	0	504	516	410	0	
12	0	0	0	0	518	521	410	0	
13	0	0	0	0	515	524	412	0	
14	0	0	0	0	494	507	413	0	
15	0	0	0	0	498	497	412	0	
0	0	0	0	0	485	514	413	0	
1	0	0	0	0	487	525	417	0	
2	0	0	0	0	491	527	417	0	
3	0	0	0	0	507	520	418	0	
4	0	0	0	0	528	519	420	0	
5	0	0	0	0	547	508	420	0	
6	0	0	0	0	535	491	419	0	
7	0	0	0	0	512	475	421	0	
8	0	0	0	0	502	457	422	0	
9	0	0	0	0	505	489	423	0	
10	0	0	0	0	507	516	429	0	
11	0	0	0	0	477	515	432	0	
12	0	0	0	0	466	519	434	0	
13	0	0	0	0	493	528	436	0	
14	0	0	0	0	515	518	441	0	
15	0	0	0	0	540	525	443	0	
0	0	0	0	0	543	514	441	0	
1	0	0	0	0	528	481	442	0	
2	0	0	0	0	521	483	446	0	
3	0	0	0	0	521	515	446	0	
4	0	0	0	0	503	511	442	0	
5	0	0	0	0	480	484	441	0	
6	0	0	0	0	468	483	444	0	
7	0	0	0	0	504	499	447	0	
8	0	0	0	0	482	507	447	0	
9	0	0	0	0	500	519	447	0	
10	0	0	0	0	528	522	449	0	
11	0	0	0	0	540	533	447	0	
12	0	0	0	0	519	521	449	0	
13	0	0	0	0	518	496	452	0	
14	0	0	0	0	511	470	449	0	
15	0	0	0	0	480	496	451	0	
0	0	0	0	0	515	543	447	0	
1	0	0	0	0	496	568	445	0	
2	0	0	0	0	489	542	447	0	
3	0	0	0	0	498	522	442	0	
4	0	0	0	0	506	531	439	0	
5	0	0	0	0	502	527	440	0	
6	0	0	0	0	535	511	441	0	
7	0	0	0	0	528	466	439	0	
8	0	0	0	0	478	487	438	0	
9	0	0	0	0	477	497	440	0	
10	0	0	0	0	531	515	443	0	
11	0	0	0	0	531	520	443	0	
12	0	0	0	0	515	508	442	0	
13	0	0	0	0	525	505	444	0	
14	0	0	0	0	524	513	441	0	
15	0	0	0	0	532	515	440	0	
0	0	0	0	0	519	521	440	0	
1	0	0	0	0	529	529	437	0	
2	0	0	0	0	504	516	436	0	
3	0	0	0	0	507	518	433	0	
4	0	0	0	0	470	516	435	0	
5	0	0	0	0	530	512	435	0	
6	0	0	0	0	513	507	434	0	
7	0	0	0	0	467	495	435	0	
8	0	0	0	0	455	491	431	0	
9	0	0	0	0	488	511	433	0	
10	0	0	0	0	504	532	432	0	
11	0	0	0	0	509	515	430	0	
12	0	0	0	0	524	503	432	0	
13	0	0	0	0	527	506	434	0	
14	0	0	0	0	535	508	430	0	
15	0	0	0	0	508	509	427	0	
0	0	0	0	0	487	510	431	0	
1	0	0	0	0	515	505	429	0	
2	0	0	0	0	523	516	429	0	
3	0	0	0	0	519	508	428	0	
4	0	0	0	0	511	501	426	0	
5	0	0	0	0	535	506	426	0	
6	0	0	0	0	509	504	427	0	
7	0	0	0	0	488	504	427	0	
8	0	0	0	0	496	513	423	0	
9	0	0	0	0	540	516	423	0	
10	0	0	0	0	542	513	425	0	
11	0	0	0	0	523	515	424	0	
12	0	0	0	0	504	518	424	0	
13	0	0	0	0	486	519	424	0	
14	0	0	0	0	445	504	420	0	
15	0	0	0	0	460	498	419	0	
0	0	0	0	0	476	508	423	0	
1	0	0	0	0	567	526	419	0	
2	0	0	0	0	572	536	421	0	
3	0	0	0	0	548	531	420	0	
4	0	0	0	0	497	512	416	0	
5	0	0	0	0	486	496	417	0	
6	0	0	0	0	453	493	419	0	
7	0	0	0	0	428	491	419	0	
8	0	0	0	0	475	487	418	0	
9	0	0	0	0	510	495	419	0	
10	0	0	0	0	518	492	417	0	
11	0	0	0	0	540	501	417	0	
12	0	0	0	0	517	510	417	0	
13	0	0	0	0	529	520	414	0	
14	0	0	0	0	538	528	416	0	
15	0	0	0	0	555	536	416	0	
0	0	0	0	0	515	523	415	0	
1	0	0	0	0	505	516	414	0	
2	0	0	0	0	510	504	412	0	
3	0	0	0	0	512	495	413	0	
4	0	0	0	0	499	500	412	0	
5	0	0	0	0	498	510	412	0	
6	0	0	0	0	515	511	415	0	
7	0	0	0	0	513	515	415	0	
8	0	0	0	0	510	507	416	0	
9	0	0	0	0	500	508	418	0	
10	0	0	0	0	474	519	418	0	
11	0	0	0	0	504	509	417	0	
12	0	0	0	0	499	501	417	0	
13	0	0	0	0	502	503	416	0	
14	0	0	0	0	488	516	415	0	
15	0	0	0	0	513	527	415	0	
0	0	0	0	0	558	540	415	0	
1	0	0	0	0	566	527	414	0	
2	0	0	0	0	516	498	414	0	
3	0	0	0	0	514	489	415	0	
4	0	0	0	0	519	507	414	0	
5	0	0	0	0	504	539	415	0	
6	0	0	0	0	487	527	414	0	
7	0	0	0	0	477	491	414	0	
8	0	0	0	0	465	483	412	0	
9	0	0	0	0	499	512	411	0	
10	0	0	0	0	498	531	412	0	
11	0	0	0	0	556	541	412	0	
12	0	0	0	0	542	518	410	0	
13	0	0	0	0	531	500	409	0	
14	0	0	0	0	511	483	408	0	
15	0	0	0	0	518	489	409	0	
0	0	0	0	0	475	521	410	0	
1	0	0	0	0	443	507	409	0	
2	0	0	0	0	506	502	408	0	
3	0	0	0	0	538	518	408	0	
4	0	0	0	0	545	520	406	0	
5	0	0	0	0	469	503	408	0	
6	0	0	0	0	416	485	408	0	
7	0	0	0	0	485	493	410	0	
8	0	0	0	0	530	508	412	0	
9	0	0	0	0	535	515	413	0	
10	0	0	0	0	518	507	414	0	
11	0	0	0	0	508	511	412	0	
12	0	0	0	0	543	513	410	0	
13	0	0	0	0	536	515	409	0	
14	0	0	0	0	531	518	411	0	
15	0	0	0	0	531	512	411	0	
0	0	0	0	0	535	509	410	0	
1	0	0	0	0	517	510	412	0	
2	0	0	0	0	527	516	412	0	
3	0	0	0	0	516	521	411	0	
4	0	0	0	0	449	519	410	0	
5	0	0	0	0	465	515	409	0	
6	0	0	0	0	490	509	406	0	
7	0	0	0	0	527	514	405	0	
8	0	0	0	0	531	509	405	0	
9	0	0	0	0	494	500	403	0	
10	0	0	0	0	494	523	401	0	
11	0	0	0	0	493	535	400	0	
12	0	0	0	0	498	525	399	0	
13	0	0	0	0	512	515	399	0	
14	0	0	0	0	543	503	399	0	
15	0	0	0	0	510	491	399	0	
0	0	0	0	0	497	485	400	0	
1	0	0	0	0	505	500	400	0	
2	0	0	0	0	513	513	398	0	
3	0	0	0	0	491	511	397	0	
4	0	0	0	0	483	508	395	0	
5	0	0	0	0	494	509	396	0	
6	0	0	0	0	519	497	395	0	
7	0	0	0	0	529	495	394	0	
8	0	0	0	0	540	508	391	0	
9	0	0	0	0	532	512	390	0	
10	0	0	0	0	492	507	389	0	
11	0	0	0	0	492	510	390	0	
12	0	0	0	0	504	515	388	0	
13	0	0	0	0	534	511	387	0	
14	0	0	0	0	547	519	388	0	
15	0	0	0	0	526	516	388	0	
0	0	0	0	0	487	518	388	0	
1	0	0	0	0	491	520	386	0	
2	0	0	0	0	527	519	384	0	
3	0	0	0	0	507	512	383	0	
4	0	0	0	0	491	504	379	0	
5	0	0	0	0	461	500	380	0	
6	0	0	0	0	457	511	383	0	
7	0	0	0	0	469	513	381	0	
8	0	0	0	0	519	507	384	0	
9	0	0	0	0	514	504	383	0	
10	0	0	0	0	522	515	380	0	
11	0	0	0	0	550	533	380	0	
12	0	0	0	0	554	522	379	0	
13	0	0	0	0	519	502	377	0	
14	0	0	0	0	506	495	376	0	
15	0	0	0	0	516	515	376	0	
0	0	0	0	0	514	531	376	0	
1	0	0	0	0	531	531	377	0	
2	0	0	0	0	516	523	375	0	
3	0	0	0	0	489	518	373	0	
4	0	0	0	0	492	502	375	0	
5	0	0	0	0	474	476	375	0	
6	0	0	0	0	451	468	376	0	
7	0	0	0	0	497	488	377	0	
8	0	0	0	0	568	499	379	0	
9	0	0	0	0	551	514	379	0	
10	0	0	0	0	491	515	376	0	
11	0	0	0	0	495	510	376	0	
12	0	0	0	0	505	508	376	0	
13	0	0	0	0	505	532	377	0	
14	0	0	0	0	512	560	376	0	
15	0	0	0	0	502	540	376	0	
0	0	0	0	0	518	521	377	0	
1	0	0	0	0	526	512	376	0	
2	0	0	0	0	520	487	378	0	
3	0	0	0	0	541	486	377	0	
4	0	0	0	0	513	498	376	0	
5	0	0	0	0	496	496	375	0	
6	0	0	0	0	484	504	372	0	
7	0	0	0	0	489	518	376	0	
8	0	0	0	0	527	513	373	0	
9	0	0	0	0	535	513	373	0	
10	0	0	0	0	517	519	376	0	
11	0	0	0	0	484	511	376	0	
12	0	0	0	0	477	498	372	0	
13	0	0	0	0	491	496	376	0	
14	0	0	0	0	510	528	374	0	
15	0	0	0	0	542	531	376	0	
0	0	0	0	0	540	536	376	0	
1	0	0	0	0	548	523	375	0	
2	0	0	0	0	551	508	373	0	
3	0	0	0	0	447	486	373	0	
4	0	0	0	0	466	485	375	0	
5	0	0	0	0	504	498	374	0	
6	0	0	0	0	495	502	373	0	
7	0	0	0	0	463	501	375	0	
8	0	0	0	0	488	514	378	0	
9	0	0	0	0	534	514	378	0	
10	0	0	0	0	530	512	373	0	
11	0	0	0	0	506	511	373	0	
12	0	0	0	0	499	513	375	0	
13	0	0	0	0	529	515	377	0	
14	0	0	0	0	518	511	379	0	
15	0	0	0	0	490	491	377	0	
0	0	0	0	0	504	483	372	0	
1	0	0	0	0	493	493	372	0	
2	0	0	0	0	486	510	372	0	
3	0	0	0	0	512	526	372	0	
4	0	0	0	0	509	510	373	0	
5	0	0	0	0	501	504	371	0	
6	0	0	0	0	518	512	375	0	
7	0	0	0	0	554	532	378	0	
8	0	0	0	0	542	527	375	0	
9	0	0	0	0	533	535	375	0	
10	0	0	0	0	511	515	377	0	
11	0	0	0	0	517	500	379	0	
12	0	0	0	0	507	497	380	0	
13	0	0	0	0	485	511	378	0	
14	0	0	0	0	488	513	380	0	
15	0	0	0	0	527	518	379	0	
0	0	0	0	0	533	511	380	0	
1	0	0	0	0	503	513	384	0	
2	0	0	0	0	487	520	379	0	
3	0	0	0	0	486	519	377	0	
4	0	0	0	0	456	505	378	0	
5	0	0	0	0	480	512	377	0	
6	0	0	0	0	552	525	379	0	
7	0	0	0	0	508	516	381	0	
8	0	0	0	0	477	516	381	0	
9	0	0	0	0	528	514	382	0	
10	0	0	0	0	529	511	379	0	
11	0	0	0	0	526	502	380	0	
12	0	0	0	0	531	507	379	0	
13	0	0	0	0	487	512	377	0	
14	0	0	0	0	471	508	376	0	
15	0	0	0	0	508	511	375	0	
0	0	0	0	0	522	511	374	0	
1	0	0	0	0	509	505	376	0	
2	0	0	0	0	502	506	373	0	
3	0	0	0	0	514	503	372	0	
4	0	0	0	0	522	506	372	0	
5	0	0	0	0	507	502	370	0	
6	0	0	0	0	513	492	371	0	
7	0	0	0	0	515	490	370	0	
8	0	0	0	0	489	508	369	0	
9	0	0	0	0	524	526	369	0	
10	0	0	0	0	532	521	369	0	
11	0	0	0	0	527	528	371	0	
12	0	0	0	0	536	527	371	0	
13	0	0	0	0	514	540	371	0	
14	0	0	0	0	496	531	371	0	
15	0	0	0	0	465	506	371	0	
0	0	0	0	0	485	493	372	0	
1	0	0	0	0	507	483	372	0	
2	0	0	0	0	523	476	373	0	
3	0	0	0	0	517	495	372	0	
4	0	0	0	0	495	496	372	0	
5	0	0	0	0	487	504	372	0	
6	0	0	0	0	515	519	374	0	
7	0	0	0	0	499	539	375	0	
8	0	0	0	0	507	561	375	0	
9	0	0	0	0	519	559	375	0	
10	0	0	0	0	528	526	375	0	
11	0	0	0	0	526	515	375	0	
12	0	0	0	0	519	496	378	0	
13	0	0	0	0	507	474	378	0	
14	0	0	0	0	509	484	379	0	
15	0	0	0	0	490	475	381	0	
0	0	0	0	0	516	495	382	0	
1	0	0	0	0	500	495	382	0	
2	0	0	0	0	496	515	383	0	
3	0	0	0	0	491	524	383	0	
4	0	0	0	0	519	514	382	0	
5	0	0	0	0	532	503	382	0	
6	0	0	0	0	544	509	382	0	
7	0	0	0	0	533	496	383	0	
8	0	0	0	0	499	481	384	0	
9	0	0	0	0	473	487	384	0	
10	0	0	0	0	489	516	383	0	
11	0	0	0	0	490	526	383	0	
12	0	0	0	0	457	526	382	0	
13	0	0	0	0	447	520	381	0	
14	0	0	0	0	534	519	380	0	
15	0	0	0	0	521	515	382	0	
0	0	0	0	0	502	511	383	0	
1	0	0	0	0	536	521	383	0	
2	0	0	0	0	517	519	383	0	
3	0	0	0	0	524	524	385	0	
4	0	0	0	0	515	523	385	0	
5	0	0	0	0	492	521	384	0	
6	0	0	0	0	496	514	382	0	
7	0	0	0	0	547	507	382	0	
8	0	0	0	0	585	502	381	0	
9	0	0	0	0	547	517	381	0	
10	0	0	0	0	517	513	381	0	
11	0	0	0	0	508	528	378	0	
12	0	0	0	0	486	520	377	0	
13	0	0	0	0	471	518	379	0	
14	0	0	0	0	422	493	379	0	
15	0	0	0	0	484	499	381	0	
0	0	0	0	0	513	503	382	0	
1	0	0	0	0	528	484	383	0	
2	0	0	0	0	537	488	383	0	
3	0	0	0	0	532	495	383	0	
4	0	0	0	0	530	505	382	0	
5	0	0	0	0	509	509	381	0	
6	0	0	0	0	484	513	381	0	
7	0	0	0	0	506	510	383	0	
8	0	0	0	0	539	526	382	0	
9	0	0	0	0	499	513	382	0	
10	0	0	0	0	459	505	384	0	
11	0	0	0	0	472	507	385	0	
12	0	0	0	0	528	513	384	0	
13	0	0	0	0	562	518	383	0	
14	0	0	0	0	548	518	382	0	
15	0	0	0	0	529	510	382	0	
0	0	0	0	0	496	515	384	0	
1	0	0	0	0	449	524	384	0	
2	0	0	0	0	471	520	386	0	
3	0	0	0	0	464	517	385	0	
4	0	0	0	0	496	519	385	0	
5	0	0	0	0	524	520	387	0	
6	0	0	0	0	501	511	384	0	
7	0	0	0	0	529	511	382	0	
8	0	0	0	0	528	502	383	0	
9	0	0	0	0	524	502	382	0	
10	0	0	0	0	516	507	384	0	
11	0	0	0	0	518	510	386	0	
12	0	0	0	0	513	501	384	0	
13	0	0	0	0	519	496	385	0	
14	0	0	0	0	525	489	386	0	
15	0	0	0	0	514	515	388	0	
0	0	0	0	0	507	535	387	0	
1	0	0	0	0	486	520	385	0	
2	0	0	0	0	516	514	385	0	
3	0	0	0	0	543	515	387	0	
4	0	0	0	0	574	527	386	0	
5	0	0	0	0	460	522	385	0	
6	0	0	0	0	469	503	386	0	
7	0	0	0	0	476	498	386	0	
8	0	0	0	0	504	499	387	0	
9	0	0	0	0	523	527	388	0	
10	0	0	0	0	550	529	388	0	
11	0	0	0	0	499	514	390	0	
12	0	0	0	0	452	503	390	0	
13	0	0	0	0	465	484	391	0	
14	0	0	0	0	521	473	391	0	
15	0	0	0	0	520	472	393	0	
0	0	0	0	0	515	501	394	0	
1	0	0	0	0	522	504	394	0	
2	0	0	0	0	512	517	395	0	
3	0	0	0	0	508	531	396	0	
4	0	0	0	0	529	536	396	0	
5	0	0	0	0	543	522	397	0	
6	0	0	0	0	544	521	398	0	
7	0	0	0	0	539	519	398	0	
8	0	0	0	0	488	497	398	0	
9	0	0	0	0	469	492	397	0	
10	0	0	0	0	461	501	398	0	
11	0	0	0	0	463	511	398	0	
12	0	0	0	0	489	511	397	0	
13	0	0	0	0	523	508	398	0	
14	0	0	0	0	529	515	397	0	
15	0	0	0	0	510	505	396	0	
0	0	0	0	0	529	505	398	0	
1	0	0	0	0	532	508	398	0	
2	0	0	0	0	530	510	397	0	
3	0	0	0	0	488	517	398	0	
4	0	0	0	0	499	514	398	0	
5	0	0	0	0	523	508	398	0	
6	0	0	0	0	521	496	399	0	
7	0	0	0	0	481	495	396	0	
8	0	0	0	0	499	504	396	0	
9	0	0	0	0	500	500	396	0	
10	0	0	0	0	518	520	395	0	
11	0	0	0	0	484	534	395	0	
12	0	0	0	0	477	531	394	0	
13	0	0	0	0	505	521	395	0	
14	0	0	0	0	531	522	394	0	
15	0	0	0	0	526	512	395	0	
0	0	0	0	0	519	516	396	0	
1	0	0	0	0	489	512	396	0	
2	0	0	0	0	511	519	394	0	
3	0	0	0	0	539	516	395	0	
4	0	0	0	0	556	505	395	0	
5	0	0	0	0	507	519	395	0	
6	0	0	0	0	502	501	394	0	
7	0	0	0	0	479	511	394	0	
8	0	0	0	0	457	519	392	0	
9	0	0	0	0	483	515	392	0	
10	0	0	0	0	526	508	393	0	
11	0	0	0	0	530	506	395	0	
12	0	0	0	0	524	531	393	0	
13	0	0	0	0	534	519	392	0	
14	0	0	0	0	528	508	392	0	
15	0	0	0	0	531	487	392	0	
0	0	0	0	0	521	486	393	0	
1	0	0	0	0	466	489	393	0	
2	0	0	0	0	471	506	393	0	
3	0	0	0	0	476	517	393	0	
4	0	0	0	0	505	516	390	0	
5	0	0	0	0	530	513	389	0	
6	0	0	0	0	494	503	389	0	
7	0	0	0	0	504	495	390	0	
8	0	0	0	0	495	508	390	0	
9	0	0	0	0	521	528	390	0	
10	0	0	0	0	526	540	390	0	
11	0	0	0	0	503	530	389	0	
12	0	0	0	0	514	518	388	0	
13	0	0	0	0	532	517	387	0	
14	0	0	0	0	520	505	388	0	
15	0	0	0	0	523	500	390	0	
0	0	0	0	0	496	491	390	0	
1	0	0	0	0	482	491	389	0	
2	0	0	0	0	503	508	389	0	
3	0	0	0	0	537	524	389	0	
4	0	0	0	0	529	523	389	0	
5	0	0	0	0	528	508	388	0	
6	0	0	0	0	515	508	388	0	
7	0	0	0	0	557	515	389	0	
8	0	0	0	0	496	513	391	0	
9	0	0	0	0	435	516	391	0	
10	0	0	0	0	480	514	391	0	
11	0	0	0	0	501	520	391	0	
12	0	0	0	0	507	515	390	0	
13	0	0	0	0	531	515	390	0	
14	0	0	0	0	485	487	390	0	
15	0	0	0	0	471	483	391	0	
0	0	0	0	0	507	480	390	0	
1	0	0	0	0	531	484	390	0	
2	0	0	0	0	528	505	390	0	
3	0	0	0	0	556	510	389	0	
4	0	0	0	0	526	523	389	0	
5	0	0	0	0	515	525	391	0	
6	0	0	0	0	552	527	391	0	
7	0	0	0	0	557	525	393	0	
8	0	0	0	0	462	512	392	0	
9	0	0	0	0	436	515	392	0	
10	0	0	0	0	446	534	393	0	
11	0	0	0	0	464	511	393	0	
12	0	0	0	0	491	496	394	0	
13	0	0	0	0	520	501	395	0	
14	0	0	0	0	540	505	394	0	
15	0	0	0	0	515	488	393	0	
0	0	0	0	0	504	510	393	0	
1	0	0	0	0	505	527	392	0	
2	0	0	0	0	540	524	390	0	
3	0	0	0	0	560	521	392	0	
4	0	0	0	0	546	541	390	0	
5	0	0	0	0	503	534	389	0	
6	0	0	0	0	473	521	388	0	
7	0	0	0	0	493	506	388	0	
8	0	0	0	0	506	487	390	0	
9	0	0	0	0	496	483	390	0	
10	0	0	0	0	448	491	389	0	
11	0	0	0	0	472	485	387	0	
12	0	0	0	0	507	465	388	0	
13	0	0	0	0	547	492	387	0	
14	0	0	0	0	571	532	385	0	
15	0	0	0	0	510	535	387	0	
0	0	0	0	0	514	530	386	0	
1	0	0	0	0	516	519	386	0	
2	0	0	0	0	513	520	386	0	
3	0	0	0	0	519	536	386	0	
4	0	0	0	0	497	529	387	0	
5	0	0	0	0	513	520	384	0	
6	0	0	0	0	488	502	383	0	
7	0	0	0	0	501	499	383	0	
8	0	0	0	0	559	504	383	0	
9	0	0	0	0	527	503	383	0	
10	0	0	0	0	506	519	382	0	
11	0	0	0	0	517	532	381	0	
12	0	0	0	0	504	522	381	0	
13	0	0	0	0	455	511	381	0	
14	0	0	0	0	456	495	381	0	
15	0	0	0	0	483	489	380	0	
0	0	0	0	0	518	494	378	0	
1	0	0	0	0	547	492	377	0	
2	0	0	0	0	549	500	376	0	
3	0	0	0	0	505	508	375	0	
4	0	0	0	0	496	529	375	0	
5	0	0	0	0	479	514	376	0	
6	0	0	0	0	459	489	376	0	
7	0	0	0	0	502	494	376	0	
8	0	0	0	0	491	493	377	0	
9	0	0	0	0	502	500	377	0	
10	0	0	0	0	512	506	376	0	
11	0	0	0	0	528	517	376	0	
12	0	0	0	0	536	513	375	0	
13	0	0	0	0	561	547	374	0	
14	0	0	0	0	586	543	374	0	
15	0	0	0	0	536	526	374	0	
0	0	0	0	0	545	528	373	0	
1	0	0	0	0	496	526	374	0	
2	0	0	0	0	437	517	375	0	
3	0	0	0	0	439	526	374	0	
4	0	0	0	0	490	522	376	0	
5	0	0	0	0	515	510	376	0	
6	0	0	0	0	547	505	378	0	
7	0	0	0	0	503	501	378	0	
8	0	0	0	0	494	501	376	0	
9	0	0	0	0	498	503	376	0	
10	0	0	0	0	465	496	374	0	
11	0	0	0	0	515	517	373	0	
12	0	0	0	0	530	545	375	0	
13	0	0	0	0	540	527	375	0	
14	0	0	0	0	540	507	374	0	
15	0	0	0	0	492	492	374	0	
0	0	0	0	0	481	481	374	0	
1	0	0	0	0	502	466	373	0	
2	0	0	0	0	487	463	373	0	
3	0	0	0	0	479	473	371	0	
4	0	0	0	0	513	480	373	0	
5	0	0	0	0	517	505	373	0	
6	0	0	0	0	500	536	374	0	
7	0	0	0	0	539	548	376	0	
8	0	0	0	0	548	541	375	0	
9	0	0	0	0	575	540	374	0	
10	0	0	0	0	546	527	374	0	
11	0	0	0	0	514	504	374	0	
12	0	0	0	0	475	503	374	0	
13	0	0	0	0	426	520	372	0	
14	0	0	0	0	448	518	373	0	
15	0	0	0	0	501	505	373	0	
0	0	0	0	0	548	509	374	0	
1	0	0	0	0	530	515	375	0	
2	0	0	0	0	534	504	375	0	
3	0	0	0	0	547	500	375	0	
4	0	0	0	0	509	498	376	0	
5	0	0	0	0	480	499	377	0	
6	0	0	0	0	499	519	376	0	
7	0	0	0	0	493	537	376	0	
8	0	0	0	0	484	552	378	0	
9	0	0	0	0	541	541	379	0	
10	0	0	0	0	545	517	380	0	
11	0	0	0	0	536	499	382	0	
12	0	0	0	0	530	483	383	0	
13	0	0	0	0	480	485	383	0	
14	0	0	0	0	447	481	383	0	
15	0	0	0	0	480	499	384	0	
0	0	0	0	0	496	513	384	0	
1	0	0	0	0	498	527	384	0	
2	0	0	0	0	485	529	383	0	
3	0	0	0	0	497	522	383	0	
4	0	0	0	0	537	510	383	0	
5	0	0	0	0	528	498	384	0	
6	0	0	0	0	534	511	382	0	
7	0	0	0	0	532	500	380	0	
8	0	0	0	0	515	487	384	0	
9	0	0	0	0	519	488	385	0	
10	0	0	0	0	515	503	385	0	
11	0	0	0	0	478	495	385	0	
12	0	0	0	0	479	498	384	0	
13	0	0	0	0	503	505	385	0	
14	0	0	0	0	516	508	385	0	
15	0	0	0	0	539	527	385	0	
0	0	0	0	0	547	536	384	0	
1	0	0	0	0	500	523	382	0	
2	0	0	0	0	495	516	383	0	
3	0	0	0	0	511	517	384	0	
4	0	0	0	0	514	511	384	0	
5	0	0	0	0	466	518	384	0	
6	0	0	0	0	480	519	383	0	
7	0	0	0	0	516	507	385	0	
8	0	0	0	0	515	529	384	0	
9	0	0	0	0	505	540	385	0	
10	0	0	0	0	505	530	385	0	
11	0	0	0	0	517	498	384	0	
12	0	0	0	0	519	483	382	0	
13	0	0	0	0	481	478	381	0	
14	0	0	0	0	523	521	380	0	
15	0	0	0	0	518	519	381	0	
0	0	0	0	0	496	502	381	0	
1	0	0	0	0	508	504	383	0	
2	0	0	0	0	551	523	383	0	
3	0	0	0	0	560	523	382	0	
4	0	0	0	0	527	515	380	0	
5	0	0	0	0	519	509	382	0	
6	0	0	0	0	499	507	381	0	
7	0	0	0	0	469	498	381	0	
8	0	0	0	0	503	493	382	0	
9	0	0	0	0	516	500	383	0	
10	0	0	0	0	497	502	383	0	
11	0	0	0	0	482	504	382	0	
12	0	0	0	0	453	507	381	0	
13	0	0	0	0	492	518	382	0	
14	0	0	0	0	523	519	381	0	
15	0	0	0	0	543	522	382	0	
0	0	0	0	0	553	527	382	0	
1	0	0	0	0	566	517	382	0	
2	0	0	0	0	525	514	384	0	
3	0	0	0	0	459	512	385	0	
4	0	0	0	0	464	527	385	0	
5	0	0	0	0	503	519	384	0	
6	0	0	0	0	450	496	384	0	
7	0	0	0	0	417	478	386	0	
8	0	0	0	0	481	470	384	0	
9	0	0	0	0	543	505	383	0	
10	0	0	0	0	541	524	383	0	
11	0	0	0	0	537	516	383	0	
12	0	0	0	0	556	509	383	0	
13	0	0	0	0	531	509	382	0	
14	0	0	0	0	538	513	383	0	
15	0	0	0	0	531	518	384	0	
0	0	0	0	0	500	515	386	0	
1	0	0	0	0	476	516	384	0	
2	0	0	0	0	500	509	382	0	
3	0	0	0	0	510	518	382	0	
4	0	0	0	0	499	517	382	0	
5	0	0	0	0	520	515	381	0	
6	0	0	0	0	526	504	383	0	
7	0	0	0	0	521	510	382	0	
8	0	0	0	0	531	513	382	0	
9	0	0	0	0	513	508	384	0	
10	0	0	0	0	495	517	383	0	
11	0	0	0	0	502	514	384	0	
12	0	0	0	0	508	510	384	0	
13	0	0	0	0	485	510	385	0	
14	0	0	0	0	492	510	384	0	
15	0	0	0	0	510	501	384	0	
0	0	0	0	0	512	505	385	0	
1	0	0	0	0	530	519	384	0	
2	0	0	0	0	540	512	385	0	
3	0	0	0	0	527	510	385	0	
4	0	0	0	0	525	513	386	0	
5	0	0	0	0	521	521	385	0	
6	0	0	0	0	516	527	386	0	
7	0	0	0	0	434	514	387	0	
8	0	0	0	0	392	499	385	0	
9	0	0	0	0	464	510	387	0	
10	0	0	0	0	517	507	389	0	
11	0	0	0	0	550	525	389	0	
12	0	0	0	0	550	531	389	0	
13	0	0	0	0	540	537	389	0	
14	0	0	0	0	531	527	390	0	
15	0	0	0	0	528	519	390	0	
0	0	0	0	0	512	495	391	0	
1	0	0	0	0	462	461	392	0	
2	0	0	0	0	503	452	391	0	
3	0	0	0	0	492	476	391	0	
4	0	0	0	0	508	476	391	0	
5	0	0	0	0	518	507	391	0	
6	0	0	0	0	534	522	391	0	
7	0	0	0	0	499	511	392	0	
8	0	0	0	0	476	505	391	0	
9	0	0	0	0	479	525	391	0	
10	0	0	0	0	516	533	390	0	
11	0	0	0	0	519	524	391	0	
12	0	0	0	0	516	518	390	0	
13	0	0	0	0	530	518	392	0	
14	0	0	0	0	525	516	391	0	
15	0	0	0	0	528	517	391	0	
0	0	0	0	0	532	515	392	0	
1	0	0	0	0	519	510	391	0	
2	0	0	0	0	525	511	392	0	
3	0	0	0	0	518	504	391	0	
4	0	0	0	0	498	503	392	0	
5	0	0	0	0	486	511	392	0	
6	0	0	0	0	488	517	391	0	
7	0	0	0	0	491	516	392	0	
8	0	0	0	0	490	513	391	0	
9	0	0	0	0	494	512	390	0	
10	0	0	0	0	512	515	390	0	
11	0	0	0	0	519	506	389	0	
12	0	0	0	0	501	503	389	0	
13	0	0	0	0	504	512	389	0	
14	0	0	0	0	518	513	388	0	
15	0	0	0	0	513	512	387	0	
0	0	0	0	0	501	513	385	0	
1	0	0	0	0	527	516	384	0	
2	0	0	0	0	564	514	383	0	
3	0	0	0	0	538	513	383	0	
4	0	0	0	0	518	526	382	0	
5	0	0	0	0	557	527	381	0	
6	0	0	0	0	537	520	381	0	
7	0	0	0	0	454	502	382	0	
8	0	0	0	0	458	503	380	0	
9	0	0	0	0	460	493	380	0	
10	0	0	0	0	419	482	379	0	
11	0	0	0	0	456	496	380	0	
12	0	0	0	0	517	531	379	0	
13	0	0	0	0	517	526	378	0	
14	0	0	0	0	496	515	379	0	
15	0	0	0	0	518	507	379	0	
0	0	0	0	0	516	504	377	0	
1	0	0	0	0	522	501	375	0	
2	0	0	0	0	541	499	373	0	
3	0	0	0	0	539	494	371	0	
4	0	0	0	0	524	505	369	0	
5	0	0	0	0	523	505	371	0	
6	0	0	0	0	505	505	371	0	
7	0	0	0	0	505	513	371	0	
8	0	0	0	0	531	524	369	0	
9	0	0	0	0	534	524	369	0	
10	0	0	0	0	512	517	369	0	
11	0	0	0	0	508	513	369	0	
12	0	0	0	0	502	511	368	0	
13	0	0	0	0	489	510	367	0	
14	0	0	0	0	507	511	366	0	
15	0	0	0	0	511	515	366	0	
0	0	0	0	0	506	516	363	0	
1	0	0	0	0	503	519	364	0	
2	0	0	0	0	499	526	362	0	
3	0	0	0	0	497	526	361	0	
4	0	0	0	0	498	514	361	0	
5	0	0	0	0	491	494	362	0	
6	0	0	0	0	499	493	361	0	
7	0	0	0	0	533	519	362	0	
8	0	0	0	0	534	511	363	0	
9	0	0	0	0	523	493	363	0	
10	0	0	0	0	519	502	361	0	
11	0	0	0	0	531	524	361	0	
12	0	0	0	0	555	537	360	0	
13	0	0	0	0	549	513	360	0	
14	0	0	0	0	515	499	359	0	
15	0	0	0	0	452	485	358	0	
0	0	0	0	0	431	515	359	0	
1	0	0	0	0	471	543	357	0	
2	0	0	0	0	505	519	356	0	
3	0	0	0	0	528	502	357	0	
4	0	0	0	0	539	489	359	0	
5	0	0	0	0	513	484	359	0	
6	0	0	0	0	495	492	360	0	
7	0	0	0	0	454	493	359	0	
8	0	0	0	0	458	493	360	0	
9	0	0	0	0	502	512	361	0	
10	0	0	0	0	515	523	361	0	
11	0	0	0	0	520	530	360	0	
12	0	0	0	0	513	529	362	0	
13	0	0	0	0	524	527	364	0	
14	0	0	0	0	539	519	361	0	
15	0	0	0	0	535	511	362	0	
0	0	0	0	0	520	505	363	0	
1	0	0	0	0	539	505	364	0	
2	0	0	0	0	536	507	364	0	
3	0	0	0	0	494	513	364	0	
4	0	0	0	0	487	518	365	0	
5	0	0	0	0	499	524	364	0	
6	0	0	0	0	510	512	364	0	
7	0	0	0	0	511	500	364	0	
8	0	0	0	0	514	500	364	0	
9	0	0	0	0	531	520	360	0	
10	0	0	0	0	506	517	355	0	
11	0	0	0	0	480	504	352	0	
12	0	0	0	0	488	504	354	0	
13	0	0	0	0	487	510	351	0	
14	0	0	0	0	497	507	351	0	
15	0	0	0	0	515	518	350	0	
0	0	0	0	0	521	520	353	0	
1	0	0	0	0	533	510	352	0	
2	0	0	0	0	533	504	352	0	
3	0	0	0	0	504	501	354	0	
4	0	0	0	0	487	504	351	0	
5	0	0	0	0	494	507	352	0	
6	0	0	0	0	508	507	351	0	
7	0	0	0	0	513	512	352	0	
8	0	0	0	0	503	520	348	0	
9	0	0	0	0	514	529	348	0	
10	0	0	0	0	530	527	349	0	
11	0	0	0	0	547	521	348	0	
12	0	0	0	0	568	501	348	0	
13	0	0	0	0	480	497	349	0	
14	0	0	0	0	491	505	349	0	
15	0	0	0	0	444	493	349	0	
0	0	0	0	0	390	492	348	0	
1	0	0	0	0	472	513	346	0	
2	0	0	0	0	518	521	346	0	
3	0	0	0	0	541	512	347	0	
4	0	0	0	0	527	502	348	0	
5	0	0	0	0	525	513	348	0	
6	0	0	0	0	519	527	349	0	
7	0	0	0	0	536	536	349	0	
8	0	0	0	0	522	503	348	0	
9	0	0	0	0	497	495	349	0	
10	0	0	0	0	509	490	349	0	
11	0	0	0	0	510	498	349	0	
12	0	0	0	0	517	502	350	0	
13	0	0	0	0	528	510	351	0	
14	0	0	0	0	529	515	351	0	
15	0	0	0	0	511	518	353	0	
0	0	0	0	0	495	521	351	0	
1	0	0	0	0	491	524	353	0	
2	0	0	0	0	499	525	353	0	
3	0	0	0	0	534	514	355	0	
4	0	0	0	0	539	504	353	0	
5	0	0	0	0	521	504	354	0	
6	0	0	0	0	522	500	353	0	
7	0	0	0	0	496	497	353	0	
8	0	0	0	0	450	499	353	0	
9	0	0	0	0	456	506	354	0	
10	0	0	0	0	501	529	354	0	
11	0	0	0	0	515	551	353	0	
12	0	0	0	0	519	546	354	0	
13	0	0	0	0	537	534	356	0	
14	0	0	0	0	550	511	355	0	
15	0	0	0	0	540	496	355	0	
0	0	0	0	0	526	493	355	0	
1	0	0	0	0	508	494	355	0	
2	0	0	0	0	486	490	355	0	
3	0	0	0	0	463	464	356	0	
4	0	0	0	0	486	476	357	0	
5	0	0	0	0	504	496	358	0	
6	0	0	0	0	535	511	356	0	
7	0	0	0	0	559	528	358	0	
8	0	0	0	0	539	519	359	0	
9	0	0	0	0	474	512	359	0	
10	0	0	0	0	456	501	362	0	
11	0	0	0	0	473	518	361	0	
12	0	0	0	0	455	524	362	0	
13	0	0	0	0	492	520	361	0	
14	0	0	0	0	497	515	363	0	
15	0	0	0	0	546	524	362	0	
0	0	0	0	0	559	524	364	0	
1	0	0	0	0	557	523	363	0	
2	0	0	0	0	542	530	365	0	
3	0	0	0	0	485	515	363	0	
4	0	0	0	0	485	515	365	0	
5	0	0	0	0	513	496	364	0	
6	0	0	0	0	509	495	365	0	
7	0	0	0	0	481	496	364	0	
8	0	0	0	0	497	501	364	0	
9	0	0	0	0	503	504	366	0	
10	0	0	0	0	558	514	364	0	
11	0	0	0	0	540	515	367	0	
12	0	0	0	0	519	506	365	0	
13	0	0	0	0	501	511	366	0	
14	0	0	0	0	469	509	366	0	
15	0	0	0	0	469	509	366	0	
0	0	0	0	0	469	512	364	0	
1	0	0	0	0	497	514	365	0	
2	0	0	0	0	524	513	362	0	
3	0	0	0	0	546	510	362	0	
4	0	0	0	0	556	514	363	0	
5	0	0	0	0	574	528	363	0	
6	0	0	0	0	550	527	366	0	
7	0	0	0	0	521	525	364	0	
8	0	0	0	0	497	524	364	0	
9	0	0	0	0	467	507	365	0	
10	0	0	0	0	451	488	364	0	
11	0	0	0	0	448	496	360	0	
12	0	0	0	0	457	498	367	0	
13	0	0	0	0	501	507	366	0	
14	0	0	0	0	517	504	367	0	
15	0	0	0	0	561	505	368	0	
0	0	0	0	0	564	505	368	0	
1	0	0	0	0	546	507	368	0	
2	0	0	0	0	509	498	368	0	
3	0	0	0	0	432	486	368	0	
4	0	0	0	0	446	519	368	0	
5	0	0	0	0	446	528	368	0	
6	0	0	0	0	467	515	371	0	
7	0	0	0	0	552	513	372	0	
8	0	0	0	0	540	506	372	0	
9	0	0	0	0	556	524	372	0	
10	0	0	0	0	563	539	371	0	
11	0	0	0	0	534	521	372	0	
12	0	0	0	0	524	546	372	0	
13	0	0	0	0	510	541	370	0	
14	0	0	0	0	483	511	371	0	
15	0	0	0	0	498	495	370	0	
0	0	0	0	0	525	495	371	0	
1	0	0	0	0	519	483	371	0	
2	0	0	0	0	502	479	371	0	
3	0	0	0	0	514	480	371	0	
4	0	0	0	0	515	488	372	0	
5	0	0	0	0	470	490	372	0	
6	0	0	0	0	456	512	372	0	
7	0	0	0	0	491	516	373	0	
8	0	0	0	0	534	516	374	0	
9	0	0	0	0	551	519	375	0	
10	0	0	0	0	549	529	375	0	
11	0	0	0	0	500	525	375	0	
12	0	0	0	0	519	527	375	0	
13	0	0	0	0	546	515	374	0	
14	0	0	0	0	508	508	374	0	
15	0	0	0	0	447	524	373	0	
0	0	0	0	0	450	530	374	0	
1	0	0	0	0	498	524	373	0	
2	0	0	0	0	524	525	376	0	
3	0	0	0	0	525	521	376	0	
4	0	0	0	0	527	515	376	0	
5	0	0	0	0	518	486	375	0	
6	0	0	0	0	510	479	374	0	
7	0	0	0	0	454	462	375	0	
8	0	0	0	0	475	479	376	0	
9	0	0	0	0	500	502	376	0	
10	0	0	0	0	521	528	375	0	
11	0	0	0	0	533	510	375	0	
12	0	0	0	0	559	504	375	0	
13	0	0	0	0	558	510	376	0	
14	0	0	0	0	579	519	377	0	
15	0	0	0	0	510	527	377	0	
0	0	0	0	0	468	535	377	0	
1	0	0	0	0	478	553	377	0	
2	0	0	0	0	477	540	377	0	
3	0	0	0	0	488	508	378	0	
4	0	0	0	0	466	498	378	0	
5	0	0	0	0	508	509	379	0	
6	0	0	0	0	519	510	379	0	
7	0	0	0	0	499	472	379	0	
8	0	0	0	0	476	480	380	0	
9	0	0	0	0	490	498	380	0	
10	0	0	0	0	492	507	380	0	
11	0	0	0	0	497	500	381	0	
12	0	0	0	0	519	498	381	0	
13	0	0	0	0	540	508	381	0	
14	0	0	0	0	548	507	380	0	
15	0	0	0	0	539	507	380	0	
0	0	0	0	0	521	529	381	0	
1	0	0	0	0	487	528	381	0	
2	0	0	0	0	467	515	382	0	
3	0	0	0	0	506	519	382	0	
4	0	0	0	0	534	517	383	0	
5	0	0	0	0	527	513	383	0	
6	0	0	0	0	563	516	384	0	
7	0	0	0	0	513	510	384	0	
8	0	0	0	0	515	535	383	0	
9	0	0	0	0	524	532	384	0	
10	0	0	0	0	504	512	384	0	
11	0	0	0	0	510	492	384	0	
12	0	0	0	0	469	488	384	0	
13	0	0	0	0	506	493	385	0	
14	0	0	0	0	508	512	385	0	
15	0	0	0	0	477	527	384	0	
0	0	0	0	0	454	519	384	0	
1	0	0	0	0	491	513	384	0	
2	0	0	0	0	518	513	385	0	
3	0	0	0	0	558	513	385	0	
4	0	0	0	0	535	515	385	0	
5	0	0	0	0	554	531	384	0	
6	0	0	0	0	465	524	386	0	
7	0	0	0	0	458	515	384	0	
8	0	0	0	0	502	504	385	0	
9	0	0	0	0	532	481	384	0	
10	0	0	0	0	546	502	384	0	
11	0	0	0	0	524	523	384	0	
12	0	0	0	0	504	513	384	0	
13	0	0	0	0	536	501	385	0	
14	0	0	0	0	530	473	384	0	
15	0	0	0	0	507	479	383	0	
0	0	0	0	0	466	496	382	0	
1	0	0	0	0	475	505	382	0	
2	0	0	0	0	497	501	382	0	
3	0	0	0	0	472	518	383	0	
4	0	0	0	0	441	523	382	0	
5	0	0	0	0	482	523	382	0	
6	0	0	0	0	525	523	380	0	
7	0	0	0	0	531	530	380	0	
8	0	0	0	0	533	528	382	0	
9	0	0	0	0	523	523	382	0	
10	0	0	0	0	543	513	383	0	
11	0	0	0	0	522	518	382	0	
12	0	0	0	0	550	525	382	0	
13	0	0	0	0	536	517	382	0	
14	0	0	0	0	488	505	382	0	
15	0	0	0	0	494	491	382	0	
0	0	0	0	0	487	484	382	0	
1	0	0	0	0	468	495	380	0	
2	0	0	0	0	476	514	380	0	
3	0	0	0	0	519	520	382	0	
4	0	0	0	0	563	536	380	0	
5	0	0	0	0	502	525	379	0	
6	0	0	0	0	506	523	378	0	
7	0	0	0	0	519	510	377	0	
8	0	0	0	0	494	504	377	0	
9	0	0	0	0	495	519	378	0	
10	0	0	0	0	516	523	379	0	
11	0	0	0	0	507	498	381	0	
12	0	0	0	0	522	498	379	0	
13	0	0	0	0	508	507	379	0	
14	0	0	0	0	548	486	376	0	
15	0	0	0	0	556	480	376	0	
0	0	0	0	0	506	483	375	0	
1	0	0	0	0	466	480	374	0	
2	0	0	0	0	483	484	375	0	
3	0	0	0	0	503	509	374	0	
4	0	0	0	0	509	507	374	0	
5	0	0	0	0	522	527	374	0	
6	0	0	0	0	552	543	374	0	
7	0	0	0	0	551	521	374	0	
8	0	0	0	0	540	573	376	0	
9	0	0	0	0	493	533	376	0	
10	0	0	0	0	492	497	377	0	
11	0	0	0	0	461	501	376	0	
12	0	0	0	0	390	513	375	0	
13	0	0	0	0	441	521	377	0	
14	0	0	0	0	509	520	377	0	
15	0	0	0	0	513	505	377	0	
0	0	0	0	0	498	521	376	0	
1	0	0	0	0	526	509	377	0	
2	0	0	0	0	525	474	377	0	
3	0	0	0	0	524	476	379	0	
4	0	0	0	0	527	512	379	0	
5	0	0	0	0	548	520	381	0	
6	0	0	0	0	566	548	381	0	
7	0	0	0	0	571	532	384	0	
8	0	0	0	0	519	500	382	0	
9	0	0	0	0	505	493	382	0	
10	0	0	0	0	519	504	382	0	
11	0	0	0	0	546	501	382	0	
12	0	0	0	0	504	516	382	0	
13	0	0	0	0	491	531	384	0	
14	0	0	0	0	501	523	384	0	
15	0	0	0	0	451	496	384	0	
0	0	0	0	0	355	483	384	0	
1	0	0	0	0	395	495	384	0	
2	0	0	0	0	497	491	382	0	
3	0	0	0	0	550	497	382	0	
4	0	0	0	0	540	505	383	0	
5	0	0	0	0	560	503	384	0	
6	0	0	0	0	547	502	383	0	
7	0	0	0	0	571	516	384	0	
8	0	0	0	0	571	528	385	0	
9	0	0	0	0	526	540	383	0	
10	0	0	0	0	476	539	384	0	
11	0	0	0	0	483	527	385	0	
12	0	0	0	0	529	527	385	0	
13	0	0	0	0	562	535	385	0	
14	0	0	0	0	541	530	385	0	
15	0	0	0	0	504	517	384	0	
0	0	0	0	0	532	504	384	0	
1	0	0	0	0	511	490	384	0	
2	0	0	0	0	490	498	384	0	
3	0	0	0	0	431	491	384	0	
4	0	0	0	0	453	496	385	0	
5	0	0	0	0	449	510	385	0	
6	0	0	0	0	431	506	386	0	
7	0	0	0	0	465	498	385	0	
8	0	0	0	0	539	495	385	0	
9	0	0	0	0	609	496	387	0	
10	0	0	0	0	605	527	386	0	
11	0	0	0	0	555	508	385	0	
12	0	0	0	0	557	505	386	0	
13	0	0	0	0	468	497	386	0	
14	0	0	0	0	413	506	385	0	
15	0	0	0	0	479	523	385	0	
0	0	0	0	0	505	532	385	0	
1	0	0	0	0	483	499	384	0	
2	0	0	0	0	481	492	384	0	
3	0	0	0	0	501	550	384	0	
4	0	0	0	0	493	553	384	0	
5	0	0	0	0	506	520	384	0	
6	0	0	0	0	527	494	385	0	
7	0	0	0	0	531	501	384	0	
8	0	0	0	0	514	518	386	0	
9	0	0	0	0	591	523	383	0	
10	0	0	0	0	578	529	383	0	
11	0	0	0	0	535	512	382	0	
12	0	0	0	0	487	522	383	0	
13	0	0	0	0	448	509	382	0	
14	0	0	0	0	474	515	382	0	
15	0	0	0	0	505	504	383	0	
0	0	0	0	0	540	476	384	0	
1	0	0	0	0	516	463	384	0	
2	0	0	0	0	536	457	384	0	
3	0	0	0	0	481	473	384	0	
4	0	0	0	0	451	522	385	0	
5	0	0	0	0	483	588	385	0	
6	0	0	0	0	538	551	386	0	
7	0	0	0	0	561	524	385	0	
8	0	0	0	0	543	496	387	0	
9	0	0	0	0	487	473	387	0	
10	0	0	0	0	483	500	387	0	
11	0	0	0	0	509	504	387	0	
12	0	0	0	0	521	495	386	0	
13	0	0	0	0	524	496	386	0	
14	0	0	0	0	524	496	386	0	
15	0	0	0	0	530	507	387	0	
0	0	0	0	0	480	528	387	0	
1	0	0	0	0	466	515	388	0	
2	0	0	0	0	489	519	390	0	
3	0	0	0	0	537	532	390	0	
4	0	0	0	0	519	557	390	0	
5	0	0	0	0	486	539	391	0	
6	0	0	0	0	540	548	391	0	
7	0	0	0	0	484	528	390	0	
8	0	0	0	0	467	515	390	0	
9	0	0	0	0	517	505	391	0	
10	0	0	0	0	483	484	390	0	
11	0	0	0	0	483	483	390	0	
12	0	0	0	0	529	488	389	0	
13	0	0	0	0	564	476	389	0	
14	0	0	0	0	537	457	389	0	
15	0	0	0	0	503	444	389	0	
0	0	0	0	0	404	483	389	0	
1	0	0	0	0	395	553	391	0	
2	0	0	0	0	504	582	390	0	
3	0	0	0	0	556	571	391	0	
4	0	0	0	0	622	605	391	0	
5	0	0	0	0	551	574	392	0	
6	0	0	0	0	492	540	392	0	
7	0	0	0	0	522	503	392	0	
8	0	0	0	0	566	461	392	0	
9	0	0	0	0	590	416	392	0	
10	0	0	0	0	571	445	391	0	
11	0	0	0	0	553	456	391	0	
12	0	0	0	0	553	463	391	0	
13	0	0	0	0	436	446	391	0	
14	0	0	0	0	307	447	392	0	
15	0	0	0	0	361	513	393	0	
0	0	0	0	0	427	566	392	0	
1	0	0	0	0	486	557	393	0	
2	0	0	0	0	559	534	392	0	
3	0	0	0	0	547	528	392	0	
4	0	0	0	0	487	540	393	0	
5	0	0	0	0	467	542	393	0	
6	0	0	0	0	526	535	394	0	
7	0	0	0	0	612	541	394	0	
8	0	0	0	0	589	529	393	0	
9	0	0	0	0	575	500	393	0	
10	0	0	0	0	544	476	395	0	
11	0	0	0	0	438	474	393	0	
12	0	0	0	0	427	480	394	0	
13	0	0	0	0	492	527	393	0	
14	0	0	0	0	517	542	393	0	
15	0	0	0	0	523	535	391	0	
0	0	0	0	0	547	540	392	0	
1	0	0	0	0	502	528	391	0	
2	0	0	0	0	502	507	392	0	
3	0	0	0	0	521	496	391	0	
4	0	0	0	0	534	494	391	0	
5	0	0	0	0	534	487	391	0	
6	0	0	0	0	552	493	391	0	
7	0	0	0	0	545	500	391	0	
8	0	0	0	0	525	510	391	0	
9	0	0	0	0	509	508	390	0	
10	0	0	0	0	479	524	388	0	
11	0	0	0	0	484	550	391	0	
12	0	0	0	0	454	550	391	0	
13	0	0	0	0	484	518	391	0	
14	0	0	0	0	430	499	391	0	
15	0	0	0	0	461	517	392	0	
0	0	0	0	0	475	549	392	0	
1	0	0	0	0	527	540	394	0	
2	0	0	0	0	593	475	396	0	
3	0	0	0	0	565	467	392	0	
4	0	0	0	0	451	491	393	0	
5	0	0	0	0	440	506	394	0	
6	0	0	0	0	483	491	396	0	
7	0	0	0	0	594	512	395	0	
8	0	0	0	0	554	500	395	0	
9	0	0	0	0	517	496	398	0	
10	0	0	0	0	490	516	396	0	
11	0	0	0	0	506	523	397	0	
12	0	0	0	0	489	514	397	0	
13	0	0	0	0	499	558	395	0	
14	0	0	0	0	542	568	395	0	
15	0	0	0	0	512	534	396	0	
0	0	0	0	0	475	497	397	0	
1	0	0	0	0	485	470	397	0	
2	0	0	0	0	495	447	397	0	
3	0	0	0	0	512	442	397	0	
4	0	0	0	0	505	444	398	0	
5	0	0	0	0	555	496	399	0	
6	0	0	0	0	561	515	398	0	
7	0	0	0	0	579	524	398	0	
8	0	0	0	0	548	536	398	0	
9	0	0	0	0	471	540	399	0	
10	0	0	0	0	529	541	401	0	
11	0	0	0	0	548	548	400	0	
12	0	0	0	0	480	523	400	0	
13	0	0	0	0	441	493	404	0	
14	0	0	0	0	492	462	404	0	
15	0	0	0	0	493	464	404	0	
0	0	0	0	0	491	517	404	0	
1	0	0	0	0	543	540	403	0	
2	0	0	0	0	532	529	403	0	
3	0	0	0	0	495	508	405	0	
4	0	0	0	0	490	507	403	0	
5	0	0	0	0	510	531	402	0	
6	0	0	0	0	477	535	404	0	
7	0	0	0	0	468	511	406	0	
8	0	0	0	0	384	519	406	0	
9	0	0	0	0	454	531	407	0	
10	0	0	0	0	539	537	406	0	
11	0	0	0	0	552	505	407	0	
12	0	0	0	0	544	496	408	0	
13	0	0	0	0	536	504	408	0	
14	0	0	0	0	553	538	420	0	
15	0	0	0	0	545	551	421	0	
0	0	0	0	0	566	524	420	0	
1	0	0	0	0	557	511	423	0	
2	0	0	0	0	504	508	426	0	
3	0	0	0	0	420	482	426	0	
4	0	0	0	0	452	469	428	0	
5	0	0	0	0	497	519	430	0	
6	0	0	0	0	523	540	431	0	
7	0	0	0	0	510	540	432	0	
8	0	0	0	0	506	534	433	0	
9	0	0	0	0	490	534	432	0	
10	0	0	0	0	525	461	433	0	
11	0	0	0	0	519	422	435	0	
12	0	0	0	0	528	434	434	0	
13	0	0	0	0	566	468	438	0	
14	0	0	0	0	592	478	436	0	
15	0	0	0	0	570	499	437	0	
0	0	0	0	0	548	487	436	0	
1	0	0	0	0	512	524	435	0	
2	0	0	0	0	448	571	439	0	
3	0	0	0	0	367	563	439	0	
4	0	0	0	0	421	556	440	0	
5	0	0	0	0	492	534	440	0	
6	0	0	0	0	498	500	441	0	
7	0	0	0	0	523	506	441	0	
8	0	0	0	0	577	521	442	0	
9	0	0	0	0	539	539	441	0	
10	0	0	0	0	499	494	440	0	
11	0	0	0	0	463	469	441	0	
12	0	0	0	0	453	460	442	0	
13	0	0	0	0	467	502	443	0	
14	0	0	0	0	495	531	445	0	
15	0	0	0	0	521	558	446	0	
0	0	0	0	0	530	515	448	0	
1	0	0	0	0	492	488	448	0	
2	0	0	0	0	588	497	448	0	
3	0	0	0	0	576	518	451	0	
4	0	0	0	0	531	507	452	0	
5	0	0	0	0	511	501	452	0	
6	0	0	0	0	487	526	452	0	
7	0	0	0	0	503	539	451	0	
8	0	0	0	0	514	521	452	0	
9	0	0	0	0	531	515	450	0	
10	0	0	0	0	532	530	452	0	
11	0	0	0	0	531	523	452	0	
12	0	0	0	0	551	540	454	0	
13	0	0	0	0	565	531	454	0	
14	0	0	0	0	528	513	451	0	
15	0	0	0	0	511	498	452	0	
0	0	0	0	0	507	494	452	0	
1	0	0	0	0	332	468	453	0	
2	0	0	0	0	315	469	455	0	
3	0	0	0	0	476	474	455	0	
4	0	0	0	0	521	485	454	0	
5	0	0	0	0	532	495	457	0	
6	0	0	0	0	532	517	455	0	
7	0	0	0	0	547	535	455	0	
8	0	0	0	0	500	532	454	0	
9	0	0	0	0	505	524	453	0	
10	0	0	0	0	527	515	453	0	
11	0	0	0	0	516	518	453	0	
12	0	0	0	0	548	515	452	0	
13	0	0	0	0	542	518	453	0	
14	0	0	0	0	482	500	451	0	
15	0	0	0	0	483	501	449	0	
0	0	0	0	0	508	522	449	0	
1	0	0	0	0	535	523	450	0	
2	0	0	0	0	546	520	449	0	
3	0	0	0	0	521	515	448	0	
4	0	0	0	0	517	510	447	0	
5	0	0	0	0	514	507	448	0	
6	0	0	0	0	513	509	448	0	
7	0	0	0	0	514	517	448	0	
8	0	0	0	0	499	523	449	0	
9	0	0	0	0	492	518	448	0	
10	0	0	0	0	507	511	449	0	
11	0	0	0	0	511	506	451	0	
12	0	0	0	0	509	512	452	0	
13	0	0	0	0	506	502	452	0	
14	0	0	0	0	509	510	452	0	
15	0	0	0	0	508	524	452	0	
0	0	0	0	0	513	529	454	0	
1	0	0	0	0	512	513	453	0	
2	0	0	0	0	492	479	452	0	
3	0	0	0	0	491	487	452	0	
4	0	0	0	0	517	511	452	0	
5	0	0	0	0	511	533	451	0	
6	0	0	0	0	501	503	452	0	
7	0	0	0	0	491	496	451	0	
8	0	0	0	0	504	507	451	0	
9	0	0	0	0	518	509	451	0	
10	0	0	0	0	518	515	453	0	
11	0	0	0	0	500	514	454	0	
12	0	0	0	0	496	511	455	0	
13	0	0	0	0	512	515	457	0	
14	0	0	0	0	523	518	457	0	
15	0	0	0	0	519	520	458	0	
0	0	0	0	0	527	520	458	0	
1	0	0	0	0	540	513	459	0	
2	0	0	0	0	516	509	460	0	
3	0	0	0	0	498	508	459	0	
4	0	0	0	0	471	497	461	0	
5	0	0	0	0	481	482	461	0	
6	0	0	0	0	473	484	459	0	
7	0	0	0	0	463	502	459	0	
8	0	0	0	0	494	505	459	0	
9	0	0	0	0	520	512	458	0	
10	0	0	0	0	533	507	458	0	
11	0	0	0	0	526	513	459	0	
12	0	0	0	0	526	518	458	0	
13	0	0	0	0	523	515	458	0	
14	0	0	0	0	519	514	457	0	
15	0	0	0	0	524	523	457	0	
0	0	0	0	0	522	518	455	0	
1	0	0	0	0	517	513	455	0	
2	0	0	0	0	523	514	454	0	
3	0	0	0	0	533	524	453	0	
4	0	0	0	0	546	530	454	0	
5	0	0	0	0	524	528	454	0	
6	0	0	0	0	475	520	455	0	
7	0	0	0	0	444	519	455	0	
8	0	0	0	0	448	521	455	0	
9	0	0	0	0	463	516	452	0	
10	0	0	0	0	473	502	451	0	
11	0	0	0	0	486	508	449	0	
12	0	0	0	0	534	500	451	0	
13	0	0	0	0	533	505	450	0	
14	0	0	0	0	520	519	451	0	
15	0	0	0	0	501	502	452	0	
0	0	0	0	0	518	477	448	3	
1	0	0	0	0	528	480	448	6	
2	0	0	0	0	511	492	449	6	
3	0	0	0	0	512	481	447	7	
4	0	0	0	0	524	475	448	8	
5	0	0	0	0	535	500	451	9	
6	0	0	0	0	539	515	441	10	
7	0	0	0	0	555	539	443	11	
8	0	0	0	0	556	547	443	22	
9	0	0	0	0	510	538	444	26	
10	0	0	0	0	485	526	445	27	
11	0	0	0	0	483	521	450	30	
12	0	0	0	0	491	503	455	48	
13	0	0	0	0	510	479	455	49	
14	0	0	0	0	513	471	461	65	
15	0	0	0	0	470	471	467	70	
0	0	0	0	0	471	503	466	79	
1	0	0	0	0	492	525	469	84	
2	0	0	0	0	505	534	479	89	
3	0	0	0	0	515	544	482	95	
4	0	0	0	0	504	541	481	98	
5	0	0	0	0	497	531	479	111	
6	0	0	0	0	531	522	483	123	
7	0	0	0	0	540	513	480	126	
8	0	0	0	0	527	510	483	131	
9	0	0	0	0	503	522	485	134	
10	0	0	0	0	444	532	480	134	
11	0	0	0	0	456	532	486	134	
12	0	0	0	0	507	543	485	129	
13	0	0	0	0	507	540	483	130	
14	0	0	0	0	484	516	480	135	
15	0	0	0	0	531	491	474	143	
0	0	0	0	0	578	469	473	166	
1	0	0	0	0	578	450	477	170	
2	0	0	0	0	535	468	480	178	
3	0	0	0	0	528	493	484	180	
4	0	0	0	0	503	489	485	182	
5	0	0	0	0	477	502	483	189	
6	0	0	0	0	487	510	485	196	
7	0	0	0	0	511	509	491	200	
8	0	0	0	0	547	502	489	200	
9	0	0	0	0	517	499	483	206	
10	0	0	0	0	478	504	484	211	
11	0	0	0	0	463	534	487	213	
12	0	0	0	0	481	549	488	222	
13	0	0	0	0	499	549	490	232	
14	0	0	0	0	515	534	485	240	
15	0	0	0	0	532	525	482	238	
0	0	0	0	0	536	517	482	241	
1	0	0	0	0	520	517	483	239	
2	0	0	0	0	483	509	473	244	
3	0	0	0	0	436	486	478	251	
4	0	0	0	0	457	475	475	247	
5	0	0	0	0	510	488	475	252	
6	0	0	0	0	523	500	472	250	
7	0	0	0	0	547	494	470	256	
8	0	0	0	0	546	494	470	266	
9	0	0	0	0	504	490	468	269	
10	0	0	0	0	502	503	467	270	
11	0	0	0	0	498	520	459	273	
12	0	0	0	0	503	520	453	280	
13	0	0	0	0	523	515	453	281	
14	0	0	0	0	534	520	451	289	
15	0	0	0	0	527	520	452	295	
0	0	0	0	0	527	519	453	296	
1	0	0	0	0	515	519	445	312	
2	0	0	0	0	509	513	437	316	
3	0	0	0	0	508	514	435	328	
4	0	0	0	0	511	515	433	333	
5	0	0	0	0	502	516	434	329	
6	0	0	0	0	501	513	428	335	
7	0	0	0	0	493	515	423	331	
8	0	0	0	0	488	515	417	332	
9	0	0	0	0	500	512	419	318	
10	0	0	0	0	499	513	411	320	
11	0	0	0	0	497	513	413	325	
12	0	0	0	0	505	513	406	326	
13	0	0	0	0	513	512	399	332	
14	0	0	0	0	515	512	400	325	
15	0	0	0	0	511	513	400	326	
0	0	0	0	0	511	513	401	322	
1	0	0	0	0	510	512	391	327	
2	0	0	0	0	509	507	385	328	
3	0	0	0	0	514	512	382	327	
4	0	0	0	0	515	512	377	321	
5	0	0	0	0	514	513	364	322	
6	0	0	0	0	512	511	354	324	
7	0	0	0	0	513	512	347	321	
8	0	0	0	0	511	512	345	315	
9	0	0	0	0	512	510	342	315	
10	0	0	0	0	507	510	338	313	
11	0	0	0	0	503	511	334	307	
12	0	0	0	0	502	511	324	298	
13	0	0	0	0	508	510	318	313	
14	0	0	0	0	507	509	318	311	
15	0	0	0	0	502	509	309	296	
0	0	0	0	0	504	509	304	300	
1	0	0	0	0	504	510	302	294	
2	0	0	0	0	505	510	296	304	
3	0	0	0	0	506	509	292	299	
4	0	0	0	0	509	510	288	296	
5	0	0	0	0	513	509	287	301	
6	0	0	0	0	512	510	285	281	
7	0	0	0	0	511	510	252	283	
8	0	0	0	0	514	510	242	281	
9	0	0	0	0	513	508	241	281	
10	0	0	0	0	518	510	231	279	
11	0	0	0	0	514	511	235	271	
12	0	0	0	0	510	512	235	266	
13	0	0	0	0	508	511	229	265	
14	0	0	0	0	507	511	225	260	
15	0	0	0	0	508	512	220	249	
0	0	0	0	0	507	512	217	241	
1	0	0	0	0	498	511	210	234	
2	0	0	0	0	499	510	203	231	
3	0	0	0	0	501	511	203	226	
4	0	0	0	0	507	510	192	218	
5	0	0	0	0	507	510	182	207	
6	0	0	0	0	504	509	180	203	
7	0	0	0	0	507	509	178	195	
8	0	0	0	0	511	509	172	159	
9	0	0	0	0	514	508	169	146	
10	0	0	0	0	513	511	163	145	
11	0	0	0	0	511	512	162	139	
12	0	0	0	0	512	509	152	130	
13	0	0	0	0	514	510	145	117	
14	0	0	0	0	514	511	122	112	
15	0	0	0	0	514	511	117	101	
0	0	0	0	0	512	511	112	92	
1	0	0	0	0	510	511	108	89	
2	0	0	0	0	511	513	100	83	
3	0	0	0	0	508	508	96	69	
4	0	0	0	0	508	511	93	56	
5	0	0	0	0	502	511	92	47	
6	0	0	0	0	498	511	92	34	
7	0	0	0	0	502	509	92	19	
8	0	0	0	0	504	509	89	20	
9	0	0	0	0	509	511	87	17	
10	0	0	0	0	506	512	83	15	
11	0	0	0	0	500	508	82	12	
12	0	0	0	0	507	509	82	11	
13	0	0	0	0	504	511	81	12	
14	0	0	0	0	509	510	80	5	
15	0	0	0	0	510	511	79	0	
0	0	0	0	0	515	511	79	0	
1	0	0	0	0	517	513	77	2	
2	0	0	0	0	516	512	77	0	
3	0	0	0	0	515	512	74	0	
4	0	0	0	0	511	511	76	0	
5	0	0	0	0	506	509	73	0	
6	0	0	0	0	504	511	71	0	
7	0	0	0	0	504	510	70	0	
8	0	0	0	0	507	510	69	0	
9	0	0	0	0	511	510	68	0	
10	0	0	0	0	508	511	65	0	
11	0	0	0	0	507	509	64	0	
12	0	0	0	0	509	509	60	0	
13	0	0	0	0	507	510	57	0	
14	0	0	0	0	504	507	51	0	
15	0	0	0	0	508	508	48	0	
0	0	0	0	0	503	512	45	0	
1	0	0	0	0	503	508	44	0	
2	0	0	0	0	506	510	43	0	
3	0	0	0	0	515	511	41	0	
4	0	0	0	0	516	512	38	0	
5	0	0	0	0	518	514	34	0	
6	0	0	0	0	515	511	33	0	
7	0	0	0	0	514	509	28	0	
8	0	0	0	0	512	511	21	0	
9	0	0	0	0	510	511	20	0	
10	0	0	0	0	511	511	12	0	
11	0	0	0	0	508	510	0	0	
12	0	0	0	0	506	512	0	0	
13	0	0	0	0	504	512	0	0	
14	0	0	0	0	500	512	0	0	
15	0	0	0	0	503	510	0	0	
0	0	0	0	0	504	511	0	0	
1	0	0	0	0	507	510	0	0	
2	0	0	0	0	507	512	0	0	
3	0	0	0	0	506	509	0	0	
4	0	0	0	0	505	510	0	0	
5	0	0	0	0	512	511	0	0	
6	0	0	0	0	512	511	0	0	
7	0	0	0	0	513	512	0	0	
8	0	0	0	0	515	510	0	0	
9	0	0	0	0	516	511	0	0	
10	0	0	0	0	512	511	0	0	
11	0	0	0	0	513	510	0	0	
12	0	0	0	0	511	509	0	0	
13	0	0	0	0	509	511	0	0	
14	0	0	0	0	504	511	0	0	
15	0	0	0	0	504	509	0	0	
0	0	0	0	0	504	510	0	0	
1	0	0	0	0	503	511	0	0	
2	0	0	0	0	504	510	0	0	
3	0	0	0	0	504	509	0	0	
4	0	0	0	0	504	511	0	0	
5	0	0	0	0	505	510	0	0	
6	0	0	0	0	504	508	0	0	
7	0	0	0	0	507	508	0	0	
8	0	0	0	0	510	512	0	0	
9	0	0	0	0	512	512	0	0	
10	0	0	0	0	517	511	0	0	
11	0	0	0	0	512	512	0	0	
12	0	0	0	0	515	511	0	0	
13	0	0	0	0	512	511	0	0	
14	0	0	0	0	512	511	0	0	
15	0	0	0	0	512	511	0	0	
0	0	0	0	0	508	512	0	0	
1	0	0	0	0	507	511	0	0	
2	0	0	0	0	508	510	0	0	
3	0	0	0	0	505	508	0	0	
4	0	0	0	0	507	509	0	0	
5	0	0	0	0	503	508	0	0	
6	0	0	0	0	503	512	0	0	
7	0	0	0	0	504	511	0	0	
8	0	0	0	0	504	509	0	0	
9	0	0	0	0	504	510	0	0	
10	0	0	0	0	506	510	0	0	
11	0	0	0	0	507	508	0	0	
12	0	0	0	0	508	511	0	0	
13	0	0	0	0	511	511	0	0	
14	0	0	0	0	512	512	0	0	
15	0	0	0	0	512	513	0	0	
0	0	0	0	0	513	511	0	0	
1	0	0	0	0	515	512	0	0	
2	0	0	0	0	516	511	0	0	
3	0	0	0	0	516	511	0	0	
4	0	0	0	0	512	510	0	0	
5	0	0	0	0	508	510	0	0	
6	0	0	0	0	508	509	0	0	
7	0	0	0	0	501	507	0	0	
8	0	0	0	0	503	506	0	0	
9	0	0	0	0	506	510	0	0	
10	0	0	0	0	500	510	0	0	
11	0	0	0	0	503	510	0	0	
12	0	0	0	0	504	511	0	0	
13	0	0	0	0	505	511	0	0	
14	0	0	0	0	507	509	0	0	
15	0	0	0	0	506	511	0	0	
0	0	0	0	0	508	510	0	0	
1	0	0	0	0	511	509	0	0	
2	0	0	0	0	512	511	0	0	
3	0	0	0	0	512	511	0	0	
4	0	0	0	0	515	511	0	0	
5	0	0	0	0	513	514	0	0	
6	0	0	0	0	514	512	0	0	
7	0	0	0	0	514	511	0	0	
8	0	0	0	0	512	514	0	0	
9	0	0	0	0	510	511	0	0	
10	0	0	0	0	509	511	0	0	
11	0	0	0	0	504	511	0	0	
12	0	0	0	0	506	509	0	0	
13	0	0	0	0	503	509	0	0	
14	0	0	0	0	504	511	0	0	
15	0	0	0	0	503	508	0	0	
0	0	0	0	0	503	510	0	0	
1	0	0	0	0	505	510	0	0	
2	0	0	0	0	507	512	0	0	
3	0	0	0	0	505	511	0	0	
4	0	0	0	0	510	509	0	0	
5	0	0	0	0	511	510	0	0	
6	0	0	0	0	510	512	0	0	
7	0	0	0	0	509	509	0	0	
8	0	0	0	0	514	510	0	0	
9	0	0	0	0	515	511	0	0	
10	0	0	0	0	517	509	0	0	
11	0	0	0	0	516	511	0	0	
12	0	0	0	0	512	511	0	0	
13	0	0	0	0	507	507	0	0	
14	0	0	0	0	505	510	0	0	
15	0	0	0	0	502	511	0	0	
0	0	0	0	0	507	510	0	0	
1	0	0	0	0	508	512	0	0	
2	0	0	0	0	507	510	0	0	
3	0	0	0	0	506	511	0	0	
4	0	0	0	0	502	512	0	0	
5	0	0	0	0	501	512	0	0	
6	0	0	0	0	499	509	0	0	
7	0	0	0	0	506	509	0	0	
8	0	0	0	0	509	510	0	0	
9	0	0	0	0	511	509	0	0	
10	0	0	0	0	511	510	0	0	
11	0	0	0	0	512	510	0	0	
12	0	0	0	0	514	510	0	0	
13	0	0	0	0	514	510	0	0	
14	0	0	0	0	515	512	0	0	
15	0	0	0	0	515	511	0	0	
0	0	0	0	0	512	511	0	0	
1	0	0	0	0	510	510	0	0	
2	0	0	0	0	508	509	0	0	
3	0	0	0	0	507	511	0	0	
4	0	0	0	0	503	511	0	0	
5	0	0	0	0	502	513	0	0	
6	0	0	0	0	502	511	0	0	
7	0	0	0	0	505	509	0	0	
8	0	0	0	0	505	511	0	0	
9	0	0	0	0	508	510	0	0	
10	0	0	0	0	508	511	0	0	
11	0	0	0	0	512	510	0	0	
12	0	0	0	0	507	510	0	0	
13	0	0	0	0	507	511	0	0	
14	0	0	0	0	510	511	0	0	
15	0	0	0	0	513	510	0	0	
0	0	0	0	0	517	511	0	0	
1	0	0	0	0	515	512	0	0	
2	0	0	0	0	514	511	0	0	
3	0	0	0	0	516	511	0	0	
4	0	0	0	0	511	509	0	0	
5	0	0	0	0	508	510	0	0	
6	0	0	0	0	508	510	0	0	
7	0	0	0	0	503	510	0	0	
8	0	0	0	0	503	511	0	0	
9	0	0	0	0	503	513	0	0	
10	0	0	0	0	501	510	0	0	
11	0	0	0	0	502	511	0	0	
12	0	0	0	0	505	510	0	0	
13	0	0	0	0	506	512	0	0	
14	0	0	0	0	508	511	0	0	
15	0	0	0	0	511	512	0	0	
0	0	0	0	0	511	511	0	0	
1	0	0	0	0	514	512	0	0	
2	0	0	0	0	512	511	0	0	
3	0	0	0	0	510	511	0	0	
4	0	0	0	0	512	512	0	0	
5	0	0	0	0	515	510	0	0	
6	0	0	0	0	509	510	0	0	
7	0	0	0	0	508	510	0	0	
8	0	0	0	0	508	511	0	0	
9	0	0	0	0	511	510	0	0	
10	0	0	0	0	510	511	0	0	
11	0	0	0	0	511	512	0	0	
12	0	0	0	0	507	509	0	0	
13	0	0	0	0	499	508	0	0	
14	0	0	0	0	494	508	0	0	
15	0	0	0	0	499	510	0	0	
0	0	0	0	0	508	510	0	0	
1	0	0	0	0	507	511	0	0	
2	0	0	0	0	508	512	0	0	
3	0	0	0	0	508	509	0	0	
4	0	0	0	0	510	510	0	0	
5	0	0	0	0	512	506	0	0	
6	0	0	0	0	513	508	0	0	
7	0	0	0	0	515	511	0	0	
8	0	0	0	0	514	511	0	0	
9	0	0	0	0	515	511	0	0	
10	0	0	0	0	514	511	0	0	
11	0	0	0	0	512	511	0	0	
12	0	0	0	0	508	510	0	0	
13	0	0	0	0	510	509	0	0	
14	0	0	0	0	508	511	0	0	
15	0	0	0	0	507	511	0	0	
0	0	0	0	0	504	511	0	0	
1	0	0	0	0	506	512	0	0	
2	0	0	0	0	503	511	0	0	
3	0	0	0	0	501	510	0	0	
4	0	0	0	0	505	512	0	0	
5	0	0	0	0	507	510	0	0	
6	0	0	0	0	506	510	0	0	
7	0	0	0	0	509	508	0	0	
8	0	0	0	0	509	512	0	0	
9	0	0	0	0	508	512	0	0	
10	0	0	0	0	512	511	0	0	
11	0	0	0	0	512	511	0	0	
12	0	0	0	0	514	510	0	0	
13	0	0	0	0	516	510	0	0	
14	0	0	0	0	511	510	0	0	
15	0	0	0	0	512	511	0	0	
0	0	0	0	0	508	512	0	0	
1	0	0	0	0	507	511	0	0	
2	0	0	0	0	507	509	0	0	
3	0	0	0	0	505	509	0	0	
4	0	0	0	0	508	511	0	0	
5	0	0	0	0	504	509	0	0	
6	0	0	0	0	504	509	0	0	
7	0	0	0	0	504	510	0	0	
8	0	0	0	0	503	510	0	0	
9	0	0	0	0	506	511	0	0	
10	0	0	0	0	509	510	0	0	
11	0	0	0	0	508	510	0	0	
12	0	0	0	0	508	511	0	0	
13	0	0	0	0	511	511	0	0	
14	0	0	0	0	510	510	0	0	
15	0	0	0	0	511	512	0	0	
0	0	0	0	0	511	510	0	0	
1	0	0	0	0	513	510	0	0	
2	0	0	0	0	516	509	0	0	
3	0	0	0	0	515	511	0	0	
4	0	0	0	0	511	511	0	0	
5	0	0	0	0	510	510	0	0	
6	0	0	0	0	509	507	0	0	
7	0	0	0	0	505	509	0	0	
8	0	0	0	0	504	510	0	0	
9	0	0	0	0	505	508	0	0	
10	0	0	0	0	504	512	0	0	
11	0	0	0	0	502	511	0	0	
12	0	0	0	0	504	511	0	0	
13	0	0	0	0	504	511	0	0	
14	0	0	0	0	508	510	0	0	
15	0	0	0	0	509	510	0	0	
0	0	0	0	0	508	513	0	0	
1	0	0	0	0	511	510	0	0	
2	0	0	0	0	513	509	0	0	
3	0	0	0	0	514	511	0	0	
4	0	0	0	0	514	510	0	0	
5	0	0	0	0	515	511	0	0	
6	0	0	0	0	515	511	0	0	
7	0	0	0	0	516	512	0	0	
8	0	0	0	0	513	511	0	0	
9	0	0	0	0	509	508	0	0	
10	0	0	0	0	504	509	0	0	
11	0	0	0	0	504	509	0	0	
12	0	0	0	0	505	509	0	0	
13	0	0	0	0	503	509	0	0	
14	0	0	0	0	497	513	0	0	
15	0	0	0	0	497	512	0	0	
0	0	0	0	0	502	510	0	0	
1	0	0	0	0	503	512	0	0	
2	0	0	0	0	507	514	0	0	
3	0	0	0	0	509	512	0	0	
4	0	0	0	0	508	512	0	0	
5	0	0	0	0	513	509	0	0	
6	0	0	0	0	516	512	0	0	
7	0	0	0	0	514	511	0	0	
8	0	0	0	0	513	511	0	0	
9	0	0	0	0	515	511	0	0	
10	0	0	0	0	508	511	0	0	
11	0	0	0	0	510	510	0	0	
12	0	0	0	0	510	508	0	0	
13	0	0	0	0	508	511	0	0	
14	0	0	0	0	508	511	0	0	
15	0	0	0	0	508	512	0	0	
0	0	0	0	0	508	511	0	0	
1	0	0	0	0	504	513	0	0	
2	0	0	0	0	504	513	0	0	
3	0	0	0	0	504	510	0	0	
4	0	0	0	0	503	511	0	0	
5	0	0	0	0	506	509	0	0	
6	0	0	0	0	508	510	0	0	
7	0	0	0	0	510	511	0	0	
8	0	0	0	0	508	509	0	0	
9	0	0	0	0	509	511	0	0	
10	0	0	0	0	512	511	0	0	
11	0	0	0	0	512	510	0	0	
12	0	0	0	0	514	509	0	0	
13	0	0	0	0	516	511	0	0	
14	0	0	0	0	516	512	0	0	
15	0	0	0	0	512	511	0	0	
0	0	0	0	0	508	511	0	0	
1	0	0	0	0	507	512	0	0	
2	0	0	0	0	508	512	0	0	
3	0	0	0	0	507	510	0	0	
4	0	0	0	0	504	511	0	0	
5	0	0	0	0	506	508	0	0	
6	0	0	0	0	504	510	0	0	
7	0	0	0	0	504	511	0	0	
8	0	0	0	0	504	510	0	0	
9	0	0	0	0	504	511	0	0	
10	0	0	0	0	503	509	0	0	
11	0	0	0	0	505	510	0	0	
12	0	0	0	0	508	509	0	0	
13	0	0	0	0	511	509	0	0	
14	0	0	0	0	513	511	0	0	
15	0	0	0	0	514	510	0	0	
0	0	0	0	0	515	511	0	0	
1	0	0	0	0	514	510	0	0	
2	0	0	0	0	512	513	0	0	
3	0	0	0	0	512	510	0	0	
4	0	0	0	0	511	512	0	0	
5	0	0	0	0	508	510	0	0	
6	0	0	0	0	511	511	0	0	
7	0	0	0	0	506	508	0	0	
8	0	0	0	0	503	510	0	0	
9	0	0	0	0	504	510	0	0	
10	0	0	0	0	503	512	0	0	
11	0	0	0	0	504	512	0	0	
12	0	0	0	0	504	510	0	0	
13	0	0	0	0	505	508	0	0	
14	0	0	0	0	507	511	0	0	
15	0	0	0	0	505	511	0	0	
0	0	0	0	0	510	509	0	0	
1	0	0	0	0	512	510	0	0	
2	0	0	0	0	512	510	0	0	
3	0	0	0	0	513	510	0	0	
4	0	0	0	0	514	510	0	0	
5	0	0	0	0	514	513	0	0	
6	0	0	0	0	510	511	0	0	
7	0	0	0	0	511	510	0	0	
8	0	0	0	0	511	509	0	0	
9	0	0	0	0	512	510	0	0	
10	0	0	0	0	511	513	0	0	
11	0	0	0	0	508	511	0	0	
12	0	0	0	0	504	511	0	0	
13	0	0	0	0	502	510	0	0	
14	0	0	0	0	501	508	0	0	
15	0	0	0	0	503	508	0	0	
0	0	0	0	0	505	510	0	0	
1	0	0	0	0	504	512	0	0	
2	0	0	0	0	504	510	0	0	
3	0	0	0	0	507	510	0	0	
4	0	0	0	0	510	511	0	0	
5	0	0	0	0	510	510	0	0	
6	0	0	0	0	513	510	0	0	
7	0	0	0	0	511	509	0	0	
8	0	0	0	0	511	512	0	0	
9	0	0	0	0	513	511	0	0	
10	0	0	0	0	516	513	0	0	
11	0	0	0	0	513	509	0	0	
12	0	0	0	0	511	512	0	0	
13	0	0	0	0	511	512	0	0	
14	0	0	0	0	510	511	0	0	
15	0	0	0	0	505	511	0	0	
0	0	0	0	0	504	508	0	0	
1	0	0	0	0	506	511	0	0	
2	0	0	0	0	502	511	0	0	
3	0	0	0	0	504	510	0	0	
4	0	0	0	0	506	511	0	0	
5	0	0	0	0	503	511	0	0	
6	0	0	0	0	504	511	0	0	
7	0	0	0	0	506	510	0	0	
8	0	0	0	0	505	511	0	0	
9	0	0	0	0	508	510	0	0	
10	0	0	0	0	514	511	0	0	
11	0	0	0	0	513	508	0	0	
12	0	0	0	0	515	509	0	0	
13	0	0	0	0	517	512	0	0	
14	0	0	0	0	511	509	0	0	
15	0	0	0	0	511	509	0	0	
0	0	0	0	0	510	510	0	0	
1	0	0	0	0	513	513	0	0	
2	0	0	0	0	509	511	0	0	
3	0	0	0	0	508	511	0	0	
4	0	0	0	0	505	513	0	0	
5	0	0	0	0	506	512	0	0	
6	0	0	0	0	505	510	0	0	
7	0	0	0	0	503	510	0	0	
8	0	0	0	0	507	511	0	0	
9	0	0	0	0	502	510	0	0	
10	0	0	0	0	502	509	0	0	
11	0	0	0	0	504	506	0	0	
12	0	0	0	0	508	511	0	0	
13	0	0	0	0	513	509	0	0	
14	0	0	0	0	515	511	0	0	
15	0	0	0	0	514	511	0	0	
0	0	0	0	0	515	510	0	0	
1	0	0	0	0	515	510	0	0	
2	0	0	0	0	513	513	0	0	
3	0	0	0	0	512	511	0	0	
4	0	0	0	0	512	510	0	0	
5	0	0	0	0	509	511	0	0	
6	0	0	0	0	508	510	0	0	
7	0	0	0	0	505	511	0	0	
8	0	0	0	0	497	511	0	0	
9	0	0	0	0	493	509	0	0	
10	0	0	0	0	498	510	0	0	
11	0	0	0	0	503	510	0	0	
12	0	0	0	0	508	510	0	0	
13	0	0	0	0	508	511	0	0	
14	0	0	0	0	511	510	0	0	
15	0	0	0	0	512	508	0	0	
0	0	0	0	0	511	511	0	0	
1	0	0	0	0	511	510	0	0	
2	0	0	0	0	513	512	0	0	
3	0	0	0	0	512	512	0	0	
4	0	0	0	0	513	512	0	0	
5	0	0	0	0	516	512	0	0	
6	0	0	0	0	514	513	0	0	
7	0	0	0	0	512	512	0	0	
8	0	0	0	0	511	511	0	0	
9	0	0	0	0	508	511	0	0	
10	0	0	0	0	507	509	0	0	
11	0	0	0	0	506	508	0	0	
12	0	0	0	0	503	509	0	0	
13	0	0	0	0	507	512	0	0	
14	0	0	0	0	504	510	0	0	
15	0	0	0	0	504	509	0	0	
0	0	0	0	0	505	510	0	0	
1	0	0	0	0	504	509	0	0	
2	0	0	0	0	507	511	0	0	
3	0	0	0	0	506	510	0	0	
4	0	0	0	0	502	508	0	0	
5	0	0	0	0	507	508	0	0	
6	0	0	0	0	514	510	0	0	
7	0	0	0	0	515	511	0	0	
8	0	0	0	0	516	511	0	0	
9	0	0	0	0	515	511	0	0	
10	0	0	0	0	516	514	0	0	
11	0	0	0	0	509	511	0	0	
12	0	0	0	0	506	510	0	0	
13	0	0	0	0	508	509	0	0	
14	0	0	0	0	509	510	0	0	
15	0	0	0	0	510	511	0	0	
0	0	0	0	0	505	510	0	0	
1	0	0	0	0	502	512	0	0	
2	0	0	0	0	502	511	0	0	
3	0	0	0	0	504	512	0	0	
4	0	0	0	0	508	512	0	0	
5	0	0	0	0	505	512	0	0	
6	0	0	0	0	509	512	0	0	
7	0	0	0	0	508	511	0	0	
8	0	0	0	0	508	510	0	0	
9	0	0	0	0	511	511	0	0	
10	0	0	0	0	513	509	0	0	
11	0	0	0	0	512	510	0	0	
12	0	0	0	0	513	508	0	0	
13	0	0	0	0	513	510	0	0	
14	0	0	0	0	514	510	0	0	
15	0	0	0	0	514	512	0	0	
0	0	0	0	0	511	511	0	0	
1	0	0	0	0	510	511	0	0	
2	0	0	0	0	508	509	0	0	
3	0	0	0	0	504	511	0	0	
4	0	0	0	0	503	511	0	0	
5	0	0	0	0	507	511	0	0	
6	0	0	0	0	503	510	0	0	
7	0	0	0	0	503	509	0	0	
8	0	0	0	0	502	508	0	0	
9	0	0	0	0	504	510	0	0	
10	0	0	0	0	505	509	0	0	
11	0	0	0	0	508	510	0	0	
12	0	0	0	0	511	512	0	0	
13	0	0	0	0	512	513	0	0	
14	0	0	0	0	515	512	0	0	
15	0	0	0	0	516	511	0	0	
0	0	0	0	0	516	511	0	0	
1	0	0	0	0	517	512	0	0	
2	0	0	0	0	513	511	0	0	
3	0	0	0	0	508	512	0	0	
4	0	0	0	0	505	511	0	0	
5	0	0	0	0	508	510	0	0	
6	0	0	0	0	504	508	0	0	
7	0	0	0	0	504	508	0	0	
8	0	0	0	0	504	510	0	0	
9	0	0	0	0	504	509	0	0	
10	0	0	0	0	504	510	0	0	
11	0	0	0	0	504	509	0	0	
12	0	0	0	0	505	510	0	0	
13	0	0	0	0	505	509	0	0	
14	0	0	0	0	504	510	0	0	
15	0	0	0	0	508	511	0	0	
0	0	0	0	0	508	513	0	0	
1	0	0	0	0	509	511	0	0	
2	0	0	0	0	511	511	0	0	
3	0	0	0	0	511	512	0	0	
4	0	0	0	0	513	510	0	0	
5	0	0	0	0	513	510	0	0	
6	0	0	0	0	516	510	0	0	
7	0	0	0	0	515	510	0	0	
8	0	0	0	0	512	511	0	0	
9	0	0	0	0	511	510	0	0	
10	0	0	0	0	507	509	0	0	
11	0	0	0	0	506	511	0	0	
12	0	0	0	0	506	511	0	0	
13	0	0	0	0	505	511	0	0	
14	0	0	0	0	504	508	0	0	
15	0	0	0	0	502	509	0	0	
0	0	0	0	0	507	510	0	0	
1	0	0	0	0	504	511	0	0	
2	0	0	0	0	505	511	0	0	
3	0	0	0	0	509	509	0	0	
4	0	0	0	0	509	509	0	0	
5	0	0	0	0	510	513	0	0	
6	0	0	0	0	515	510	0	0	
7	0	0	0	0	516	512	0	0	
8	0	0	0	0	517	510	0	0	
9	0	0	0	0	508	511	0	0	
10	0	0	0	0	507	510	0	0	
11	0	0	0	0	510	513	0	0	
12	0	0	0	0	508	511	0	0	
13	0	0	0	0	508	511	0	0	
14	0	0	0	0	507	507	0	0	
15	0	0	0	0	501	507	0	0	
0	0	0	0	0	504	512	0	0	
1	0	0	0	0	508	510	0	0	
2	0	0	0	0	507	511	0	0	
3	0	0	0	0	501	511	0	0	
4	0	0	0	0	502	511	0	0	
5	0	0	0	0	505	511	0	0	
6	0	0	0	0	507	509	0	0	
7	0	0	0	0	507	508	0	0	
8	0	0	0	0	508	509	0	0	
9	0	0	0	0	512	511	0	0	
10	0	0	0	0	514	509	0	0	
11	0	0	0	0	515	510	0	0	
12	0	0	0	0	516	512	0	0	
13	0	0	0	0	514	510	0	0	
14	0	0	0	0	515	511	0	0	
15	0	0	0	0	513	510	0	0	
0	0	0	0	0	512	510	0	0	
1	0	0	0	0	511	511	0	0	
2	0	0	0	0	507	511	0	0	
3	0	0	0	0	506	510	0	0	
4	0	0	0	0	505	511	0	0	
5	0	0	0	0	503	511	0	0	
6	0	0	0	0	504	512	0	0	
7	0	0	0	0	502	513	0	0	
8	0	0	0	0	504	511	0	0	
9	0	0	0	0	504	512	0	0	
10	0	0	0	0	506	509	0	0	
11	0	0	0	0	508	509	0	0	
12	0	0	0	0	508	508	0	0	
13	0	0	0	0	510	511	0	0	
14	0	0	0	0	513	510	0	0	
15	0	0	0	0	513	511	0	0	
0	0	0	0	0	516	513	0	0	
1	0	0	0	0	512	509	0	0	
2	0	0	0	0	511	510	0	0	
3	0	0	0	0	512	511	0	0	
4	0	0	0	0	512	509	0	0	
5	0	0	0	0	510	512	0	0	
6	0	0	0	0	511	511	0	0	
7	0	0	0	0	508	510	0	0	
8	0	0	0	0	505	510	0	0	
9	0	0	0	0	503	509	0	0	
10	0	0	0	0	503	512	0	0	
11	0	0	0	0	502	509	0	0	
12	0	0	0	0	504	510	0	0	
13	0	0	0	0	504	511	0	0	
14	0	0	0	0	504	509	0	0	
15	0	0	0	0	505	508	0	0	
0	0	0	0	0	504	509	0	0	
1	0	0	0	0	510	509	0	0	
2	0	0	0	0	515	512	0	0	
3	0	0	0	0	514	513	0	0	
4	0	0	0	0	512	511	0	0	
5	0	0	0	0	515	511	0	0	
6	0	0	0	0	515	513	0	0	
7	0	0	0	0	512	512	0	0	
8	0	0	0	0	511	511	0	0	
9	0	0	0	0	509	511	0	0	
10	0	0	0	0	509	510	0	0	
11	0	0	0	0	504	510	0	0	
12	0	0	0	0	504	509	0	0	
13	0	0	0	0	505	510	0	0	
14	0	0	0	0	502	510	0	0	
15	0	0	0	0	503	510	0	0	
0	0	0	0	0	503	509	0	0	
1	0	0	0	0	504	510	0	0	
2	0	0	0	0	508	510	0	0	
3	0	0	0	0	508	510	0	0	
4	0	0	0	0	510	510	0	0	
5	0	0	0	0	512	511	0	0	
6	0	0	0	0	509	510	0	0	
7	0	0	0	0	512	511	0	0	
8	0	0	0	0	515	512	0	0	
9	0	0	0	0	512	510	0	0	
10	0	0	0	0	512	511	0	0	
11	0	0	0	0	513	514	0	0	
12	0	0	0	0	513	511	0	0	
13	0	0	0	0	511	509	0	0	
14	0	0	0	0	511	510	0	0	
15	0	0	0	0	507	512	0	0	
0	0	0	0	0	505	512	0	0	
1	0	0	0	0	503	511	0	0	
2	0	0	0	0	503	509	0	0	
3	0	0	0	0	502	511	0	0	
4	0	0	0	0	503	510	0	0	
5	0	0	0	0	501	509	0	0	
6	0	0	0	0	508	511	0	0	
7	0	0	0	0	508	510	0	0	
8	0	0	0	0	505	512	0	0	
9	0	0	0	0	504	509	0	0	
10	0	0	0	0	512	510	0	0	
11	0	0	0	0	514	510	0	0	
12	0	0	0	0	515	510	0	0	
13	0	0	0	0	512	508	0	0	
14	0	0	0	0	515	511	0	0	
15	0	0	0	0	515	510	0	0	
0	0	0	0	0	512	510	0	0	
1	0	0	0	0	511	510	0	0	
2	0	0	0	0	509	511	0	0	
3	0	0	0	0	506	511	0	0	
4	0	0	0	0	505	511	0	0	
5	0	0	0	0	505	512	0	0	
6	0	0	0	0	502	510	0	0	
7	0	0	0	0	500	511	0	0	
8	0	0	0	0	499	511	0	0	
9	0	0	0	0	501	509	0	0	
10	0	0	0	0	506	511	0	0	
11	0	0	0	0	506	512	0	0	
12	0	0	0	0	505	510	0	0	
13	0	0	0	0	509	510	0	0	
