# OpenSignals Text File Format. Version 1
# {"20:18:06:13:21:78": {"position": 0, "device": "bitalino_rev", "device name": "20:18:06:13:21:78", "device connection": "BTH20:18:06:13:21:78", "sampling rate": 1000, "resolution": [4, 1, 1, 1, 1, 10, 10, 10, 10], "firmware version": 1281, "comments": "", "keywords": "", "mode": 0, "sync interval": 2, "date": "2023-6-5", "time": "23:44:51.886", "channels": [1, 2, 3, 4], "sensor": ["EMGBITREV", "EMGBITREV", "RAW", "RAW"], "label": ["A1", "A2", "A3", "A4"], "column": ["nSeq", "I1", "I2", "O1", "O2", "A1", "A2", "A3", "A4"], "special": [{}, {}, {}, {}], "digital IO": [0, 0, 1, 1]}}
# EndOfHeader
0	0	0	0	0	508	512	0	0	
1	0	0	0	0	504	512	0	0	
2	0	0	0	0	505	513	0	0	
3	0	0	0	0	503	510	0	0	
4	0	0	0	0	500	509	0	0	
5	0	0	0	0	505	510	0	0	
6	0	0	0	0	508	511	0	0	
7	0	0	0	0	513	508	0	0	
8	0	0	0	0	514	510	0	0	
9	0	0	0	0	513	509	0	0	
10	0	0	0	0	512	510	0	0	
11	0	0	0	0	511	510	0	0	
12	0	0	0	0	513	511	0	0	
13	0	0	0	0	512	513	0	0	
14	0	0	0	0	513	511	0	0	
15	0	0	0	0	510	509	0	0	
0	0	0	0	0	508	512	0	0	
1	0	0	0	0	505	511	0	0	
2	0	0	0	0	505	511	0	0	
3	0	0	0	0	504	509	0	0	
4	0	0	0	0	504	511	0	0	
5	0	0	0	0	504	510	0	0	
6	0	0	0	0	504	511	0	0	
7	0	0	0	0	507	509	0	0	
8	0	0	0	0	509	510	0	0	
9	0	0	0	0	508	511	0	0	
10	0	0	0	0	507	512	0	0	
11	0	0	0	0	509	509	0	0	
12	0	0	0	0	510	512	0	0	
13	0	0	0	0	512	510	0	0	
14	0	0	0	0	511	510	0	0	
15	0	0	0	0	513	511	0	0	
0	0	0	0	0	512	511	0	0	
1	0	0	0	0	512	511	0	0	
2	0	0	0	0	511	513	0	0	
3	0	0	0	0	507	513	0	0	
4	0	0	0	0	508	508	0	0	
5	0	0	0	0	508	510	0	0	
6	0	0	0	0	507	510	0	0	
7	0	0	0	0	507	510	0	0	
8	0	0	0	0	508	507	0	0	
9	0	0	0	0	508	509	0	0	
10	0	0	0	0	505	507	0	0	
11	0	0	0	0	506	510	0	0	
12	0	0	0	0	505	508	0	0	
13	0	0	0	0	506	510	0	0	
14	0	0	0	0	511	513	0	0	
15	0	0	0	0	510	510	0	0	
0	0	0	0	0	509	509	0	0	
1	0	0	0	0	511	512	0	0	
2	0	0	0	0	510	511	0	0	
3	0	0	0	0	510	513	0	0	
4	0	0	0	0	512	512	0	0	
5	0	0	0	0	512	510	0	0	
6	0	0	0	0	510	512	0	0	
7	0	0	0	0	510	512	0	0	
8	0	0	0	0	510	511	0	0	
9	0	0	0	0	509	512	0	0	
10	0	0	0	0	505	507	0	0	
11	0	0	0	0	504	509	0	0	
12	0	0	0	0	505	511	0	0	
13	0	0	0	0	504	510	0	0	
14	0	0	0	0	505	510	0	0	
15	0	0	0	0	504	509	0	0	
0	0	0	0	0	505	510	0	0	
1	0	0	0	0	507	510	0	0	
2	0	0	0	0	505	510	0	0	
3	0	0	0	0	507	508	0	0	
4	0	0	0	0	512	509	0	0	
5	0	0	0	0	511	510	0	0	
6	0	0	0	0	509	511	0	0	
7	0	0	0	0	515	511	0	0	
8	0	0	0	0	512	511	0	0	
9	0	0	0	0	512	511	0	0	
10	0	0	0	0	512	513	0	0	
11	0	0	0	0	512	512	0	0	
12	0	0	0	0	510	510	0	0	
13	0	0	0	0	508	511	0	0	
14	0	0	0	0	504	512	0	0	
15	0	0	0	0	505	512	0	0	
0	0	0	0	0	504	509	0	0	
1	0	0	0	0	503	510	0	0	
2	0	0	0	0	507	508	0	0	
3	0	0	0	0	507	511	0	0	
4	0	0	0	0	507	509	0	0	
5	0	0	0	0	508	510	0	0	
6	0	0	0	0	508	508	0	0	
7	0	0	0	0	511	511	0	0	
8	0	0	0	0	509	510	0	0	
9	0	0	0	0	509	512	0	0	
10	0	0	0	0	509	511	0	0	
11	0	0	0	0	512	511	0	0	
12	0	0	0	0	514	511	0	0	
13	0	0	0	0	512	510	0	0	
14	0	0	0	0	511	511	0	0	
15	0	0	0	0	512	511	0	0	
0	0	0	0	0	508	510	0	0	
1	0	0	0	0	510	510	0	0	
2	0	0	0	0	505	510	0	0	
3	0	0	0	0	504	511	0	0	
4	0	0	0	0	507	510	0	0	
5	0	0	0	0	505	511	0	0	
6	0	0	0	0	504	509	0	0	
7	0	0	0	0	504	508	0	0	
8	0	0	0	0	507	510	0	0	
9	0	0	0	0	505	511	0	0	
10	0	0	0	0	507	512	0	0	
11	0	0	0	0	510	512	0	0	
12	0	0	0	0	514	509	0	0	
13	0	0	0	0	513	508	0	0	
14	0	0	0	0	508	511	0	0	
15	0	0	0	0	510	510	0	0	
0	0	0	0	0	512	513	0	0	
1	0	0	0	0	514	512	0	0	
2	0	0	0	0	512	512	0	0	
3	0	0	0	0	510	512	0	0	
4	0	0	0	0	503	513	0	0	
5	0	0	0	0	507	511	0	0	
6	0	0	0	0	509	510	0	0	
7	0	0	0	0	507	512	0	0	
8	0	0	0	0	504	508	0	0	
9	0	0	0	0	506	508	0	0	
10	0	0	0	0	511	508	0	0	
11	0	0	0	0	510	509	0	0	
12	0	0	0	0	509	510	0	0	
13	0	0	0	0	506	509	0	0	
14	0	0	0	0	505	509	0	0	
15	0	0	0	0	506	512	0	0	
0	0	0	0	0	510	513	0	0	
1	0	0	0	0	510	512	0	0	
2	0	0	0	0	507	511	0	0	
3	0	0	0	0	509	513	0	0	
4	0	0	0	0	515	511	0	0	
5	0	0	0	0	513	510	0	0	
6	0	0	0	0	513	511	0	0	
7	0	0	0	0	509	512	0	0	
8	0	0	0	0	508	511	0	0	
9	0	0	0	0	511	511	0	0	
10	0	0	0	0	509	510	0	0	
11	0	0	0	0	505	510	0	0	
12	0	0	0	0	506	510	0	0	
13	0	0	0	0	505	511	0	0	
14	0	0	0	0	504	511	0	0	
15	0	0	0	0	504	512	0	0	
0	0	0	0	0	505	510	0	0	
1	0	0	0	0	506	511	0	0	
2	0	0	0	0	508	511	0	0	
3	0	0	0	0	507	509	0	0	
4	0	0	0	0	510	510	0	0	
5	0	0	0	0	513	511	0	0	
6	0	0	0	0	514	512	0	0	
7	0	0	0	0	515	511	0	0	
8	0	0	0	0	514	508	0	0	
9	0	0	0	0	510	510	0	0	
10	0	0	0	0	511	511	0	0	
11	0	0	0	0	510	510	0	0	
12	0	0	0	0	509	512	0	0	
13	0	0	0	0	509	512	0	0	
14	0	0	0	0	504	511	0	0	
15	0	0	0	0	505	510	0	0	
0	0	0	0	0	505	510	0	0	
1	0	0	0	0	507	510	0	0	
2	0	0	0	0	505	510	0	0	
3	0	0	0	0	504	510	0	0	
4	0	0	0	0	501	509	0	0	
5	0	0	0	0	508	508	0	0	
6	0	0	0	0	508	511	0	0	
7	0	0	0	0	508	509	0	0	
8	0	0	0	0	511	510	0	0	
9	0	0	0	0	511	512	0	0	
10	0	0	0	0	514	511	0	0	
11	0	0	0	0	515	511	0	0	
12	0	0	0	0	515	512	0	0	
13	0	0	0	0	512	510	0	0	
14	0	0	0	0	512	511	0	0	
15	0	0	0	0	508	512	0	0	
0	0	0	0	0	510	511	0	0	
1	0	0	0	0	505	510	0	0	
2	0	0	0	0	505	511	0	0	
3	0	0	0	0	508	510	0	0	
4	0	0	0	0	509	509	0	0	
5	0	0	0	0	506	511	0	0	
6	0	0	0	0	503	511	0	0	
7	0	0	0	0	502	508	0	0	
8	0	0	0	0	504	508	0	0	
9	0	0	0	0	508	508	0	0	
10	0	0	0	0	511	510	0	0	
11	0	0	0	0	511	509	0	0	
12	0	0	0	0	509	512	0	0	
13	0	0	0	0	510	510	0	0	
14	0	0	0	0	510	510	0	0	
15	0	0	0	0	513	512	0	0	
0	0	0	0	0	511	509	0	0	
1	0	0	0	0	512	510	0	0	
2	0	0	0	0	510	510	0	0	
3	0	0	0	0	511	511	0	0	
4	0	0	0	0	509	511	0	0	
5	0	0	0	0	509	509	0	0	
6	0	0	0	0	506	512	0	0	
7	0	0	0	0	505	511	0	0	
8	0	0	0	0	505	509	0	0	
9	0	0	0	0	505	509	0	0	
10	0	0	0	0	506	509	0	0	
11	0	0	0	0	504	511	0	0	
12	0	0	0	0	507	511	0	0	
13	0	0	0	0	506	511	0	0	
14	0	0	0	0	506	510	0	0	
15	0	0	0	0	508	509	0	0	
0	0	0	0	0	510	512	0	0	
1	0	0	0	0	509	512	0	0	
2	0	0	0	0	509	512	0	0	
3	0	0	0	0	512	510	0	0	
4	0	0	0	0	512	512	0	0	
5	0	0	0	0	513	512	0	0	
6	0	0	0	0	518	513	0	0	
7	0	0	0	0	515	512	0	0	
8	0	0	0	0	511	511	0	0	
9	0	0	0	0	508	510	0	0	
10	0	0	0	0	505	510	0	0	
11	0	0	0	0	507	510	0	0	
12	0	0	0	0	505	510	0	0	
13	0	0	0	0	505	509	0	0	
14	0	0	0	0	505	509	0	0	
15	0	0	0	0	505	509	0	0	
0	0	0	0	0	505	510	0	0	
1	0	0	0	0	508	509	0	0	
2	0	0	0	0	504	511	0	0	
3	0	0	0	0	504	512	0	0	
4	0	0	0	0	507	511	0	0	
5	0	0	0	0	511	510	0	0	
6	0	0	0	0	512	513	0	0	
7	0	0	0	0	515	511	0	0	
8	0	0	0	0	515	510	0	0	
9	0	0	0	0	515	512	0	0	
10	0	0	0	0	511	510	0	0	
11	0	0	0	0	507	510	0	0	
12	0	0	0	0	507	510	0	0	
13	0	0	0	0	508	513	0	0	
14	0	0	0	0	509	511	0	0	
15	0	0	0	0	509	511	0	0	
0	0	0	0	0	506	511	0	0	
1	0	0	0	0	504	508	0	0	
2	0	0	0	0	503	509	0	0	
3	0	0	0	0	504	510	0	0	
4	0	0	0	0	507	509	0	0	
5	0	0	0	0	505	510	0	0	
6	0	0	0	0	507	510	0	0	
7	0	0	0	0	510	510	0	0	
8	0	0	0	0	510	510	0	0	
9	0	0	0	0	513	510	0	0	
10	0	0	0	0	511	510	0	0	
11	0	0	0	0	513	512	0	0	
12	0	0	0	0	511	513	0	0	
13	0	0	0	0	514	511	0	0	
14	0	0	0	0	512	511	0	0	
15	0	0	0	0	510	511	0	0	
0	0	0	0	0	511	511	0	0	
1	0	0	0	0	507	511	0	0	
2	0	0	0	0	506	509	0	0	
3	0	0	0	0	504	509	0	0	
4	0	0	0	0	503	511	0	0	
5	0	0	0	0	501	511	0	0	
6	0	0	0	0	506	512	0	0	
7	0	0	0	0	507	510	0	0	
8	0	0	0	0	504	509	0	0	
9	0	0	0	0	505	510	0	0	
10	0	0	0	0	508	510	0	0	
11	0	0	0	0	508	511	0	0	
12	0	0	0	0	511	512	0	0	
13	0	0	0	0	515	513	0	0	
14	0	0	0	0	516	510	0	0	
15	0	0	0	0	515	511	0	0	
0	0	0	0	0	516	513	0	0	
1	0	0	0	0	515	510	0	0	
2	0	0	0	0	511	511	0	0	
3	0	0	0	0	507	511	0	0	
4	0	0	0	0	507	511	0	0	
5	0	0	0	0	506	510	0	0	
6	0	0	0	0	506	508	0	0	
7	0	0	0	0	503	511	0	0	
8	0	0	0	0	503	509	0	0	
9	0	0	0	0	506	512	0	0	
10	0	0	0	0	506	508	0	0	
11	0	0	0	0	504	511	0	0	
12	0	0	0	0	503	510	0	0	
13	0	0	0	0	501	509	0	0	
14	0	0	0	0	506	510	0	0	
15	0	0	0	0	510	507	0	0	
0	0	0	0	0	511	510	0	0	
1	0	0	0	0	511	510	0	0	
2	0	0	0	0	512	510	0	0	
3	0	0	0	0	519	512	0	0	
4	0	0	0	0	519	510	0	0	
5	0	0	0	0	513	512	0	0	
6	0	0	0	0	512	511	0	0	
7	0	0	0	0	509	510	0	0	
8	0	0	0	0	509	513	0	0	
9	0	0	0	0	508	511	0	0	
10	0	0	0	0	507	509	0	0	
11	0	0	0	0	505	509	0	0	
12	0	0	0	0	505	511	0	0	
13	0	0	0	0	503	510	0	0	
14	0	0	0	0	505	511	0	0	
15	0	0	0	0	505	510	0	0	
0	0	0	0	0	505	510	0	0	
1	0	0	0	0	508	510	0	0	
2	0	0	0	0	506	510	0	0	
3	0	0	0	0	507	508	0	0	
4	0	0	0	0	510	511	0	0	
5	0	0	0	0	511	512	0	0	
6	0	0	0	0	511	513	0	0	
7	0	0	0	0	516	513	0	0	
8	0	0	0	0	514	512	0	0	
9	0	0	0	0	513	510	0	0	
10	0	0	0	0	511	513	0	0	
11	0	0	0	0	508	511	0	0	
12	0	0	0	0	506	510	0	0	
13	0	0	0	0	506	512	0	0	
14	0	0	0	0	509	512	0	0	
15	0	0	0	0	509	510	0	0	
0	0	0	0	0	508	510	0	0	
1	0	0	0	0	500	507	0	0	
2	0	0	0	0	501	509	0	0	
3	0	0	0	0	504	508	0	0	
4	0	0	0	0	507	511	0	0	
5	0	0	0	0	507	510	0	0	
6	0	0	0	0	506	510	0	0	
7	0	0	0	0	509	511	0	0	
8	0	0	0	0	513	512	0	0	
9	0	0	0	0	517	512	0	0	
10	0	0	0	0	515	510	0	0	
11	0	0	0	0	511	511	0	0	
12	0	0	0	0	511	509	0	0	
13	0	0	0	0	510	509	0	0	
14	0	0	0	0	510	512	0	0	
15	0	0	0	0	508	512	0	0	
0	0	0	0	0	511	511	0	0	
1	0	0	0	0	511	511	0	0	
2	0	0	0	0	506	510	0	0	
3	0	0	0	0	502	510	0	0	
4	0	0	0	0	503	509	0	0	
5	0	0	0	0	505	510	0	0	
6	0	0	0	0	509	511	0	0	
7	0	0	0	0	508	508	0	0	
8	0	0	0	0	507	510	0	0	
9	0	0	0	0	505	506	0	0	
10	0	0	0	0	505	510	0	0	
11	0	0	0	0	508	510	0	0	
12	0	0	0	0	509	509	0	0	
13	0	0	0	0	512	510	0	0	
14	0	0	0	0	511	510	0	0	
15	0	0	0	0	511	510	0	0	
0	0	0	0	0	511	513	0	0	
1	0	0	0	0	511	512	0	0	
2	0	0	0	0	508	511	0	0	
3	0	0	0	0	508	514	0	0	
4	0	0	0	0	513	512	0	0	
5	0	0	0	0	510	512	0	0	
6	0	0	0	0	505	510	0	0	
7	0	0	0	0	503	511	0	0	
8	0	0	0	0	504	510	0	0	
9	0	0	0	0	506	509	0	0	
10	0	0	0	0	506	510	0	0	
11	0	0	0	0	508	508	0	0	
12	0	0	0	0	509	508	0	0	
13	0	0	0	0	509	508	0	0	
14	0	0	0	0	512	511	0	0	
15	0	0	0	0	511	510	0	0	
0	0	0	0	0	510	512	0	0	
1	0	0	0	0	509	511	0	0	
2	0	0	0	0	511	510	0	0	
3	0	0	0	0	509	511	0	0	
4	0	0	0	0	511	510	0	0	
5	0	0	0	0	511	511	0	0	
6	0	0	0	0	511	510	0	0	
7	0	0	0	0	512	512	0	0	
8	0	0	0	0	511	512	0	0	
9	0	0	0	0	507	511	0	0	
10	0	0	0	0	508	510	0	0	
11	0	0	0	0	504	510	0	0	
12	0	0	0	0	504	509	0	0	
13	0	0	0	0	503	510	0	0	
14	0	0	0	0	506	509	0	0	
15	0	0	0	0	504	510	0	0	
0	0	0	0	0	505	511	0	0	
1	0	0	0	0	510	511	0	0	
2	0	0	0	0	511	510	0	0	
3	0	0	0	0	510	512	0	0	
4	0	0	0	0	510	510	0	0	
5	0	0	0	0	508	508	0	0	
6	0	0	0	0	511	511	0	0	
7	0	0	0	0	511	511	0	0	
8	0	0	0	0	513	511	0	0	
9	0	0	0	0	510	512	0	0	
10	0	0	0	0	509	510	0	0	
11	0	0	0	0	510	512	0	0	
12	0	0	0	0	506	512	0	0	
13	0	0	0	0	510	510	0	0	
14	0	0	0	0	511	510	0	0	
15	0	0	0	0	512	511	0	0	
0	0	0	0	0	513	509	0	0	
1	0	0	0	0	509	508	0	0	
2	0	0	0	0	504	509	0	0	
3	0	0	0	0	503	509	0	0	
4	0	0	0	0	504	510	0	0	
5	0	0	0	0	506	508	0	0	
6	0	0	0	0	505	510	0	0	
7	0	0	0	0	506	511	0	0	
8	0	0	0	0	511	510	0	0	
9	0	0	0	0	512	512	0	0	
10	0	0	0	0	513	512	0	0	
11	0	0	0	0	512	511	0	0	
12	0	0	0	0	513	511	0	0	
13	0	0	0	0	509	511	0	0	
14	0	0	0	0	512	511	0	0	
15	0	0	0	0	509	510	0	0	
0	0	0	0	0	509	512	0	0	
1	0	0	0	0	508	510	0	0	
2	0	0	0	0	506	509	0	0	
3	0	0	0	0	506	510	0	0	
4	0	0	0	0	505	510	0	0	
5	0	0	0	0	504	512	0	0	
6	0	0	0	0	502	511	0	0	
7	0	0	0	0	505	508	0	0	
8	0	0	0	0	505	510	0	0	
9	0	0	0	0	511	508	0	0	
10	0	0	0	0	511	508	0	0	
11	0	0	0	0	509	509	0	0	
12	0	0	0	0	510	509	0	0	
13	0	0	0	0	510	511	0	0	
14	0	0	0	0	511	511	0	0	
15	0	0	0	0	511	512	0	0	
0	0	0	0	0	513	511	0	0	
1	0	0	0	0	512	511	0	0	
2	0	0	0	0	509	510	0	0	
3	0	0	0	0	509	512	0	0	
4	0	0	0	0	510	511	0	0	
5	0	0	0	0	510	511	0	0	
6	0	0	0	0	507	512	0	0	
7	0	0	0	0	505	509	0	0	
8	0	0	0	0	504	509	0	0	
9	0	0	0	0	506	511	0	0	
10	0	0	0	0	502	508	0	0	
11	0	0	0	0	502	511	0	0	
12	0	0	0	0	504	512	0	0	
13	0	0	0	0	509	511	0	0	
14	0	0	0	0	513	509	0	0	
15	0	0	0	0	510	512	0	0	
0	0	0	0	0	509	510	0	0	
1	0	0	0	0	509	511	0	0	
2	0	0	0	0	510	511	0	0	
3	0	0	0	0	507	510	0	0	
4	0	0	0	0	509	512	0	0	
5	0	0	0	0	515	511	0	0	
6	0	0	0	0	514	511	0	0	
7	0	0	0	0	513	510	0	0	
8	0	0	0	0	512	511	0	0	
9	0	0	0	0	510	511	0	0	
10	0	0	0	0	505	509	0	0	
11	0	0	0	0	505	510	0	0	
12	0	0	0	0	504	509	0	0	
13	0	0	0	0	504	511	0	0	
14	0	0	0	0	505	511	0	0	
15	0	0	0	0	508	509	0	0	
0	0	0	0	0	504	508	0	0	
1	0	0	0	0	503	511	0	0	
2	0	0	0	0	505	509	0	0	
3	0	0	0	0	508	510	0	0	
4	0	0	0	0	511	511	0	0	
5	0	0	0	0	512	513	0	0	
6	0	0	0	0	513	512	0	0	
7	0	0	0	0	515	512	0	0	
8	0	0	0	0	514	512	0	0	
9	0	0	0	0	512	511	0	0	
10	0	0	0	0	508	509	0	0	
11	0	0	0	0	506	511	0	0	
12	0	0	0	0	509	511	0	0	
13	0	0	0	0	508	509	0	0	
14	0	0	0	0	509	510	0	0	
15	0	0	0	0	510	511	0	0	
0	0	0	0	0	508	510	0	0	
1	0	0	0	0	504	508	0	0	
2	0	0	0	0	503	508	0	0	
3	0	0	0	0	504	510	0	0	
4	0	0	0	0	507	511	0	0	
5	0	0	0	0	507	511	0	0	
6	0	0	0	0	507	508	0	0	
7	0	0	0	0	508	513	0	0	
8	0	0	0	0	512	510	0	0	
9	0	0	0	0	511	512	0	0	
10	0	0	0	0	512	510	0	0	
11	0	0	0	0	514	512	0	0	
12	0	0	0	0	513	510	0	0	
13	0	0	0	0	511	510	0	0	
14	0	0	0	0	507	513	0	0	
15	0	0	0	0	508	511	0	0	
0	0	0	0	0	509	510	0	0	
1	0	0	0	0	509	512	0	0	
2	0	0	0	0	508	510	0	0	
3	0	0	0	0	505	510	0	0	
4	0	0	0	0	505	508	0	0	
5	0	0	0	0	505	511	0	0	
6	0	0	0	0	505	511	0	0	
7	0	0	0	0	508	509	0	0	
8	0	0	0	0	507	508	0	0	
9	0	0	0	0	504	510	0	0	
10	0	0	0	0	509	510	0	0	
11	0	0	0	0	511	509	0	0	
12	0	0	0	0	509	513	0	0	
13	0	0	0	0	509	510	0	0	
14	0	0	0	0	510	512	0	0	
15	0	0	0	0	511	511	0	0	
0	0	0	0	0	512	512	0	0	
1	0	0	0	0	510	512	0	0	
2	0	0	0	0	511	513	0	0	
3	0	0	0	0	510	511	0	0	
4	0	0	0	0	516	508	0	0	
5	0	0	0	0	510	509	0	0	
6	0	0	0	0	508	509	0	0	
7	0	0	0	0	508	510	0	0	
8	0	0	0	0	507	511	0	0	
9	0	0	0	0	504	511	0	0	
10	0	0	0	0	503	509	0	0	
11	0	0	0	0	502	509	0	0	
12	0	0	0	0	502	511	0	0	
13	0	0	0	0	506	509	0	0	
14	0	0	0	0	507	512	0	0	
15	0	0	0	0	514	510	0	0	
0	0	0	0	0	512	510	0	0	
1	0	0	0	0	511	510	0	0	
2	0	0	0	0	512	508	0	0	
3	0	0	0	0	511	512	0	0	
4	0	0	0	0	512	511	0	0	
5	0	0	0	0	513	512	0	0	
6	0	0	0	0	509	512	0	0	
7	0	0	0	0	510	511	0	0	
8	0	0	0	0	509	513	0	0	
9	0	0	0	0	509	510	0	0	
10	0	0	0	0	508	511	0	0	
11	0	0	0	0	509	509	0	0	
12	0	0	0	0	508	510	0	0	
13	0	0	0	0	505	510	0	0	
14	0	0	0	0	503	510	0	0	
15	0	0	0	0	504	507	0	0	
0	0	0	0	0	504	509	0	0	
1	0	0	0	0	505	511	0	0	
2	0	0	0	0	508	512	0	0	
3	0	0	0	0	509	510	0	0	
4	0	0	0	0	512	511	0	0	
5	0	0	0	0	511	508	0	0	
6	0	0	0	0	512	508	0	0	
7	0	0	0	0	509	511	0	0	
8	0	0	0	0	511	511	0	0	
9	0	0	0	0	512	511	0	0	
10	0	0	0	0	514	512	0	0	
11	0	0	0	0	513	513	0	0	
12	0	0	0	0	511	513	0	0	
13	0	0	0	0	510	508	0	0	
14	0	0	0	0	505	509	0	0	
15	0	0	0	0	504	511	0	0	
0	0	0	0	0	503	509	0	0	
1	0	0	0	0	503	509	0	0	
2	0	0	0	0	504	512	0	0	
3	0	0	0	0	503	509	0	0	
4	0	0	0	0	508	512	0	0	
5	0	0	0	0	509	512	0	0	
6	0	0	0	0	507	510	0	0	
7	0	0	0	0	511	510	0	0	
8	0	0	0	0	508	508	0	0	
9	0	0	0	0	508	512	0	0	
10	0	0	0	0	509	513	0	0	
11	0	0	0	0	512	513	0	0	
12	0	0	0	0	511	511	0	0	
13	0	0	0	0	508	512	0	0	
14	0	0	0	0	513	509	0	0	
15	0	0	0	0	513	511	0	0	
0	0	0	0	0	512	511	0	0	
1	0	0	0	0	509	509	0	0	
2	0	0	0	0	505	510	0	0	
3	0	0	0	0	504	510	0	0	
4	0	0	0	0	504	511	0	0	
5	0	0	0	0	504	511	0	0	
6	0	0	0	0	504	508	0	0	
7	0	0	0	0	505	510	0	0	
8	0	0	0	0	504	509	0	0	
9	0	0	0	0	507	508	0	0	
10	0	0	0	0	510	509	0	0	
11	0	0	0	0	511	508	0	0	
12	0	0	0	0	511	511	0	0	
13	0	0	0	0	512	510	0	0	
14	0	0	0	0	511	512	0	0	
15	0	0	0	0	511	511	0	0	
0	0	0	0	0	511	512	0	0	
1	0	0	0	0	510	513	0	0	
2	0	0	0	0	511	511	0	0	
3	0	0	0	0	512	512	0	0	
4	0	0	0	0	510	511	0	0	
5	0	0	0	0	508	508	0	0	
6	0	0	0	0	504	512	0	0	
7	0	0	0	0	503	512	0	0	
8	0	0	0	0	505	508	0	0	
9	0	0	0	0	504	508	0	0	
10	0	0	0	0	507	510	0	0	
11	0	0	0	0	508	508	0	0	
12	0	0	0	0	505	510	0	0	
13	0	0	0	0	503	510	0	0	
14	0	0	0	0	504	512	0	0	
15	0	0	0	0	507	510	0	0	
0	0	0	0	0	515	509	0	0	
1	0	0	0	0	516	508	0	0	
2	0	0	0	0	512	509	0	0	
3	0	0	0	0	514	513	0	0	
4	0	0	0	0	512	511	0	0	
5	0	0	0	0	510	513	0	0	
6	0	0	0	0	510	511	0	0	
7	0	0	0	0	506	512	0	0	
8	0	0	0	0	505	510	0	0	
9	0	0	0	0	505	510	0	0	
10	0	0	0	0	504	509	0	0	
11	0	0	0	0	507	510	0	0	
12	0	0	0	0	509	509	0	0	
13	0	0	0	0	510	509	0	0	
14	0	0	0	0	510	511	0	0	
15	0	0	0	0	507	510	0	0	
0	0	0	0	0	505	511	0	0	
1	0	0	0	0	505	511	0	0	
2	0	0	0	0	508	510	0	0	
3	0	0	0	0	507	510	0	0	
4	0	0	0	0	507	511	0	0	
5	0	0	0	0	510	512	0	0	
6	0	0	0	0	513	511	0	0	
7	0	0	0	0	513	511	0	0	
8	0	0	0	0	511	509	0	0	
9	0	0	0	0	512	510	0	0	
10	0	0	0	0	509	512	0	0	
11	0	0	0	0	510	511	0	0	
12	0	0	0	0	508	509	0	0	
13	0	0	0	0	507	511	0	0	
14	0	0	0	0	510	510	0	0	
15	0	0	0	0	507	510	0	0	
0	0	0	0	0	505	510	0	0	
1	0	0	0	0	505	511	0	0	
2	0	0	0	0	506	508	0	0	
3	0	0	0	0	506	509	0	0	
4	0	0	0	0	508	510	0	0	
5	0	0	0	0	506	511	0	0	
6	0	0	0	0	507	509	0	0	
7	0	0	0	0	507	512	0	0	
8	0	0	0	0	508	513	0	0	
9	0	0	0	0	511	513	0	0	
10	0	0	0	0	513	512	0	0	
11	0	0	0	0	514	511	0	0	
12	0	0	0	0	514	510	0	0	
13	0	0	0	0	511	508	0	0	
14	0	0	0	0	511	511	0	0	
15	0	0	0	0	505	510	0	0	
0	0	0	0	0	507	511	0	0	
1	0	0	0	0	510	511	0	0	
2	0	0	0	0	512	512	0	0	
3	0	0	0	0	505	511	0	0	
4	0	0	0	0	503	509	0	0	
5	0	0	0	0	507	510	0	0	
6	0	0	0	0	506	510	0	0	
7	0	0	0	0	505	509	0	0	
8	0	0	0	0	503	511	0	0	
9	0	0	0	0	503	510	0	0	
10	0	0	0	0	507	512	0	0	
11	0	0	0	0	508	509	0	0	
12	0	0	0	0	508	512	0	0	
13	0	0	0	0	512	512	0	0	
14	0	0	0	0	515	511	0	0	
15	0	0	0	0	516	513	0	0	
0	0	0	0	0	515	510	0	0	
1	0	0	0	0	510	511	0	0	
2	0	0	0	0	514	510	0	0	
3	0	0	0	0	515	512	0	0	
4	0	0	0	0	509	510	0	0	
5	0	0	0	0	508	511	0	0	
6	0	0	0	0	503	512	0	0	
7	0	0	0	0	504	511	0	0	
8	0	0	0	0	504	509	0	0	
9	0	0	0	0	503	508	0	0	
10	0	0	0	0	503	508	0	0	
11	0	0	0	0	505	510	0	0	
12	0	0	0	0	506	511	0	0	
13	0	0	0	0	506	511	0	0	
14	0	0	0	0	508	511	0	0	
15	0	0	0	0	511	509	0	0	
0	0	0	0	0	511	511	0	0	
1	0	0	0	0	507	512	0	0	
2	0	0	0	0	511	507	0	0	
3	0	0	0	0	514	509	0	0	
4	0	0	0	0	512	510	0	0	
5	0	0	0	0	511	509	0	0	
6	0	0	0	0	512	512	0	0	
7	0	0	0	0	515	513	0	0	
8	0	0	0	0	511	512	0	0	
9	0	0	0	0	508	510	0	0	
10	0	0	0	0	507	511	0	0	
11	0	0	0	0	504	511	0	0	
12	0	0	0	0	506	510	0	0	
13	0	0	0	0	505	510	0	0	
14	0	0	0	0	502	510	0	0	
15	0	0	0	0	503	509	0	0	
0	0	0	0	0	506	511	0	0	
1	0	0	0	0	509	510	0	0	
2	0	0	0	0	510	508	0	0	
3	0	0	0	0	506	510	0	0	
4	0	0	0	0	510	511	0	0	
5	0	0	0	0	512	512	0	0	
6	0	0	0	0	511	511	0	0	
7	0	0	0	0	515	514	0	0	
8	0	0	0	0	513	512	0	0	
9	0	0	0	0	511	510	0	0	
10	0	0	0	0	508	512	0	0	
11	0	0	0	0	509	512	0	0	
12	0	0	0	0	508	511	0	0	
13	0	0	0	0	509	510	0	0	
14	0	0	0	0	511	512	0	0	
15	0	0	0	0	505	510	0	0	
0	0	0	0	0	503	511	0	0	
1	0	0	0	0	501	510	0	0	
2	0	0	0	0	501	510	0	0	
3	0	0	0	0	502	508	0	0	
4	0	0	0	0	507	510	0	0	
5	0	0	0	0	508	509	0	0	
6	0	0	0	0	511	509	0	0	
7	0	0	0	0	511	512	0	0	
8	0	0	0	0	513	512	0	0	
9	0	0	0	0	518	509	0	0	
10	0	0	0	0	520	511	0	0	
11	0	0	0	0	515	509	0	0	
12	0	0	0	0	511	510	0	0	
13	0	0	0	0	508	508	0	0	
14	0	0	0	0	510	511	0	0	
15	0	0	0	0	507	511	0	0	
0	0	0	0	0	505	509	0	0	
1	0	0	0	0	502	510	0	0	
2	0	0	0	0	499	510	0	0	
3	0	0	0	0	497	510	0	0	
4	0	0	0	0	498	511	0	0	
5	0	0	0	0	500	511	0	0	
6	0	0	0	0	502	510	0	0	
7	0	0	0	0	508	511	0	0	
8	0	0	0	0	521	510	0	0	
9	0	0	0	0	525	510	0	0	
10	0	0	0	0	524	511	0	0	
11	0	0	0	0	512	511	0	0	
12	0	0	0	0	506	512	0	0	
13	0	0	0	0	504	511	0	0	
14	0	0	0	0	504	511	0	0	
15	0	0	0	0	506	510	0	0	
0	0	0	0	0	511	511	0	0	
1	0	0	0	0	516	513	0	0	
2	0	0	0	0	517	509	0	0	
3	0	0	0	0	512	511	0	0	
4	0	0	0	0	505	508	0	0	
5	0	0	0	0	504	510	0	0	
6	0	0	0	0	503	510	0	0	
7	0	0	0	0	505	511	0	0	
8	0	0	0	0	506	509	0	0	
9	0	0	0	0	503	512	0	0	
10	0	0	0	0	504	509	0	0	
11	0	0	0	0	502	510	0	0	
12	0	0	0	0	506	509	0	0	
13	0	0	0	0	505	510	0	0	
14	0	0	0	0	506	511	0	0	
15	0	0	0	0	506	512	0	0	
0	0	0	0	0	509	509	0	0	
1	0	0	0	0	514	511	0	0	
2	0	0	0	0	512	511	0	0	
3	0	0	0	0	512	512	0	0	
4	0	0	0	0	514	511	0	0	
5	0	0	0	0	511	508	0	0	
6	0	0	0	0	513	512	0	0	
7	0	0	0	0	514	511	0	0	
8	0	0	0	0	509	511	0	0	
9	0	0	0	0	505	510	0	0	
10	0	0	0	0	504	512	0	0	
11	0	0	0	0	504	512	0	0	
12	0	0	0	0	507	510	0	0	
13	0	0	0	0	506	511	0	0	
14	0	0	0	0	505	510	0	0	
15	0	0	0	0	509	511	0	0	
0	0	0	0	0	505	509	0	0	
1	0	0	0	0	505	509	0	0	
2	0	0	0	0	508	508	0	0	
3	0	0	0	0	505	507	0	0	
4	0	0	0	0	505	509	0	0	
5	0	0	0	0	510	511	0	0	
6	0	0	0	0	512	512	0	0	
7	0	0	0	0	521	513	0	0	
8	0	0	0	0	511	512	0	0	
9	0	0	0	0	507	511	0	0	
10	0	0	0	0	510	513	0	0	
11	0	0	0	0	511	513	0	0	
12	0	0	0	0	512	515	0	0	
13	0	0	0	0	508	513	0	0	
14	0	0	0	0	509	512	0	0	
15	0	0	0	0	511	511	0	0	
0	0	0	0	0	513	511	0	0	
1	0	0	0	0	505	510	0	0	
2	0	0	0	0	504	508	0	0	
3	0	0	0	0	501	511	0	0	
4	0	0	0	0	504	508	0	0	
5	0	0	0	0	508	509	0	0	
6	0	0	0	0	507	511	0	0	
7	0	0	0	0	507	509	0	0	
8	0	0	0	0	510	510	0	0	
9	0	0	0	0	508	509	0	0	
10	0	0	0	0	503	512	0	0	
11	0	0	0	0	505	511	0	0	
12	0	0	0	0	511	511	0	0	
13	0	0	0	0	520	511	0	0	
14	0	0	0	0	524	508	0	0	
15	0	0	0	0	517	511	0	0	
0	0	0	0	0	510	510	0	0	
1	0	0	0	0	507	510	0	0	
2	0	0	0	0	506	510	0	0	
3	0	0	0	0	508	514	0	0	
4	0	0	0	0	507	511	0	0	
5	0	0	0	0	501	509	0	0	
6	0	0	0	0	504	512	0	0	
7	0	0	0	0	504	511	0	0	
8	0	0	0	0	513	509	0	0	
9	0	0	0	0	499	512	0	0	
10	0	0	0	0	498	510	0	0	
11	0	0	0	0	511	511	0	0	
12	0	0	0	0	512	509	0	0	
13	0	0	0	0	512	510	0	0	
14	0	0	0	0	513	510	0	0	
15	0	0	0	0	512	511	0	0	
0	0	0	0	0	515	509	0	0	
1	0	0	0	0	515	510	0	0	
2	0	0	0	0	513	510	0	0	
3	0	0	0	0	511	510	0	0	
4	0	0	0	0	510	511	0	0	
5	0	0	0	0	509	511	0	0	
6	0	0	0	0	509	512	0	0	
7	0	0	0	0	506	510	0	0	
8	0	0	0	0	503	510	0	0	
9	0	0	0	0	498	510	0	0	
10	0	0	0	0	497	510	0	0	
11	0	0	0	0	502	510	0	0	
12	0	0	0	0	505	511	0	0	
13	0	0	0	0	504	511	0	0	
14	0	0	0	0	505	509	0	0	
15	0	0	0	0	512	509	0	0	
0	0	0	0	0	514	508	0	0	
1	0	0	0	0	516	510	0	0	
2	0	0	0	0	513	509	0	0	
3	0	0	0	0	512	510	0	0	
4	0	0	0	0	516	513	0	0	
5	0	0	0	0	517	513	0	0	
6	0	0	0	0	514	511	0	0	
7	0	0	0	0	511	512	0	0	
8	0	0	0	0	505	507	0	0	
9	0	0	0	0	507	510	0	0	
10	0	0	0	0	507	510	0	0	
11	0	0	0	0	505	510	0	0	
12	0	0	0	0	503	511	0	0	
13	0	0	0	0	504	512	0	0	
14	0	0	0	0	505	511	0	0	
15	0	0	0	0	503	512	0	0	
0	0	0	0	0	505	509	0	0	
1	0	0	0	0	504	510	0	0	
2	0	0	0	0	508	510	0	0	
3	0	0	0	0	511	510	0	0	
4	0	0	0	0	514	508	0	0	
5	0	0	0	0	515	510	0	0	
6	0	0	0	0	512	511	0	0	
7	0	0	0	0	511	510	0	0	
8	0	0	0	0	509	511	0	0	
9	0	0	0	0	507	511	0	0	
10	0	0	0	0	507	511	0	0	
11	0	0	0	0	509	511	0	0	
12	0	0	0	0	511	510	0	0	
13	0	0	0	0	514	509	0	0	
14	0	0	0	0	519	509	0	0	
15	0	0	0	0	520	513	0	0	
0	0	0	0	0	507	507	0	0	
1	0	0	0	0	499	509	0	0	
2	0	0	0	0	499	510	0	0	
3	0	0	0	0	501	511	0	0	
4	0	0	0	0	501	510	0	0	
5	0	0	0	0	507	511	0	0	
6	0	0	0	0	507	512	0	0	
7	0	0	0	0	507	511	0	0	
8	0	0	0	0	511	511	0	0	
9	0	0	0	0	511	512	0	0	
10	0	0	0	0	509	510	0	0	
11	0	0	0	0	510	511	0	0	
12	0	0	0	0	514	509	0	0	
13	0	0	0	0	512	511	0	0	
14	0	0	0	0	514	511	0	0	
15	0	0	0	0	511	510	0	0	
0	0	0	0	0	505	509	0	0	
1	0	0	0	0	503	512	0	0	
2	0	0	0	0	508	513	0	0	
3	0	0	0	0	510	513	0	0	
4	0	0	0	0	507	510	0	0	
5	0	0	0	0	502	511	0	0	
6	0	0	0	0	502	509	0	0	
7	0	0	0	0	504	508	0	0	
8	0	0	0	0	509	509	0	0	
9	0	0	0	0	508	510	0	0	
10	0	0	0	0	509	511	0	0	
11	0	0	0	0	509	511	0	0	
12	0	0	0	0	510	512	0	0	
13	0	0	0	0	511	510	0	0	
14	0	0	0	0	512	511	0	0	
15	0	0	0	0	514	510	0	0	
0	0	0	0	0	512	511	0	0	
1	0	0	0	0	512	510	0	0	
2	0	0	0	0	505	509	0	0	
3	0	0	0	0	510	509	0	0	
4	0	0	0	0	508	511	0	0	
5	0	0	0	0	504	511	0	0	
6	0	0	0	0	501	512	0	0	
7	0	0	0	0	502	511	0	0	
8	0	0	0	0	504	511	0	0	
9	0	0	0	0	513	512	0	0	
10	0	0	0	0	519	512	0	0	
11	0	0	0	0	515	510	0	0	
12	0	0	0	0	512	509	0	0	
13	0	0	0	0	518	511	0	0	
14	0	0	0	0	513	510	0	0	
15	0	0	0	0	505	511	0	0	
0	0	0	0	0	503	511	0	0	
1	0	0	0	0	506	512	0	0	
2	0	0	0	0	507	512	0	0	
3	0	0	0	0	509	510	0	0	
4	0	0	0	0	510	511	0	0	
5	0	0	0	0	509	510	0	0	
6	0	0	0	0	511	509	0	0	
7	0	0	0	0	510	512	0	0	
8	0	0	0	0	509	513	0	0	
9	0	0	0	0	505	510	0	0	
10	0	0	0	0	500	510	0	0	
11	0	0	0	0	505	509	0	0	
12	0	0	0	0	512	509	0	0	
13	0	0	0	0	510	510	0	0	
14	0	0	0	0	504	509	0	0	
15	0	0	0	0	506	509	0	0	
0	0	0	0	0	507	508	0	0	
1	0	0	0	0	507	509	0	0	
2	0	0	0	0	505	510	0	0	
3	0	0	0	0	507	512	0	0	
4	0	0	0	0	507	513	0	0	
5	0	0	0	0	512	510	0	0	
6	0	0	0	0	511	511	0	0	
7	0	0	0	0	512	513	0	0	
8	0	0	0	0	511	510	0	0	
9	0	0	0	0	508	511	0	0	
10	0	0	0	0	508	512	0	0	
11	0	0	0	0	509	511	0	0	
12	0	0	0	0	508	511	0	0	
13	0	0	0	0	511	512	0	0	
14	0	0	0	0	508	510	0	0	
15	0	0	0	0	507	510	0	0	
0	0	0	0	0	507	511	0	0	
1	0	0	0	0	509	511	0	0	
2	0	0	0	0	507	511	0	0	
3	0	0	0	0	508	512	0	0	
4	0	0	0	0	506	508	0	0	
5	0	0	0	0	505	510	0	0	
6	0	0	0	0	505	509	0	0	
7	0	0	0	0	507	511	0	0	
8	0	0	0	0	512	511	0	0	
9	0	0	0	0	518	513	0	0	
10	0	0	0	0	512	511	0	0	
11	0	0	0	0	507	511	0	0	
12	0	0	0	0	506	511	0	0	
13	0	0	0	0	508	512	0	0	
14	0	0	0	0	510	513	0	0	
15	0	0	0	0	509	512	0	0	
0	0	0	0	0	509	510	0	0	
1	0	0	0	0	508	508	0	0	
2	0	0	0	0	505	508	0	0	
3	0	0	0	0	509	511	0	0	
4	0	0	0	0	507	509	0	0	
5	0	0	0	0	509	508	0	0	
6	0	0	0	0	508	508	0	0	
7	0	0	0	0	506	509	0	0	
8	0	0	0	0	506	507	0	0	
9	0	0	0	0	508	509	0	0	
10	0	0	0	0	507	510	0	0	
11	0	0	0	0	509	510	0	0	
12	0	0	0	0	508	513	0	0	
13	0	0	0	0	512	513	0	0	
14	0	0	0	0	511	511	0	0	
15	0	0	0	0	511	512	0	0	
0	0	0	0	0	510	512	0	0	
1	0	0	0	0	513	511	0	0	
2	0	0	0	0	516	510	0	0	
3	0	0	0	0	518	512	0	0	
4	0	0	0	0	508	511	0	0	
5	0	0	0	0	508	510	0	0	
6	0	0	0	0	506	511	0	0	
7	0	0	0	0	503	511	0	0	
8	0	0	0	0	501	510	0	0	
9	0	0	0	0	500	509	0	0	
10	0	0	0	0	502	509	0	0	
11	0	0	0	0	504	510	0	0	
12	0	0	0	0	511	510	0	0	
13	0	0	0	0	513	511	0	0	
14	0	0	0	0	507	508	0	0	
15	0	0	0	0	504	510	0	0	
0	0	0	0	0	510	511	0	0	
1	0	0	0	0	514	510	0	0	
2	0	0	0	0	515	510	0	0	
3	0	0	0	0	514	511	0	0	
4	0	0	0	0	514	512	0	0	
5	0	0	0	0	511	512	0	0	
6	0	0	0	0	509	512	0	0	
7	0	0	0	0	504	511	0	0	
8	0	0	0	0	501	509	0	0	
9	0	0	0	0	504	511	0	0	
10	0	0	0	0	506	509	0	0	
11	0	0	0	0	507	510	0	0	
12	0	0	0	0	510	511	0	0	
13	0	0	0	0	510	508	0	0	
14	0	0	0	0	510	508	0	0	
15	0	0	0	0	512	508	0	0	
0	0	0	0	0	506	511	0	0	
1	0	0	0	0	505	509	0	0	
2	0	0	0	0	509	512	0	0	
3	0	0	0	0	508	510	0	0	
4	0	0	0	0	507	510	0	0	
5	0	0	0	0	510	510	0	0	
6	0	0	0	0	507	511	0	0	
7	0	0	0	0	508	512	0	0	
8	0	0	0	0	511	511	0	0	
9	0	0	0	0	515	511	0	0	
10	0	0	0	0	516	512	0	0	
11	0	0	0	0	510	511	0	0	
12	0	0	0	0	510	510	0	0	
13	0	0	0	0	505	510	0	0	
14	0	0	0	0	504	510	0	0	
15	0	0	0	0	506	511	0	0	
0	0	0	0	0	510	512	0	0	
1	0	0	0	0	505	509	0	0	
2	0	0	0	0	501	509	0	0	
3	0	0	0	0	504	512	0	0	
4	0	0	0	0	503	510	0	0	
5	0	0	0	0	503	512	0	0	
6	0	0	0	0	504	510	0	0	
7	0	0	0	0	509	510	0	0	
8	0	0	0	0	515	510	0	0	
9	0	0	0	0	523	511	0	0	
10	0	0	0	0	514	511	0	0	
11	0	0	0	0	513	511	0	0	
12	0	0	0	0	524	510	0	0	
13	0	0	0	0	515	510	0	0	
14	0	0	0	0	510	512	0	0	
15	0	0	0	0	513	508	0	0	
0	0	0	0	0	504	511	0	0	
1	0	0	0	0	500	513	0	0	
2	0	0	0	0	503	512	0	0	
3	0	0	0	0	505	508	0	0	
4	0	0	0	0	507	509	0	0	
5	0	0	0	0	503	510	0	0	
6	0	0	0	0	506	512	0	0	
7	0	0	0	0	501	511	0	0	
8	0	0	0	0	502	511	0	0	
9	0	0	0	0	503	509	0	0	
10	0	0	0	0	506	508	0	0	
11	0	0	0	0	507	509	0	0	
12	0	0	0	0	508	512	0	0	
13	0	0	0	0	508	513	0	0	
14	0	0	0	0	511	511	0	0	
15	0	0	0	0	515	512	0	0	
0	0	0	0	0	518	508	0	0	
1	0	0	0	0	519	508	0	0	
2	0	0	0	0	513	512	0	0	
3	0	0	0	0	518	511	0	0	
4	0	0	0	0	516	510	0	0	
5	0	0	0	0	508	511	0	0	
6	0	0	0	0	503	511	0	0	
7	0	0	0	0	502	510	0	0	
8	0	0	0	0	502	510	0	0	
9	0	0	0	0	501	511	0	0	
10	0	0	0	0	503	510	0	0	
11	0	0	0	0	505	511	0	0	
12	0	0	0	0	509	510	0	0	
13	0	0	0	0	507	511	0	0	
14	0	0	0	0	506	511	0	0	
15	0	0	0	0	507	513	0	0	
0	0	0	0	0	507	512	0	0	
1	0	0	0	0	509	510	0	0	
2	0	0	0	0	512	511	0	0	
3	0	0	0	0	517	511	0	0	
4	0	0	0	0	518	510	0	0	
5	0	0	0	0	514	511	0	0	
6	0	0	0	0	509	512	0	0	
7	0	0	0	0	504	512	0	0	
8	0	0	0	0	505	510	0	0	
9	0	0	0	0	507	510	0	0	
10	0	0	0	0	509	507	0	0	
11	0	0	0	0	513	507	0	0	
12	0	0	0	0	511	511	0	0	
13	0	0	0	0	506	511	0	0	
14	0	0	0	0	504	509	0	0	
15	0	0	0	0	501	511	0	0	
0	0	0	0	0	497	512	0	0	
1	0	0	0	0	502	510	0	0	
2	0	0	0	0	507	508	0	0	
3	0	0	0	0	511	510	0	0	
4	0	0	0	0	513	510	0	0	
5	0	0	0	0	510	508	0	0	
6	0	0	0	0	510	510	0	0	
7	0	0	0	0	513	514	0	0	
8	0	0	0	0	514	512	0	0	
9	0	0	0	0	520	511	0	0	
10	0	0	0	0	513	510	0	0	
11	0	0	0	0	510	510	0	0	
12	0	0	0	0	506	508	0	0	
13	0	0	0	0	503	510	0	0	
14	0	0	0	0	504	511	0	0	
15	0	0	0	0	503	511	0	0	
0	0	0	0	0	504	512	0	0	
1	0	0	0	0	506	509	0	0	
2	0	0	0	0	508	510	0	0	
3	0	0	0	0	506	509	0	0	
4	0	0	0	0	508	511	0	0	
5	0	0	0	0	505	509	0	0	
6	0	0	0	0	505	511	0	0	
7	0	0	0	0	509	511	0	0	
8	0	0	0	0	510	510	0	0	
9	0	0	0	0	511	511	0	0	
10	0	0	0	0	511	510	0	0	
11	0	0	0	0	512	512	0	0	
12	0	0	0	0	515	508	0	0	
13	0	0	0	0	516	511	0	0	
14	0	0	0	0	512	511	0	0	
15	0	0	0	0	510	513	0	0	
0	0	0	0	0	508	511	0	0	
1	0	0	0	0	507	510	0	0	
2	0	0	0	0	507	509	0	0	
3	0	0	0	0	504	508	0	0	
4	0	0	0	0	505	510	0	0	
5	0	0	0	0	506	511	0	0	
6	0	0	0	0	505	510	0	0	
7	0	0	0	0	505	510	0	0	
8	0	0	0	0	504	511	0	0	
9	0	0	0	0	504	509	0	0	
10	0	0	0	0	507	508	0	0	
11	0	0	0	0	509	511	0	0	
12	0	0	0	0	511	511	0	0	
13	0	0	0	0	511	512	0	0	
14	0	0	0	0	506	511	0	0	
15	0	0	0	0	506	511	0	0	
0	0	0	0	0	510	513	0	0	
1	0	0	0	0	516	512	0	0	
2	0	0	0	0	513	511	0	0	
3	0	0	0	0	512	512	0	0	
4	0	0	0	0	516	511	0	0	
5	0	0	0	0	516	511	0	0	
6	0	0	0	0	506	509	0	0	
7	0	0	0	0	500	510	0	0	
8	0	0	0	0	499	510	0	0	
9	0	0	0	0	503	510	0	0	
10	0	0	0	0	506	510	0	0	
11	0	0	0	0	511	508	0	0	
12	0	0	0	0	509	509	0	0	
13	0	0	0	0	503	510	0	0	
14	0	0	0	0	507	509	0	0	
15	0	0	0	0	508	511	0	0	
0	0	0	0	0	510	511	0	0	
1	0	0	0	0	511	511	0	0	
2	0	0	0	0	510	511	0	0	
3	0	0	0	0	511	511	0	0	
4	0	0	0	0	509	512	0	0	
5	0	0	0	0	511	511	0	0	
6	0	0	0	0	510	512	0	0	
7	0	0	0	0	512	512	0	0	
8	0	0	0	0	510	512	0	0	
9	0	0	0	0	510	510	0	0	
10	0	0	0	0	511	509	0	0	
11	0	0	0	0	515	509	0	0	
12	0	0	0	0	505	510	0	0	
13	0	0	0	0	500	511	0	0	
14	0	0	0	0	498	508	0	0	
15	0	0	0	0	500	510	0	0	
0	0	0	0	0	501	512	0	0	
1	0	0	0	0	507	512	0	0	
2	0	0	0	0	510	510	0	0	
3	0	0	0	0	509	510	0	0	
4	0	0	0	0	512	510	0	0	
5	0	0	0	0	514	511	0	0	
6	0	0	0	0	512	510	0	0	
7	0	0	0	0	514	510	0	0	
8	0	0	0	0	520	513	0	0	
9	0	0	0	0	518	512	0	0	
10	0	0	0	0	508	512	0	0	
11	0	0	0	0	511	510	0	0	
12	0	0	0	0	512	511	0	0	
13	0	0	0	0	512	511	0	0	
14	0	0	0	0	506	509	0	0	
15	0	0	0	0	504	511	0	0	
0	0	0	0	0	504	512	0	0	
1	0	0	0	0	500	509	0	0	
2	0	0	0	0	502	508	0	0	
3	0	0	0	0	503	509	0	0	
4	0	0	0	0	503	511	0	0	
5	0	0	0	0	505	512	0	0	
6	0	0	0	0	504	511	0	0	
7	0	0	0	0	506	512	0	0	
8	0	0	0	0	512	511	0	0	
9	0	0	0	0	515	510	0	0	
10	0	0	0	0	512	512	0	0	
11	0	0	0	0	512	507	0	0	
12	0	0	0	0	515	511	0	0	
13	0	0	0	0	515	510	0	0	
14	0	0	0	0	513	513	0	0	
15	0	0	0	0	511	510	0	0	
0	0	0	0	0	510	511	0	0	
1	0	0	0	0	509	510	0	0	
2	0	0	0	0	507	510	0	0	
3	0	0	0	0	507	508	0	0	
4	0	0	0	0	507	511	0	0	
5	0	0	0	0	504	509	0	0	
6	0	0	0	0	502	511	0	0	
7	0	0	0	0	502	511	0	0	
8	0	0	0	0	502	512	0	0	
9	0	0	0	0	500	511	0	0	
10	0	0	0	0	505	511	0	0	
11	0	0	0	0	511	509	0	0	
12	0	0	0	0	511	512	0	0	
13	0	0	0	0	512	513	0	0	
14	0	0	0	0	510	512	0	0	
15	0	0	0	0	514	511	0	0	
0	0	0	0	0	518	510	0	0	
1	0	0	0	0	515	511	0	0	
2	0	0	0	0	518	510	0	0	
3	0	0	0	0	515	508	0	0	
4	0	0	0	0	510	510	0	0	
5	0	0	0	0	505	512	0	0	
6	0	0	0	0	505	509	0	0	
7	0	0	0	0	503	511	0	0	
8	0	0	0	0	504	509	0	0	
9	0	0	0	0	503	511	0	0	
10	0	0	0	0	503	509	0	0	
11	0	0	0	0	507	510	0	0	
12	0	0	0	0	507	512	0	0	
13	0	0	0	0	508	513	0	0	
14	0	0	0	0	509	512	0	0	
15	0	0	0	0	511	510	0	0	
0	0	0	0	0	509	509	0	0	
1	0	0	0	0	510	512	0	0	
2	0	0	0	0	511	509	0	0	
3	0	0	0	0	510	510	0	0	
4	0	0	0	0	512	511	0	0	
5	0	0	0	0	511	510	0	0	
6	0	0	0	0	511	511	0	0	
7	0	0	0	0	508	511	0	0	
8	0	0	0	0	507	510	0	0	
9	0	0	0	0	511	511	0	0	
10	0	0	0	0	509	511	0	0	
11	0	0	0	0	505	511	0	0	
12	0	0	0	0	507	511	0	0	
13	0	0	0	0	502	510	0	0	
14	0	0	0	0	507	510	0	0	
15	0	0	0	0	503	511	0	0	
0	0	0	0	0	508	510	0	0	
1	0	0	0	0	513	510	0	0	
2	0	0	0	0	507	509	0	0	
3	0	0	0	0	511	511	0	0	
4	0	0	0	0	518	513	0	0	
5	0	0	0	0	513	513	0	0	
6	0	0	0	0	510	511	0	0	
7	0	0	0	0	511	512	0	0	
8	0	0	0	0	509	511	0	0	
9	0	0	0	0	508	509	0	0	
10	0	0	0	0	512	511	0	0	
11	0	0	0	0	513	511	0	0	
12	0	0	0	0	506	510	0	0	
13	0	0	0	0	505	511	0	0	
14	0	0	0	0	507	510	0	0	
15	0	0	0	0	507	509	0	0	
0	0	0	0	0	500	507	0	0	
1	0	0	0	0	499	509	0	0	
2	0	0	0	0	504	510	0	0	
3	0	0	0	0	512	509	0	0	
4	0	0	0	0	510	508	0	0	
5	0	0	0	0	510	510	0	0	
6	0	0	0	0	508	511	0	0	
7	0	0	0	0	506	510	0	0	
8	0	0	0	0	511	510	0	0	
9	0	0	0	0	511	512	0	0	
10	0	0	0	0	510	512	0	0	
11	0	0	0	0	513	512	0	0	
12	0	0	0	0	515	514	0	0	
13	0	0	0	0	513	511	0	0	
14	0	0	0	0	509	511	0	0	
15	0	0	0	0	509	509	0	0	
0	0	0	0	0	511	510	0	0	
1	0	0	0	0	507	508	0	0	
2	0	0	0	0	504	510	0	0	
3	0	0	0	0	502	508	0	0	
4	0	0	0	0	505	512	0	0	
5	0	0	0	0	505	510	0	0	
6	0	0	0	0	505	511	0	0	
7	0	0	0	0	507	510	0	0	
8	0	0	0	0	515	510	0	0	
9	0	0	0	0	510	509	0	0	
10	0	0	0	0	504	511	0	0	
11	0	0	0	0	507	510	0	0	
12	0	0	0	0	510	509	0	0	
13	0	0	0	0	512	508	0	0	
14	0	0	0	0	510	508	0	0	
15	0	0	0	0	512	508	0	0	
0	0	0	0	0	511	510	0	0	
1	0	0	0	0	511	511	0	0	
2	0	0	0	0	509	510	0	0	
3	0	0	0	0	507	511	0	0	
4	0	0	0	0	508	513	0	0	
5	0	0	0	0	509	511	0	0	
6	0	0	0	0	507	510	0	0	
7	0	0	0	0	508	511	0	0	
8	0	0	0	0	504	509	0	0	
9	0	0	0	0	505	510	0	0	
10	0	0	0	0	504	512	0	0	
11	0	0	0	0	504	510	0	0	
12	0	0	0	0	505	512	0	0	
13	0	0	0	0	505	511	0	0	
14	0	0	0	0	506	509	0	0	
15	0	0	0	0	510	510	0	0	
0	0	0	0	0	513	510	0	0	
1	0	0	0	0	512	511	0	0	
2	0	0	0	0	510	511	0	0	
3	0	0	0	0	513	510	0	0	
4	0	0	0	0	510	513	0	0	
5	0	0	0	0	510	511	0	0	
6	0	0	0	0	507	513	0	0	
7	0	0	0	0	505	510	0	0	
8	0	0	0	0	505	512	0	0	
9	0	0	0	0	504	510	0	0	
10	0	0	0	0	508	509	0	0	
11	0	0	0	0	523	510	0	0	
12	0	0	0	0	514	510	0	0	
13	0	0	0	0	506	509	0	0	
14	0	0	0	0	505	508	0	0	
15	0	0	0	0	507	509	0	0	
0	0	0	0	0	505	509	0	0	
1	0	0	0	0	502	510	0	0	
2	0	0	0	0	504	512	0	0	
3	0	0	0	0	504	512	0	0	
4	0	0	0	0	509	512	0	0	
5	0	0	0	0	512	510	0	0	
6	0	0	0	0	510	511	0	0	
7	0	0	0	0	518	511	0	0	
8	0	0	0	0	518	508	0	0	
9	0	0	0	0	514	509	0	0	
10	0	0	0	0	510	510	0	0	
11	0	0	0	0	509	511	0	0	
12	0	0	0	0	511	510	0	0	
13	0	0	0	0	510	510	0	0	
14	0	0	0	0	508	510	0	0	
15	0	0	0	0	508	510	0	0	
0	0	0	0	0	504	509	0	0	
1	0	0	0	0	500	510	0	0	
2	0	0	0	0	498	513	0	0	
3	0	0	0	0	506	513	0	0	
4	0	0	0	0	506	508	0	0	
5	0	0	0	0	505	508	0	0	
6	0	0	0	0	499	509	0	0	
7	0	0	0	0	496	512	0	0	
8	0	0	0	0	503	510	0	0	
9	0	0	0	0	512	509	0	0	
10	0	0	0	0	522	510	0	0	
11	0	0	0	0	523	512	0	0	
12	0	0	0	0	512	513	0	0	
13	0	0	0	0	509	511	0	0	
14	0	0	0	0	514	511	0	0	
15	0	0	0	0	518	512	0	0	
0	0	0	0	0	519	513	0	0	
1	0	0	0	0	523	511	0	0	
2	0	0	0	0	505	509	0	0	
3	0	0	0	0	503	511	0	0	
4	0	0	0	0	503	512	0	0	
5	0	0	0	0	494	508	0	0	
6	0	0	0	0	492	510	0	0	
7	0	0	0	0	494	508	0	0	
8	0	0	0	0	501	508	0	0	
9	0	0	0	0	520	509	0	0	
10	0	0	0	0	527	511	0	0	
11	0	0	0	0	513	512	0	0	
12	0	0	0	0	505	511	0	0	
13	0	0	0	0	507	511	0	0	
14	0	0	0	0	508	508	0	0	
15	0	0	0	0	513	511	0	0	
0	0	0	0	0	513	511	0	0	
1	0	0	0	0	511	513	0	0	
2	0	0	0	0	511	512	0	0	
3	0	0	0	0	509	512	0	0	
4	0	0	0	0	508	512	0	0	
5	0	0	0	0	508	511	0	0	
6	0	0	0	0	505	509	0	0	
7	0	0	0	0	504	508	0	0	
8	0	0	0	0	510	510	0	0	
9	0	0	0	0	508	508	0	0	
10	0	0	0	0	501	509	0	0	
11	0	0	0	0	503	509	0	0	
12	0	0	0	0	504	511	0	0	
13	0	0	0	0	504	510	0	0	
14	0	0	0	0	501	511	0	0	
15	0	0	0	0	501	512	0	0	
0	0	0	0	0	510	511	0	0	
1	0	0	0	0	527	509	0	0	
2	0	0	0	0	517	510	0	0	
3	0	0	0	0	511	512	0	0	
4	0	0	0	0	510	510	0	0	
5	0	0	0	0	518	511	0	0	
6	0	0	0	0	519	513	0	0	
7	0	0	0	0	511	513	0	0	
8	0	0	0	0	510	513	0	0	
9	0	0	0	0	504	512	0	0	
10	0	0	0	0	505	513	0	0	
11	0	0	0	0	500	511	0	0	
12	0	0	0	0	502	508	0	0	
13	0	0	0	0	504	508	0	0	
14	0	0	0	0	504	507	0	0	
15	0	0	0	0	504	507	0	0	
0	0	0	0	0	506	508	0	0	
1	0	0	0	0	508	511	0	0	
2	0	0	0	0	508	510	0	0	
3	0	0	0	0	509	510	0	0	
4	0	0	0	0	511	512	0	0	
5	0	0	0	0	511	512	0	0	
6	0	0	0	0	512	512	0	0	
7	0	0	0	0	513	512	0	0	
8	0	0	0	0	515	513	0	0	
9	0	0	0	0	513	508	0	0	
10	0	0	0	0	510	510	0	0	
11	0	0	0	0	508	512	0	0	
12	0	0	0	0	507	511	0	0	
13	0	0	0	0	504	512	0	0	
14	0	0	0	0	507	510	0	0	
15	0	0	0	0	508	509	0	0	
0	0	0	0	0	511	511	0	0	
1	0	0	0	0	508	510	0	0	
2	0	0	0	0	507	510	0	0	
3	0	0	0	0	505	511	0	0	
4	0	0	0	0	502	513	0	0	
5	0	0	0	0	498	511	0	0	
6	0	0	0	0	496	509	0	0	
7	0	0	0	0	508	512	0	0	
8	0	0	0	0	504	510	0	0	
9	0	0	0	0	514	510	0	0	
10	0	0	0	0	521	511	0	0	
11	0	0	0	0	526	511	0	0	
12	0	0	0	0	515	513	0	0	
13	0	0	0	0	510	513	0	0	
14	0	0	0	0	509	510	0	0	
15	0	0	0	0	505	510	0	0	
0	0	0	0	0	504	509	0	0	
1	0	0	0	0	508	510	0	0	
2	0	0	0	0	509	509	0	0	
3	0	0	0	0	508	509	0	0	
4	0	0	0	0	517	510	0	0	
5	0	0	0	0	511	511	0	0	
6	0	0	0	0	504	511	0	0	
7	0	0	0	0	503	510	0	0	
8	0	0	0	0	504	511	0	0	
9	0	0	0	0	506	511	0	0	
10	0	0	0	0	504	512	0	0	
11	0	0	0	0	508	510	0	0	
12	0	0	0	0	509	510	0	0	
13	0	0	0	0	512	513	0	0	
14	0	0	0	0	509	511	0	0	
15	0	0	0	0	513	511	0	0	
0	0	0	0	0	510	509	0	0	
1	0	0	0	0	511	510	0	0	
2	0	0	0	0	510	512	0	0	
3	0	0	0	0	513	511	0	0	
4	0	0	0	0	511	510	0	0	
5	0	0	0	0	511	508	0	0	
6	0	0	0	0	507	511	0	0	
7	0	0	0	0	504	509	0	0	
8	0	0	0	0	502	510	0	0	
9	0	0	0	0	506	508	0	0	
10	0	0	0	0	504	507	0	0	
11	0	0	0	0	504	510	0	0	
12	0	0	0	0	503	510	0	0	
13	0	0	0	0	507	511	0	0	
14	0	0	0	0	512	512	0	0	
15	0	0	0	0	514	510	0	0	
0	0	0	0	0	511	511	0	0	
1	0	0	0	0	509	511	0	0	
2	0	0	0	0	509	512	0	0	
3	0	0	0	0	513	510	0	0	
4	0	0	0	0	515	512	0	0	
5	0	0	0	0	516	509	0	0	
6	0	0	0	0	515	509	0	0	
7	0	0	0	0	505	511	0	0	
8	0	0	0	0	503	512	0	0	
9	0	0	0	0	502	511	0	0	
10	0	0	0	0	501	512	0	0	
11	0	0	0	0	509	512	0	0	
12	0	0	0	0	512	509	0	0	
13	0	0	0	0	508	508	0	0	
14	0	0	0	0	505	510	0	0	
15	0	0	0	0	505	509	0	0	
0	0	0	0	0	507	510	0	0	
1	0	0	0	0	507	509	0	0	
2	0	0	0	0	505	509	0	0	
3	0	0	0	0	504	510	0	0	
4	0	0	0	0	511	511	0	0	
5	0	0	0	0	512	511	0	0	
6	0	0	0	0	510	511	0	0	
7	0	0	0	0	509	511	0	0	
8	0	0	0	0	512	510	0	0	
9	0	0	0	0	511	513	0	0	
10	0	0	0	0	509	510	0	0	
11	0	0	0	0	511	513	0	0	
12	0	0	0	0	518	512	0	0	
13	0	0	0	0	519	511	0	0	
14	0	0	0	0	513	511	0	0	
15	0	0	0	0	510	512	0	0	
0	0	0	0	0	510	511	0	0	
1	0	0	0	0	499	510	0	0	
2	0	0	0	0	497	511	0	0	
3	0	0	0	0	503	510	0	0	
4	0	0	0	0	505	510	0	0	
5	0	0	0	0	506	508	0	0	
6	0	0	0	0	507	509	0	0	
7	0	0	0	0	505	510	0	0	
8	0	0	0	0	509	510	0	0	
9	0	0	0	0	513	511	0	0	
10	0	0	0	0	511	511	0	0	
11	0	0	0	0	510	510	0	0	
12	0	0	0	0	510	508	0	0	
13	0	0	0	0	511	510	0	0	
14	0	0	0	0	511	509	0	0	
15	0	0	0	0	513	511	0	0	
0	0	0	0	0	512	512	0	0	
1	0	0	0	0	512	510	0	0	
2	0	0	0	0	504	512	0	0	
3	0	0	0	0	502	511	0	0	
4	0	0	0	0	502	511	0	0	
5	0	0	0	0	511	509	0	0	
6	0	0	0	0	503	509	0	0	
7	0	0	0	0	499	509	0	0	
8	0	0	0	0	499	509	0	0	
9	0	0	0	0	510	508	0	0	
10	0	0	0	0	520	510	0	0	
11	0	0	0	0	519	510	0	0	
12	0	0	0	0	517	511	0	0	
13	0	0	0	0	509	511	0	0	
14	0	0	0	0	504	510	0	0	
15	0	0	0	0	504	510	0	0	
0	0	0	0	0	504	510	0	0	
1	0	0	0	0	513	512	0	0	
2	0	0	0	0	528	512	0	0	
3	0	0	0	0	514	511	0	0	
4	0	0	0	0	506	511	0	0	
5	0	0	0	0	501	512	0	0	
6	0	0	0	0	503	510	0	0	
7	0	0	0	0	504	508	0	0	
8	0	0	0	0	502	510	0	0	
9	0	0	0	0	499	510	0	0	
10	0	0	0	0	504	512	0	0	
11	0	0	0	0	511	507	0	0	
12	0	0	0	0	511	508	0	0	
13	0	0	0	0	508	511	0	0	
14	0	0	0	0	512	512	0	0	
15	0	0	0	0	511	510	0	0	
0	0	0	0	0	509	510	0	0	
1	0	0	0	0	511	511	0	0	
2	0	0	0	0	510	511	0	0	
3	0	0	0	0	508	513	0	0	
4	0	0	0	0	515	512	0	0	
5	0	0	0	0	514	510	0	0	
6	0	0	0	0	511	509	0	0	
7	0	0	0	0	507	510	0	0	
8	0	0	0	0	504	512	0	0	
9	0	0	0	0	505	509	0	0	
10	0	0	0	0	505	508	0	0	
11	0	0	0	0	504	511	0	0	
12	0	0	0	0	503	511	0	0	
13	0	0	0	0	504	511	0	0	
14	0	0	0	0	504	510	0	0	
15	0	0	0	0	507	511	0	0	
0	0	0	0	0	510	510	0	0	
1	0	0	0	0	509	511	0	0	
2	0	0	0	0	510	511	0	0	
3	0	0	0	0	510	511	0	0	
4	0	0	0	0	511	512	0	0	
5	0	0	0	0	509	509	0	0	
6	0	0	0	0	510	510	0	0	
7	0	0	0	0	512	509	0	0	
8	0	0	0	0	513	510	0	0	
9	0	0	0	0	512	510	0	0	
10	0	0	0	0	513	510	0	0	
11	0	0	0	0	512	511	0	0	
12	0	0	0	0	512	511	0	0	
13	0	0	0	0	505	510	0	0	
14	0	0	0	0	507	512	0	0	
15	0	0	0	0	505	513	0	0	
0	0	0	0	0	507	509	0	0	
1	0	0	0	0	506	511	0	0	
2	0	0	0	0	508	510	0	0	
3	0	0	0	0	506	510	0	0	
4	0	0	0	0	500	510	0	0	
5	0	0	0	0	500	507	0	0	
6	0	0	0	0	500	509	0	0	
7	0	0	0	0	506	515	0	0	
8	0	0	0	0	518	512	0	0	
9	0	0	0	0	513	510	0	0	
10	0	0	0	0	513	513	0	0	
11	0	0	0	0	513	511	0	0	
12	0	0	0	0	514	511	0	0	
13	0	0	0	0	513	509	0	0	
14	0	0	0	0	511	511	0	0	
15	0	0	0	0	509	508	0	0	
0	0	0	0	0	509	510	0	0	
1	0	0	0	0	509	510	0	0	
2	0	0	0	0	507	510	0	0	
3	0	0	0	0	508	510	0	0	
4	0	0	0	0	510	511	0	0	
5	0	0	0	0	503	510	0	0	
6	0	0	0	0	505	510	0	0	
7	0	0	0	0	508	510	0	0	
8	0	0	0	0	505	507	0	0	
9	0	0	0	0	504	508	0	0	
10	0	0	0	0	513	509	0	0	
11	0	0	0	0	513	511	0	0	
12	0	0	0	0	510	510	0	0	
13	0	0	0	0	508	510	0	0	
14	0	0	0	0	505	511	0	0	
15	0	0	0	0	508	514	0	0	
0	0	0	0	0	512	512	0	0	
1	0	0	0	0	509	513	0	0	
2	0	0	0	0	510	512	0	0	
3	0	0	0	0	512	510	0	0	
4	0	0	0	0	510	511	0	0	
5	0	0	0	0	506	511	0	0	
6	0	0	0	0	507	509	0	0	
7	0	0	0	0	505	511	0	0	
8	0	0	0	0	505	509	0	0	
9	0	0	0	0	508	510	0	0	
10	0	0	0	0	505	509	0	0	
11	0	0	0	0	504	510	0	0	
12	0	0	0	0	504	507	0	0	
13	0	0	0	0	505	512	0	0	
14	0	0	0	0	507	512	0	0	
15	0	0	0	0	513	510	0	0	
0	0	0	0	0	516	507	0	0	
1	0	0	0	0	518	510	0	0	
2	0	0	0	0	515	511	0	0	
3	0	0	0	0	512	509	0	0	
4	0	0	0	0	512	509	0	0	
5	0	0	0	0	510	509	0	0	
6	0	0	0	0	507	510	0	0	
7	0	0	0	0	506	512	0	0	
8	0	0	0	0	505	511	0	0	
9	0	0	0	0	506	510	0	0	
10	0	0	0	0	504	512	0	0	
11	0	0	0	0	507	508	0	0	
12	0	0	0	0	518	512	0	0	
13	0	0	0	0	513	511	0	0	
14	0	0	0	0	505	511	0	0	
15	0	0	0	0	502	512	0	0	
0	0	0	0	0	500	512	0	0	
1	0	0	0	0	507	510	0	0	
2	0	0	0	0	510	508	0	0	
3	0	0	0	0	511	510	0	0	
4	0	0	0	0	512	510	0	0	
5	0	0	0	0	508	509	0	0	
6	0	0	0	0	504	510	0	0	
7	0	0	0	0	508	511	0	0	
8	0	0	0	0	508	512	0	0	
9	0	0	0	0	510	512	0	0	
10	0	0	0	0	511	511	0	0	
11	0	0	0	0	508	513	0	0	
12	0	0	0	0	513	510	0	0	
13	0	0	0	0	512	509	0	0	
14	0	0	0	0	511	511	0	0	
15	0	0	0	0	506	512	0	0	
0	0	0	0	0	507	511	0	0	
1	0	0	0	0	507	511	0	0	
2	0	0	0	0	504	508	0	0	
3	0	0	0	0	505	511	0	0	
4	0	0	0	0	504	508	0	0	
5	0	0	0	0	505	509	0	0	
6	0	0	0	0	508	511	0	0	
7	0	0	0	0	509	510	0	0	
8	0	0	0	0	509	511	0	0	
9	0	0	0	0	511	512	0	0	
10	0	0	0	0	510	512	0	0	
11	0	0	0	0	513	510	0	0	
12	0	0	0	0	516	511	0	0	
13	0	0	0	0	513	514	0	0	
14	0	0	0	0	512	513	0	0	
15	0	0	0	0	508	512	0	0	
0	0	0	0	0	510	512	0	0	
1	0	0	0	0	508	511	0	0	
2	0	0	0	0	508	508	0	0	
3	0	0	0	0	507	511	0	0	
4	0	0	0	0	506	510	0	0	
5	0	0	0	0	505	508	0	0	
6	0	0	0	0	507	512	0	0	
7	0	0	0	0	506	508	0	0	
8	0	0	0	0	503	509	0	0	
9	0	0	0	0	504	509	0	0	
10	0	0	0	0	504	509	0	0	
11	0	0	0	0	508	507	0	0	
12	0	0	0	0	509	510	0	0	
13	0	0	0	0	513	511	0	0	
14	0	0	0	0	511	509	0	0	
15	0	0	0	0	513	510	0	0	
0	0	0	0	0	518	509	0	0	
1	0	0	0	0	518	512	0	0	
2	0	0	0	0	511	510	0	0	
3	0	0	0	0	510	511	0	0	
4	0	0	0	0	509	510	0	0	
5	0	0	0	0	507	512	0	0	
6	0	0	0	0	506	511	0	0	
7	0	0	0	0	503	511	0	0	
8	0	0	0	0	502	512	0	0	
9	0	0	0	0	499	511	0	0	
10	0	0	0	0	503	511	0	0	
11	0	0	0	0	506	508	0	0	
12	0	0	0	0	510	510	0	0	
13	0	0	0	0	504	506	0	0	
14	0	0	0	0	507	511	0	0	
15	0	0	0	0	508	511	0	0	
0	0	0	0	0	519	512	0	0	
1	0	0	0	0	516	513	0	0	
2	0	0	0	0	515	512	0	0	
3	0	0	0	0	509	510	0	0	
4	0	0	0	0	512	511	0	0	
5	0	0	0	0	514	510	0	0	
6	0	0	0	0	513	512	0	0	
7	0	0	0	0	510	512	0	0	
8	0	0	0	0	505	511	0	0	
9	0	0	0	0	504	511	0	0	
10	0	0	0	0	501	508	0	0	
11	0	0	0	0	504	513	0	0	
12	0	0	0	0	509	508	0	0	
13	0	0	0	0	508	508	0	0	
14	0	0	0	0	506	507	0	0	
15	0	0	0	0	508	511	0	0	
0	0	0	0	0	504	509	0	0	
1	0	0	0	0	507	511	0	0	
2	0	0	0	0	507	512	0	0	
3	0	0	0	0	511	510	0	0	
4	0	0	0	0	511	510	0	0	
5	0	0	0	0	510	509	0	0	
6	0	0	0	0	508	510	0	0	
7	0	0	0	0	506	512	0	0	
8	0	0	0	0	514	511	0	0	
9	0	0	0	0	520	512	0	0	
10	0	0	0	0	512	511	0	0	
11	0	0	0	0	512	513	0	0	
12	0	0	0	0	510	510	0	0	
13	0	0	0	0	508	511	0	0	
14	0	0	0	0	505	510	0	0	
15	0	0	0	0	504	510	0	0	
0	0	0	0	0	502	512	0	0	
1	0	0	0	0	508	512	0	0	
2	0	0	0	0	514	511	0	0	
3	0	0	0	0	508	510	0	0	
4	0	0	0	0	504	508	0	0	
5	0	0	0	0	508	510	0	0	
6	0	0	0	0	508	510	0	0	
7	0	0	0	0	506	508	0	0	
8	0	0	0	0	509	511	0	0	
9	0	0	0	0	511	511	0	0	
10	0	0	0	0	508	510	0	0	
11	0	0	0	0	511	510	0	0	
12	0	0	0	0	513	511	0	0	
13	0	0	0	0	512	511	0	0	
14	0	0	0	0	511	509	0	0	
15	0	0	0	0	513	512	0	0	
0	0	0	0	0	508	510	0	0	
1	0	0	0	0	505	510	0	0	
2	0	0	0	0	508	510	0	0	
3	0	0	0	0	509	510	0	0	
4	0	0	0	0	504	511	0	0	
5	0	0	0	0	504	511	0	0	
6	0	0	0	0	504	509	0	0	
7	0	0	0	0	506	509	0	0	
8	0	0	0	0	507	510	0	0	
9	0	0	0	0	507	512	0	0	
10	0	0	0	0	504	513	0	0	
11	0	0	0	0	505	513	0	0	
12	0	0	0	0	505	510	0	0	
13	0	0	0	0	512	512	0	0	
14	0	0	0	0	516	510	0	0	
15	0	0	0	0	515	512	0	0	
0	0	0	0	0	514	511	0	0	
1	0	0	0	0	511	510	0	0	
2	0	0	0	0	511	510	0	0	
3	0	0	0	0	507	512	0	0	
4	0	0	0	0	509	511	0	0	
5	0	0	0	0	508	512	0	0	
6	0	0	0	0	508	509	0	0	
7	0	0	0	0	504	512	0	0	
8	0	0	0	0	505	510	0	0	
9	0	0	0	0	504	510	0	0	
10	0	0	0	0	504	508	0	0	
11	0	0	0	0	504	510	0	0	
12	0	0	0	0	504	510	0	0	
13	0	0	0	0	507	509	0	0	
14	0	0	0	0	507	508	0	0	
15	0	0	0	0	508	509	0	0	
0	0	0	0	0	515	510	0	0	
1	0	0	0	0	516	512	0	0	
2	0	0	0	0	519	512	0	0	
3	0	0	0	0	510	513	0	0	
4	0	0	0	0	507	513	0	0	
5	0	0	0	0	505	513	0	0	
6	0	0	0	0	510	514	0	0	
7	0	0	0	0	510	511	0	0	
8	0	0	0	0	512	510	0	0	
9	0	0	0	0	520	509	0	0	
10	0	0	0	0	511	508	0	0	
11	0	0	0	0	499	510	0	0	
12	0	0	0	0	499	511	0	0	
13	0	0	0	0	502	509	0	0	
14	0	0	0	0	498	509	0	0	
15	0	0	0	0	505	510	0	0	
0	0	0	0	0	508	511	0	0	
1	0	0	0	0	512	510	0	0	
2	0	0	0	0	512	509	0	0	
3	0	0	0	0	511	510	0	0	
4	0	0	0	0	510	510	0	0	
5	0	0	0	0	504	510	0	0	
6	0	0	0	0	505	509	0	0	
7	0	0	0	0	508	511	0	0	
8	0	0	0	0	511	512	0	0	
9	0	0	0	0	510	511	0	0	
10	0	0	0	0	515	512	0	0	
11	0	0	0	0	517	512	0	0	
12	0	0	0	0	511	510	0	0	
13	0	0	0	0	511	512	0	0	
14	0	0	0	0	508	511	0	0	
15	0	0	0	0	506	510	0	0	
0	0	0	0	0	504	510	0	0	
1	0	0	0	0	505	511	0	0	
2	0	0	0	0	504	507	0	0	
3	0	0	0	0	504	511	0	0	
4	0	0	0	0	504	510	0	0	
5	0	0	0	0	506	509	0	0	
6	0	0	0	0	508	510	0	0	
7	0	0	0	0	505	509	0	0	
8	0	0	0	0	509	511	0	0	
9	0	0	0	0	511	510	0	0	
10	0	0	0	0	510	510	0	0	
11	0	0	0	0	513	511	0	0	
12	0	0	0	0	516	511	0	0	
13	0	0	0	0	512	512	0	0	
14	0	0	0	0	512	512	0	0	
15	0	0	0	0	511	512	0	0	
0	0	0	0	0	507	512	0	0	
1	0	0	0	0	509	512	0	0	
2	0	0	0	0	506	511	0	0	
3	0	0	0	0	504	511	0	0	
4	0	0	0	0	505	510	0	0	
5	0	0	0	0	505	510	0	0	
6	0	0	0	0	508	511	0	0	
7	0	0	0	0	509	509	0	0	
8	0	0	0	0	506	510	0	0	
9	0	0	0	0	504	509	0	0	
10	0	0	0	0	505	510	0	0	
11	0	0	0	0	508	510	0	0	
12	0	0	0	0	513	511	0	0	
13	0	0	0	0	517	511	0	0	
14	0	0	0	0	512	512	0	0	
15	0	0	0	0	510	511	0	0	
0	0	0	0	0	511	512	0	0	
1	0	0	0	0	510	510	0	0	
2	0	0	0	0	509	511	0	0	
3	0	0	0	0	508	510	0	0	
4	0	0	0	0	511	512	0	0	
5	0	0	0	0	512	511	0	0	
6	0	0	0	0	511	509	0	0	
7	0	0	0	0	508	510	0	0	
8	0	0	0	0	508	509	0	0	
9	0	0	0	0	504	509	0	0	
10	0	0	0	0	500	510	0	0	
11	0	0	0	0	499	512	0	0	
12	0	0	0	0	502	511	0	0	
13	0	0	0	0	504	510	0	0	
14	0	0	0	0	508	510	0	0	
15	0	0	0	0	508	510	0	0	
0	0	0	0	0	509	512	0	0	
1	0	0	0	0	508	513	0	0	
2	0	0	0	0	511	512	0	0	
3	0	0	0	0	510	510	0	0	
4	0	0	0	0	514	508	0	0	
5	0	0	0	0	515	509	0	0	
6	0	0	0	0	514	512	0	0	
7	0	0	0	0	513	510	0	0	
8	0	0	0	0	518	511	0	0	
9	0	0	0	0	518	511	0	0	
10	0	0	0	0	512	510	0	0	
11	0	0	0	0	502	510	0	0	
12	0	0	0	0	501	510	0	0	
13	0	0	0	0	496	511	0	0	
14	0	0	0	0	495	509	0	0	
15	0	0	0	0	504	512	0	0	
0	0	0	0	0	508	510	0	0	
1	0	0	0	0	509	509	0	0	
2	0	0	0	0	506	512	0	0	
3	0	0	0	0	508	511	0	0	
4	0	0	0	0	510	509	0	0	
5	0	0	0	0	512	508	0	0	
6	0	0	0	0	512	508	0	0	
7	0	0	0	0	515	512	0	0	
8	0	0	0	0	514	511	0	0	
9	0	0	0	0	515	511	0	0	
10	0	0	0	0	511	509	0	0	
11	0	0	0	0	507	511	0	0	
12	0	0	0	0	507	512	0	0	
13	0	0	0	0	503	513	0	0	
14	0	0	0	0	507	511	0	0	
15	0	0	0	0	510	510	0	0	
0	0	0	0	0	510	508	0	0	
1	0	0	0	0	517	511	0	0	
2	0	0	0	0	509	511	0	0	
3	0	0	0	0	501	511	0	0	
4	0	0	0	0	498	512	0	0	
5	0	0	0	0	504	510	0	0	
6	0	0	0	0	504	510	0	0	
7	0	0	0	0	507	508	0	0	
8	0	0	0	0	509	511	0	0	
9	0	0	0	0	509	512	0	0	
10	0	0	0	0	509	509	0	0	
11	0	0	0	0	510	509	0	0	
12	0	0	0	0	511	513	0	0	
13	0	0	0	0	514	512	0	0	
14	0	0	0	0	516	508	0	0	
15	0	0	0	0	515	509	0	0	
0	0	0	0	0	512	510	0	0	
1	0	0	0	0	512	508	0	0	
2	0	0	0	0	506	509	0	0	
3	0	0	0	0	504	510	0	0	
4	0	0	0	0	504	511	0	0	
5	0	0	0	0	503	510	0	0	
6	0	0	0	0	499	511	0	0	
7	0	0	0	0	503	510	0	0	
8	0	0	0	0	504	510	0	0	
9	0	0	0	0	507	509	0	0	
10	0	0	0	0	511	511	0	0	
11	0	0	0	0	512	511	0	0	
12	0	0	0	0	512	512	0	0	
13	0	0	0	0	511	512	0	0	
14	0	0	0	0	512	511	0	0	
15	0	0	0	0	511	511	0	0	
0	0	0	0	0	512	513	0	0	
1	0	0	0	0	512	510	0	0	
2	0	0	0	0	511	510	0	0	
3	0	0	0	0	508	510	0	0	
4	0	0	0	0	507	510	0	0	
5	0	0	0	0	509	511	0	0	
6	0	0	0	0	508	512	0	0	
7	0	0	0	0	505	509	0	0	
8	0	0	0	0	509	510	0	0	
9	0	0	0	0	507	511	0	0	
10	0	0	0	0	504	510	0	0	
11	0	0	0	0	504	511	0	0	
12	0	0	0	0	505	511	0	0	
13	0	0	0	0	508	511	0	0	
14	0	0	0	0	506	512	0	0	
15	0	0	0	0	509	510	0	0	
0	0	0	0	0	512	512	0	0	
1	0	0	0	0	508	512	0	0	
2	0	0	0	0	504	509	0	0	
3	0	0	0	0	504	509	0	0	
4	0	0	0	0	508	512	0	0	
5	0	0	0	0	520	511	0	0	
6	0	0	0	0	514	511	0	0	
7	0	0	0	0	509	511	0	0	
8	0	0	0	0	509	510	0	0	
9	0	0	0	0	518	511	0	0	
10	0	0	0	0	511	511	0	0	
11	0	0	0	0	502	511	0	0	
12	0	0	0	0	501	511	0	0	
13	0	0	0	0	504	509	0	0	
14	0	0	0	0	509	509	0	0	
15	0	0	0	0	507	512	0	0	
0	0	0	0	0	505	511	0	0	
1	0	0	0	0	509	510	0	0	
2	0	0	0	0	511	510	0	0	
3	0	0	0	0	511	510	0	0	
4	0	0	0	0	511	510	0	0	
5	0	0	0	0	509	508	0	0	
6	0	0	0	0	507	510	0	0	
7	0	0	0	0	504	511	0	0	
8	0	0	0	0	508	512	0	0	
9	0	0	0	0	508	511	0	0	
10	0	0	0	0	512	510	0	0	
11	0	0	0	0	513	511	0	0	
12	0	0	0	0	513	510	0	0	
13	0	0	0	0	513	510	0	0	
14	0	0	0	0	510	511	0	0	
15	0	0	0	0	504	511	0	0	
0	0	0	0	0	504	509	0	0	
1	0	0	0	0	503	509	0	0	
2	0	0	0	0	504	511	0	0	
3	0	0	0	0	505	508	0	0	
4	0	0	0	0	504	508	0	0	
5	0	0	0	0	511	510	0	0	
6	0	0	0	0	516	512	0	0	
7	0	0	0	0	510	511	0	0	
8	0	0	0	0	510	510	0	0	
9	0	0	0	0	511	510	0	0	
10	0	0	0	0	511	512	0	0	
11	0	0	0	0	510	513	0	0	
12	0	0	0	0	511	515	0	0	
13	0	0	0	0	511	510	0	0	
14	0	0	0	0	507	512	0	0	
15	0	0	0	0	505	512	0	0	
0	0	0	0	0	507	510	0	0	
1	0	0	0	0	505	511	0	0	
2	0	0	0	0	506	511	0	0	
3	0	0	0	0	508	511	0	0	
4	0	0	0	0	508	513	0	0	
5	0	0	0	0	505	511	0	0	
6	0	0	0	0	506	508	0	0	
7	0	0	0	0	508	508	0	0	
8	0	0	0	0	516	509	0	0	
9	0	0	0	0	514	509	0	0	
10	0	0	0	0	508	510	0	0	
11	0	0	0	0	508	509	0	0	
12	0	0	0	0	510	510	0	0	
13	0	0	0	0	512	513	0	0	
14	0	0	0	0	510	511	0	0	
15	0	0	0	0	507	511	0	0	
0	0	0	0	0	508	510	0	0	
1	0	0	0	0	509	510	0	0	
2	0	0	0	0	510	513	0	0	
3	0	0	0	0	507	515	0	0	
4	0	0	0	0	503	512	0	0	
5	0	0	0	0	506	509	0	0	
6	0	0	0	0	507	512	0	0	
7	0	0	0	0	507	511	0	0	
8	0	0	0	0	507	508	0	0	
9	0	0	0	0	512	508	0	0	
10	0	0	0	0	506	509	0	0	
11	0	0	0	0	502	510	0	0	
12	0	0	0	0	503	510	0	0	
13	0	0	0	0	505	508	0	0	
14	0	0	0	0	508	508	0	0	
15	0	0	0	0	510	510	0	0	
0	0	0	0	0	511	510	0	0	
1	0	0	0	0	513	512	0	0	
2	0	0	0	0	515	512	0	0	
3	0	0	0	0	513	512	0	0	
4	0	0	0	0	510	511	0	0	
5	0	0	0	0	507	511	0	0	
6	0	0	0	0	508	511	0	0	
7	0	0	0	0	510	510	0	0	
8	0	0	0	0	507	513	0	0	
9	0	0	0	0	510	509	0	0	
10	0	0	0	0	508	511	0	0	
11	0	0	0	0	507	511	0	0	
12	0	0	0	0	511	508	0	0	
13	0	0	0	0	511	511	0	0	
14	0	0	0	0	507	508	0	0	
15	0	0	0	0	504	512	0	0	
0	0	0	0	0	502	509	0	0	
1	0	0	0	0	503	509	0	0	
2	0	0	0	0	505	511	0	0	
3	0	0	0	0	509	511	0	0	
4	0	0	0	0	511	510	0	0	
5	0	0	0	0	520	511	0	0	
6	0	0	0	0	516	511	0	0	
7	0	0	0	0	512	512	0	0	
8	0	0	0	0	504	513	0	0	
9	0	0	0	0	502	512	0	0	
10	0	0	0	0	514	512	0	0	
11	0	0	0	0	519	507	0	0	
12	0	0	0	0	515	509	0	0	
13	0	0	0	0	511	510	0	0	
14	0	0	0	0	507	511	0	0	
15	0	0	0	0	504	508	0	0	
0	0	0	0	0	504	509	0	0	
1	0	0	0	0	500	509	0	0	
2	0	0	0	0	500	510	0	0	
3	0	0	0	0	501	510	0	0	
4	0	0	0	0	503	511	0	0	
5	0	0	0	0	505	511	0	0	
6	0	0	0	0	508	511	0	0	
7	0	0	0	0	511	509	0	0	
8	0	0	0	0	514	509	0	0	
9	0	0	0	0	516	511	0	0	
10	0	0	0	0	519	512	0	0	
11	0	0	0	0	515	510	0	0	
12	0	0	0	0	510	510	0	0	
13	0	0	0	0	508	512	0	0	
14	0	0	0	0	508	510	0	0	
15	0	0	0	0	507	511	0	0	
0	0	0	0	0	505	511	0	0	
1	0	0	0	0	508	509	0	0	
2	0	0	0	0	512	512	0	0	
3	0	0	0	0	510	513	0	0	
4	0	0	0	0	507	511	0	0	
5	0	0	0	0	506	509	0	0	
6	0	0	0	0	505	511	0	0	
7	0	0	0	0	507	511	0	0	
8	0	0	0	0	503	510	0	0	
9	0	0	0	0	507	511	0	0	
10	0	0	0	0	507	508	0	0	
11	0	0	0	0	509	507	0	0	
12	0	0	0	0	510	511	0	0	
13	0	0	0	0	512	512	0	0	
14	0	0	0	0	511	511	0	0	
15	0	0	0	0	508	510	0	0	
0	0	0	0	0	508	510	0	0	
1	0	0	0	0	508	511	0	0	
2	0	0	0	0	511	509	0	0	
3	0	0	0	0	513	511	0	0	
4	0	0	0	0	515	511	0	0	
5	0	0	0	0	516	511	0	0	
6	0	0	0	0	507	508	0	0	
7	0	0	0	0	504	512	0	0	
8	0	0	0	0	506	512	0	0	
9	0	0	0	0	509	511	0	0	
10	0	0	0	0	504	511	0	0	
11	0	0	0	0	505	511	0	0	
12	0	0	0	0	513	508	0	0	
13	0	0	0	0	510	512	0	0	
14	0	0	0	0	504	510	0	0	
15	0	0	0	0	502	512	0	0	
0	0	0	0	0	501	509	0	0	
1	0	0	0	0	508	509	0	0	
2	0	0	0	0	510	513	0	0	
3	0	0	0	0	512	514	0	0	
4	0	0	0	0	513	512	0	0	
5	0	0	0	0	510	512	0	0	
6	0	0	0	0	510	513	0	0	
7	0	0	0	0	510	509	0	0	
8	0	0	0	0	509	509	0	0	
9	0	0	0	0	509	509	0	0	
10	0	0	0	0	511	509	0	0	
11	0	0	0	0	509	510	0	0	
12	0	0	0	0	512	511	0	0	
13	0	0	0	0	511	508	0	0	
14	0	0	0	0	505	509	0	0	
15	0	0	0	0	504	511	0	0	
0	0	0	0	0	507	510	0	0	
1	0	0	0	0	506	511	0	0	
2	0	0	0	0	505	512	0	0	
3	0	0	0	0	504	511	0	0	
4	0	0	0	0	506	510	0	0	
5	0	0	0	0	504	510	0	0	
6	0	0	0	0	502	511	0	0	
7	0	0	0	0	508	510	0	0	
8	0	0	0	0	513	512	0	0	
9	0	0	0	0	521	510	0	0	
10	0	0	0	0	525	511	0	0	
11	0	0	0	0	526	511	0	0	
12	0	0	0	0	513	511	0	0	
13	0	0	0	0	507	510	0	0	
14	0	0	0	0	502	510	0	0	
15	0	0	0	0	497	511	0	0	
0	0	0	0	0	496	511	0	0	
1	0	0	0	0	499	510	0	0	
2	0	0	0	0	504	510	0	0	
3	0	0	0	0	513	509	0	0	
4	0	0	0	0	511	510	0	0	
5	0	0	0	0	508	510	0	0	
6	0	0	0	0	503	509	0	0	
7	0	0	0	0	498	511	0	0	
8	0	0	0	0	504	510	0	0	
9	0	0	0	0	510	509	0	0	
10	0	0	0	0	519	512	0	0	
11	0	0	0	0	521	511	0	0	
12	0	0	0	0	518	510	0	0	
13	0	0	0	0	515	512	0	0	
14	0	0	0	0	509	513	0	0	
15	0	0	0	0	509	510	0	0	
0	0	0	0	0	503	510	0	0	
1	0	0	0	0	500	512	0	0	
2	0	0	0	0	502	511	0	0	
3	0	0	0	0	510	511	0	0	
4	0	0	0	0	503	507	0	0	
5	0	0	0	0	513	512	0	0	
6	0	0	0	0	514	511	0	0	
7	0	0	0	0	526	510	0	0	
8	0	0	0	0	508	512	0	0	
9	0	0	0	0	510	512	0	0	
10	0	0	0	0	503	509	0	0	
11	0	0	0	0	502	511	0	0	
12	0	0	0	0	503	509	0	0	
13	0	0	0	0	505	508	0	0	
14	0	0	0	0	508	510	0	0	
15	0	0	0	0	511	511	0	0	
0	0	0	0	0	509	510	0	0	
1	0	0	0	0	510	511	0	0	
2	0	0	0	0	511	511	0	0	
3	0	0	0	0	511	511	0	0	
4	0	0	0	0	511	512	0	0	
5	0	0	0	0	510	512	0	0	
6	0	0	0	0	510	508	0	0	
7	0	0	0	0	508	510	0	0	
8	0	0	0	0	507	508	0	0	
9	0	0	0	0	500	511	0	0	
10	0	0	0	0	496	510	0	0	
11	0	0	0	0	496	509	0	0	
12	0	0	0	0	492	511	0	0	
13	0	0	0	0	520	513	0	0	
14	0	0	0	0	517	511	0	0	
15	0	0	0	0	511	511	0	0	
0	0	0	0	0	512	511	0	0	
1	0	0	0	0	510	511	0	0	
2	0	0	0	0	511	512	0	0	
3	0	0	0	0	511	509	0	0	
4	0	0	0	0	507	510	0	0	
5	0	0	0	0	518	509	0	0	
6	0	0	0	0	513	512	0	0	
7	0	0	0	0	511	510	0	0	
8	0	0	0	0	510	510	0	0	
9	0	0	0	0	509	511	0	0	
10	0	0	0	0	507	512	0	0	
11	0	0	0	0	502	509	0	0	
12	0	0	0	0	501	510	0	0	
13	0	0	0	0	500	510	0	0	
14	0	0	0	0	500	511	0	0	
15	0	0	0	0	506	510	0	0	
0	0	0	0	0	511	510	0	0	
1	0	0	0	0	511	508	0	0	
2	0	0	0	0	514	508	0	0	
3	0	0	0	0	514	513	0	0	
4	0	0	0	0	519	510	0	0	
5	0	0	0	0	510	512	0	0	
6	0	0	0	0	506	510	0	0	
7	0	0	0	0	506	512	0	0	
8	0	0	0	0	508	512	0	0	
9	0	0	0	0	508	512	0	0	
10	0	0	0	0	513	512	0	0	
11	0	0	0	0	513	511	0	0	
12	0	0	0	0	508	508	0	0	
13	0	0	0	0	510	510	0	0	
14	0	0	0	0	500	510	0	0	
15	0	0	0	0	499	510	0	0	
0	0	0	0	0	508	510	0	0	
1	0	0	0	0	517	512	0	0	
2	0	0	0	0	527	512	0	0	
3	0	0	0	0	516	508	0	0	
4	0	0	0	0	509	510	0	0	
5	0	0	0	0	484	510	0	0	
6	0	0	0	0	482	511	0	0	
7	0	0	0	0	489	510	0	0	
8	0	0	0	0	499	509	0	0	
9	0	0	0	0	508	508	0	0	
10	0	0	0	0	525	509	0	0	
11	0	0	0	0	542	513	0	0	
12	0	0	0	0	540	515	0	0	
13	0	0	0	0	518	514	0	0	
14	0	0	0	0	506	511	0	0	
15	0	0	0	0	502	509	0	0	
0	0	0	0	0	505	508	0	0	
1	0	0	0	0	504	511	0	0	
2	0	0	0	0	502	508	0	0	
3	0	0	0	0	503	510	0	0	
4	0	0	0	0	500	508	0	0	
5	0	0	0	0	501	509	0	0	
6	0	0	0	0	504	511	0	0	
7	0	0	0	0	503	510	0	0	
8	0	0	0	0	505	511	0	0	
9	0	0	0	0	508	511	0	0	
10	0	0	0	0	512	512	0	0	
11	0	0	0	0	506	509	0	0	
12	0	0	0	0	508	511	0	0	
13	0	0	0	0	513	510	0	0	
14	0	0	0	0	515	509	0	0	
15	0	0	0	0	519	511	0	0	
0	0	0	0	0	521	512	0	0	
1	0	0	0	0	515	510	0	0	
2	0	0	0	0	507	512	0	0	
3	0	0	0	0	500	508	0	0	
4	0	0	0	0	498	512	0	0	
5	0	0	0	0	503	510	0	0	
6	0	0	0	0	510	511	0	0	
7	0	0	0	0	506	513	0	0	
8	0	0	0	0	502	512	0	0	
9	0	0	0	0	505	508	0	0	
10	0	0	0	0	505	509	0	0	
11	0	0	0	0	512	510	0	0	
12	0	0	0	0	515	510	0	0	
13	0	0	0	0	510	511	0	0	
14	0	0	0	0	508	508	0	0	
15	0	0	0	0	504	510	0	0	
0	0	0	0	0	505	509	0	0	
1	0	0	0	0	504	512	0	0	
2	0	0	0	0	504	511	0	0	
3	0	0	0	0	516	512	0	0	
4	0	0	0	0	516	508	0	0	
5	0	0	0	0	514	508	0	0	
6	0	0	0	0	510	509	0	0	
7	0	0	0	0	512	510	0	0	
8	0	0	0	0	515	513	0	0	
9	0	0	0	0	520	511	0	0	
10	0	0	0	0	518	510	0	0	
11	0	0	0	0	506	508	0	0	
12	0	0	0	0	504	510	0	0	
13	0	0	0	0	499	509	0	0	
14	0	0	0	0	496	510	0	0	
15	0	0	0	0	499	511	0	0	
0	0	0	0	0	499	510	0	0	
1	0	0	0	0	504	512	0	0	
2	0	0	0	0	510	511	0	0	
3	0	0	0	0	512	511	0	0	
4	0	0	0	0	511	510	0	0	
5	0	0	0	0	510	510	0	0	
6	0	0	0	0	511	509	0	0	
7	0	0	0	0	512	512	0	0	
8	0	0	0	0	514	510	0	0	
9	0	0	0	0	515	509	0	0	
10	0	0	0	0	512	509	0	0	
11	0	0	0	0	507	513	0	0	
12	0	0	0	0	504	511	0	0	
13	0	0	0	0	502	510	0	0	
14	0	0	0	0	506	511	0	0	
15	0	0	0	0	514	508	0	0	
0	0	0	0	0	512	511	0	0	
1	0	0	0	0	510	511	0	0	
2	0	0	0	0	502	510	0	0	
3	0	0	0	0	500	509	0	0	
4	0	0	0	0	504	509	0	0	
5	0	0	0	0	507	511	0	0	
6	0	0	0	0	509	508	0	0	
7	0	0	0	0	509	510	0	0	
8	0	0	0	0	507	511	0	0	
9	0	0	0	0	505	511	0	0	
10	0	0	0	0	508	509	0	0	
11	0	0	0	0	510	511	0	0	
12	0	0	0	0	514	513	0	0	
13	0	0	0	0	511	511	0	0	
14	0	0	0	0	509	510	0	0	
15	0	0	0	0	516	513	0	0	
0	0	0	0	0	517	512	0	0	
1	0	0	0	0	511	511	0	0	
2	0	0	0	0	507	509	0	0	
3	0	0	0	0	504	512	0	0	
4	0	0	0	0	512	510	0	0	
5	0	0	0	0	508	510	0	0	
6	0	0	0	0	508	506	0	0	
7	0	0	0	0	510	509	0	0	
8	0	0	0	0	503	508	0	0	
9	0	0	0	0	501	512	0	0	
10	0	0	0	0	502	511	0	0	
11	0	0	0	0	499	511	0	0	
12	0	0	0	0	510	513	0	0	
13	0	0	0	0	513	512	0	0	
14	0	0	0	0	511	512	0	0	
15	0	0	0	0	512	512	0	0	
0	0	0	0	0	510	509	0	0	
1	0	0	0	0	513	509	0	0	
2	0	0	0	0	512	510	0	0	
3	0	0	0	0	512	511	0	0	
4	0	0	0	0	509	510	0	0	
5	0	0	0	0	506	511	0	0	
6	0	0	0	0	509	511	0	0	
7	0	0	0	0	513	509	0	0	
8	0	0	0	0	514	508	0	0	
9	0	0	0	0	509	511	0	0	
10	0	0	0	0	500	511	0	0	
11	0	0	0	0	493	512	0	0	
12	0	0	0	0	497	508	0	0	
13	0	0	0	0	514	510	0	0	
14	0	0	0	0	508	509	0	0	
15	0	0	0	0	513	511	0	0	
0	0	0	0	0	515	510	0	0	
1	0	0	0	0	512	511	0	0	
2	0	0	0	0	511	511	0	0	
3	0	0	0	0	511	511	0	0	
4	0	0	0	0	513	512	0	0	
5	0	0	0	0	513	509	0	0	
6	0	0	0	0	511	513	0	0	
7	0	0	0	0	506	509	0	0	
8	0	0	0	0	508	510	0	0	
9	0	0	0	0	508	509	0	0	
10	0	0	0	0	503	511	0	0	
11	0	0	0	0	504	511	0	0	
12	0	0	0	0	506	509	0	0	
13	0	0	0	0	508	508	0	0	
14	0	0	0	0	515	512	0	0	
15	0	0	0	0	510	510	0	0	
0	0	0	0	0	505	510	0	0	
1	0	0	0	0	510	511	0	0	
2	0	0	0	0	508	510	0	0	
3	0	0	0	0	507	511	0	0	
4	0	0	0	0	507	510	0	0	
5	0	0	0	0	509	511	0	0	
6	0	0	0	0	503	511	0	0	
7	0	0	0	0	503	509	0	0	
8	0	0	0	0	510	513	0	0	
9	0	0	0	0	509	515	0	0	
10	0	0	0	0	520	512	0	0	
11	0	0	0	0	513	513	0	0	
12	0	0	0	0	511	510	3	0	
13	0	0	0	0	512	511	6	0	
14	0	0	0	0	508	511	7	0	
15	0	0	0	0	510	509	7	0	
0	0	0	0	0	502	508	7	0	
1	0	0	0	0	501	511	8	0	
2	0	0	0	0	503	511	7	0	
3	0	0	0	0	508	510	7	0	
4	0	0	0	0	513	509	7	0	
5	0	0	0	0	511	508	7	0	
6	0	0	0	0	503	511	8	0	
7	0	0	0	0	511	509	9	0	
8	0	0	0	0	518	508	9	0	
9	0	0	0	0	516	510	9	0	
10	0	0	0	0	507	510	10	0	
11	0	0	0	0	503	510	10	0	
12	0	0	0	0	508	513	10	0	
13	0	0	0	0	513	513	10	0	
14	0	0	0	0	511	511	10	0	
15	0	0	0	0	509	510	11	0	
0	0	0	0	0	509	512	12	0	
1	0	0	0	0	505	512	11	0	
2	0	0	0	0	506	511	11	0	
3	0	0	0	0	507	511	12	0	
4	0	0	0	0	507	510	13	0	
5	0	0	0	0	505	511	12	0	
6	0	0	0	0	500	509	12	0	
7	0	0	0	0	505	511	12	0	
8	0	0	0	0	511	510	12	0	
9	0	0	0	0	508	509	12	0	
10	0	0	0	0	508	509	13	0	
11	0	0	0	0	515	510	13	0	
12	0	0	0	0	519	510	13	0	
13	0	0	0	0	514	509	13	0	
14	0	0	0	0	504	509	12	0	
15	0	0	0	0	506	511	12	0	
0	0	0	0	0	511	511	11	0	
1	0	0	0	0	508	511	10	0	
2	0	0	0	0	508	511	11	0	
3	0	0	0	0	513	510	12	0	
4	0	0	0	0	511	512	13	0	
5	0	0	0	0	510	511	12	0	
6	0	0	0	0	503	509	12	0	
7	0	0	0	0	505	510	12	0	
8	0	0	0	0	503	510	12	0	
9	0	0	0	0	503	511	13	0	
10	0	0	0	0	505	509	13	0	
11	0	0	0	0	511	510	9	0	
12	0	0	0	0	507	510	10	0	
13	0	0	0	0	505	510	11	0	
14	0	0	0	0	507	511	10	0	
15	0	0	0	0	508	510	10	0	
0	0	0	0	0	510	512	10	0	
1	0	0	0	0	511	512	10	0	
2	0	0	0	0	511	510	10	0	
3	0	0	0	0	512	510	10	0	
4	0	0	0	0	515	511	11	0	
5	0	0	0	0	516	509	10	0	
6	0	0	0	0	511	511	10	0	
7	0	0	0	0	509	511	11	0	
8	0	0	0	0	511	512	11	0	
9	0	0	0	0	508	511	11	0	
10	0	0	0	0	508	511	10	0	
11	0	0	0	0	503	511	11	0	
12	0	0	0	0	501	508	10	0	
13	0	0	0	0	502	509	10	0	
14	0	0	0	0	503	507	10	0	
15	0	0	0	0	508	508	10	0	
0	0	0	0	0	509	511	10	0	
1	0	0	0	0	511	509	11	0	
2	0	0	0	0	512	511	11	0	
3	0	0	0	0	506	512	11	0	
4	0	0	0	0	507	511	11	0	
5	0	0	0	0	509	512	10	0	
6	0	0	0	0	514	509	11	0	
7	0	0	0	0	517	512	11	0	
8	0	0	0	0	511	512	12	0	
9	0	0	0	0	509	511	10	0	
10	0	0	0	0	508	511	10	0	
11	0	0	0	0	508	510	11	0	
12	0	0	0	0	508	509	12	0	
13	0	0	0	0	511	511	13	0	
14	0	0	0	0	511	509	12	0	
15	0	0	0	0	515	510	12	0	
0	0	0	0	0	510	510	12	0	
1	0	0	0	0	503	511	13	0	
2	0	0	0	0	500	511	13	0	
3	0	0	0	0	499	511	13	0	
4	0	0	0	0	504	509	12	0	
5	0	0	0	0	508	508	13	0	
6	0	0	0	0	512	511	12	0	
7	0	0	0	0	509	511	13	0	
8	0	0	0	0	510	511	13	0	
9	0	0	0	0	509	511	13	0	
10	0	0	0	0	510	511	13	0	
11	0	0	0	0	510	511	14	0	
12	0	0	0	0	509	509	14	0	
13	0	0	0	0	510	511	14	0	
14	0	0	0	0	511	513	14	0	
15	0	0	0	0	510	509	15	0	
0	0	0	0	0	512	510	14	0	
1	0	0	0	0	515	511	14	0	
2	0	0	0	0	511	510	14	0	
3	0	0	0	0	508	510	14	0	
4	0	0	0	0	503	510	13	0	
5	0	0	0	0	498	509	14	0	
6	0	0	0	0	499	509	14	0	
7	0	0	0	0	499	510	13	0	
8	0	0	0	0	504	508	13	0	
9	0	0	0	0	515	512	12	0	
10	0	0	0	0	517	513	12	0	
11	0	0	0	0	511	512	12	0	
12	0	0	0	0	508	513	12	0	
13	0	0	0	0	507	510	12	0	
14	0	0	0	0	508	511	12	0	
15	0	0	0	0	514	511	11	0	
0	0	0	0	0	511	509	13	0	
1	0	0	0	0	515	509	13	0	
2	0	0	0	0	514	511	12	0	
3	0	0	0	0	511	512	12	0	
4	0	0	0	0	508	508	14	0	
5	0	0	0	0	506	508	13	0	
6	0	0	0	0	506	509	14	0	
7	0	0	0	0	507	511	11	0	
8	0	0	0	0	506	510	13	0	
9	0	0	0	0	502	510	13	0	
10	0	0	0	0	503	510	13	0	
11	0	0	0	0	504	511	13	0	
12	0	0	0	0	502	511	13	0	
13	0	0	0	0	504	510	15	0	
14	0	0	0	0	507	510	12	0	
15	0	0	0	0	516	511	11	0	
0	0	0	0	0	524	509	12	0	
1	0	0	0	0	512	513	13	0	
2	0	0	0	0	509	510	14	0	
3	0	0	0	0	510	511	13	0	
4	0	0	0	0	511	512	13	0	
5	0	0	0	0	511	511	14	0	
6	0	0	0	0	509	509	13	0	
7	0	0	0	0	509	509	13	0	
8	0	0	0	0	510	511	13	0	
9	0	0	0	0	507	510	14	0	
10	0	0	0	0	507	512	13	0	
11	0	0	0	0	507	510	13	0	
12	0	0	0	0	504	512	13	0	
13	0	0	0	0	503	508	13	0	
14	0	0	0	0	507	511	13	0	
15	0	0	0	0	508	512	12	0	
0	0	0	0	0	509	510	14	0	
1	0	0	0	0	504	509	14	0	
2	0	0	0	0	500	509	14	0	
3	0	0	0	0	505	509	13	0	
4	0	0	0	0	512	509	13	0	
5	0	0	0	0	515	511	13	0	
6	0	0	0	0	512	511	14	0	
7	0	0	0	0	509	512	14	0	
8	0	0	0	0	510	511	14	0	
9	0	0	0	0	512	511	14	0	
10	0	0	0	0	514	510	14	0	
11	0	0	0	0	515	510	14	0	
12	0	0	0	0	512	508	13	0	
13	0	0	0	0	513	513	12	0	
14	0	0	0	0	509	511	14	0	
15	0	0	0	0	508	509	13	0	
0	0	0	0	0	507	512	13	0	
1	0	0	0	0	500	508	14	0	
2	0	0	0	0	502	511	14	0	
3	0	0	0	0	504	511	14	0	
4	0	0	0	0	506	510	15	0	
5	0	0	0	0	509	511	14	0	
6	0	0	0	0	507	510	14	0	
7	0	0	0	0	511	510	14	0	
8	0	0	0	0	511	511	14	0	
9	0	0	0	0	509	511	14	0	
10	0	0	0	0	511	510	14	0	
11	0	0	0	0	510	512	14	0	
12	0	0	0	0	510	512	14	0	
13	0	0	0	0	511	511	14	0	
14	0	0	0	0	512	510	14	0	
15	0	0	0	0	510	510	14	0	
0	0	0	0	0	508	510	13	0	
1	0	0	0	0	504	509	12	0	
2	0	0	0	0	512	513	13	0	
3	0	0	0	0	509	510	11	0	
4	0	0	0	0	504	509	11	0	
5	0	0	0	0	508	508	13	0	
6	0	0	0	0	502	509	13	0	
7	0	0	0	0	503	511	14	0	
8	0	0	0	0	508	510	14	0	
9	0	0	0	0	506	510	14	0	
10	0	0	0	0	510	511	14	0	
11	0	0	0	0	510	512	14	0	
12	0	0	0	0	511	508	14	0	
13	0	0	0	0	512	509	14	0	
14	0	0	0	0	513	509	14	0	
15	0	0	0	0	511	510	14	0	
0	0	0	0	0	510	511	15	0	
1	0	0	0	0	509	513	14	0	
2	0	0	0	0	513	511	14	0	
3	0	0	0	0	513	510	14	0	
4	0	0	0	0	510	510	15	0	
5	0	0	0	0	504	511	14	0	
6	0	0	0	0	502	509	14	0	
7	0	0	0	0	503	511	14	0	
8	0	0	0	0	508	513	15	0	
9	0	0	0	0	504	509	15	0	
10	0	0	0	0	504	510	14	0	
11	0	0	0	0	508	508	15	0	
12	0	0	0	0	504	510	14	0	
13	0	0	0	0	503	510	14	0	
14	0	0	0	0	504	512	13	0	
15	0	0	0	0	508	511	11	0	
0	0	0	0	0	515	510	10	0	
1	0	0	0	0	519	508	11	0	
2	0	0	0	0	516	511	12	0	
3	0	0	0	0	516	512	12	0	
4	0	0	0	0	513	510	12	0	
5	0	0	0	0	512	512	10	0	
6	0	0	0	0	510	512	11	0	
7	0	0	0	0	512	510	11	0	
8	0	0	0	0	514	509	13	0	
9	0	0	0	0	506	511	13	0	
10	0	0	0	0	501	511	14	0	
11	0	0	0	0	499	512	14	0	
12	0	0	0	0	507	512	14	0	
13	0	0	0	0	507	511	14	0	
14	0	0	0	0	503	509	14	0	
15	0	0	0	0	504	510	12	0	
0	0	0	0	0	505	511	12	0	
1	0	0	0	0	507	509	13	0	
2	0	0	0	0	506	511	12	0	
3	0	0	0	0	506	509	11	0	
4	0	0	0	0	512	509	13	0	
5	0	0	0	0	513	509	12	0	
6	0	0	0	0	522	513	12	0	
7	0	0	0	0	514	511	10	0	
8	0	0	0	0	510	510	10	0	
9	0	0	0	0	511	510	9	0	
10	0	0	0	0	511	512	9	0	
11	0	0	0	0	514	512	10	0	
12	0	0	0	0	514	509	9	0	
13	0	0	0	0	507	510	10	0	
14	0	0	0	0	502	511	10	0	
15	0	0	0	0	499	511	9	0	
0	0	0	0	0	501	510	10	0	
1	0	0	0	0	505	509	11	0	
2	0	0	0	0	506	509	10	0	
3	0	0	0	0	503	508	9	0	
4	0	0	0	0	500	510	9	0	
5	0	0	0	0	506	509	11	0	
6	0	0	0	0	510	511	10	0	
7	0	0	0	0	511	511	9	0	
8	0	0	0	0	510	510	9	0	
9	0	0	0	0	514	510	9	0	
10	0	0	0	0	514	511	9	0	
11	0	0	0	0	513	509	10	0	
12	0	0	0	0	512	511	9	0	
13	0	0	0	0	512	510	10	0	
14	0	0	0	0	513	511	9	0	
15	0	0	0	0	511	514	10	0	
0	0	0	0	0	510	510	10	0	
1	0	0	0	0	510	508	11	0	
2	0	0	0	0	505	513	10	0	
3	0	0	0	0	514	513	11	0	
4	0	0	0	0	504	514	10	0	
5	0	0	0	0	496	511	10	0	
6	0	0	0	0	496	512	10	0	
7	0	0	0	0	505	510	12	0	
8	0	0	0	0	512	511	11	0	
9	0	0	0	0	510	511	11	0	
10	0	0	0	0	510	508	11	0	
11	0	0	0	0	508	509	11	0	
12	0	0	0	0	510	508	11	0	
13	0	0	0	0	524	511	9	0	
14	0	0	0	0	505	511	12	0	
15	0	0	0	0	506	511	12	0	
0	0	0	0	0	515	513	12	0	
1	0	0	0	0	519	510	12	0	
2	0	0	0	0	509	511	13	0	
3	0	0	0	0	507	512	13	0	
4	0	0	0	0	508	509	12	0	
5	0	0	0	0	505	511	13	0	
6	0	0	0	0	507	510	13	0	
7	0	0	0	0	504	508	12	0	
8	0	0	0	0	505	510	11	0	
9	0	0	0	0	506	510	12	0	
10	0	0	0	0	505	510	11	0	
11	0	0	0	0	506	510	11	0	
12	0	0	0	0	505	506	10	0	
13	0	0	0	0	503	507	11	0	
14	0	0	0	0	502	509	11	0	
15	0	0	0	0	507	512	11	0	
0	0	0	0	0	510	511	11	0	
1	0	0	0	0	511	512	11	0	
2	0	0	0	0	514	512	11	0	
3	0	0	0	0	517	511	10	0	
4	0	0	0	0	518	514	11	0	
5	0	0	0	0	515	511	11	0	
6	0	0	0	0	512	512	12	0	
7	0	0	0	0	510	509	12	0	
8	0	0	0	0	505	510	12	0	
9	0	0	0	0	503	512	13	0	
10	0	0	0	0	507	513	13	0	
11	0	0	0	0	505	510	14	0	
12	0	0	0	0	505	509	13	0	
13	0	0	0	0	503	510	11	0	
14	0	0	0	0	503	508	12	0	
15	0	0	0	0	504	510	12	0	
0	0	0	0	0	505	509	11	0	
1	0	0	0	0	508	508	11	0	
2	0	0	0	0	510	509	11	0	
3	0	0	0	0	508	513	11	0	
4	0	0	0	0	511	514	11	0	
5	0	0	0	0	513	511	12	0	
6	0	0	0	0	511	511	10	0	
7	0	0	0	0	512	511	12	0	
8	0	0	0	0	511	512	13	0	
9	0	0	0	0	511	509	11	0	
10	0	0	0	0	510	512	11	0	
11	0	0	0	0	509	508	11	0	
12	0	0	0	0	507	511	11	0	
13	0	0	0	0	508	510	14	0	
14	0	0	0	0	509	510	14	0	
15	0	0	0	0	511	510	14	0	
0	0	0	0	0	511	511	14	0	
1	0	0	0	0	516	510	14	0	
2	0	0	0	0	507	511	15	0	
3	0	0	0	0	502	509	14	0	
4	0	0	0	0	503	510	14	0	
5	0	0	0	0	509	510	13	0	
6	0	0	0	0	510	508	13	0	
7	0	0	0	0	506	510	13	0	
8	0	0	0	0	507	510	12	0	
9	0	0	0	0	509	512	12	0	
10	0	0	0	0	510	511	12	0	
11	0	0	0	0	509	511	13	0	
12	0	0	0	0	508	511	12	0	
13	0	0	0	0	510	512	14	0	
14	0	0	0	0	508	513	13	0	
15	0	0	0	0	510	515	12	0	
0	0	0	0	0	510	510	14	0	
1	0	0	0	0	510	511	14	0	
2	0	0	0	0	512	509	13	0	
3	0	0	0	0	507	511	13	0	
4	0	0	0	0	506	509	13	0	
5	0	0	0	0	508	509	14	0	
6	0	0	0	0	505	509	13	0	
7	0	0	0	0	508	508	12	0	
8	0	0	0	0	505	510	13	0	
9	0	0	0	0	503	508	12	0	
10	0	0	0	0	501	510	12	0	
11	0	0	0	0	505	508	13	0	
12	0	0	0	0	513	511	12	0	
13	0	0	0	0	515	510	13	0	
14	0	0	0	0	516	510	13	0	
15	0	0	0	0	516	512	11	0	
0	0	0	0	0	513	512	13	0	
1	0	0	0	0	509	512	10	0	
2	0	0	0	0	508	509	12	0	
3	0	0	0	0	506	510	13	0	
4	0	0	0	0	510	508	12	0	
5	0	0	0	0	515	511	14	0	
6	0	0	0	0	509	512	12	0	
7	0	0	0	0	516	509	14	0	
8	0	0	0	0	513	511	13	0	
9	0	0	0	0	495	512	14	0	
10	0	0	0	0	484	511	14	0	
11	0	0	0	0	490	511	13	0	
12	0	0	0	0	500	511	14	0	
13	0	0	0	0	509	509	14	0	
14	0	0	0	0	529	512	12	0	
15	0	0	0	0	532	511	13	0	
0	0	0	0	0	511	511	12	0	
1	0	0	0	0	507	513	13	0	
2	0	0	0	0	507	509	11	0	
3	0	0	0	0	507	511	13	0	
4	0	0	0	0	511	510	13	0	
5	0	0	0	0	513	511	13	0	
6	0	0	0	0	510	511	13	0	
7	0	0	0	0	508	508	13	0	
8	0	0	0	0	514	511	12	0	
9	0	0	0	0	518	511	12	0	
10	0	0	0	0	506	508	12	0	
11	0	0	0	0	498	508	12	0	
12	0	0	0	0	494	510	12	0	
13	0	0	0	0	497	511	13	0	
14	0	0	0	0	496	512	12	0	
15	0	0	0	0	502	511	11	0	
0	0	0	0	0	508	512	12	0	
1	0	0	0	0	526	512	12	0	
2	0	0	0	0	520	513	12	0	
3	0	0	0	0	509	510	11	0	
4	0	0	0	0	513	509	12	0	
5	0	0	0	0	512	510	13	0	
6	0	0	0	0	513	510	11	0	
7	0	0	0	0	512	512	10	0	
8	0	0	0	0	511	511	12	0	
9	0	0	0	0	509	511	11	0	
10	0	0	0	0	506	510	10	0	
11	0	0	0	0	508	511	9	0	
12	0	0	0	0	508	509	9	0	
13	0	0	0	0	510	510	9	0	
14	0	0	0	0	508	510	10	0	
15	0	0	0	0	503	514	10	0	
0	0	0	0	0	508	510	9	0	
1	0	0	0	0	509	511	11	0	
2	0	0	0	0	508	512	10	0	
3	0	0	0	0	505	511	9	0	
4	0	0	0	0	505	512	9	0	
5	0	0	0	0	507	510	11	0	
6	0	0	0	0	509	509	12	0	
7	0	0	0	0	506	507	11	0	
8	0	0	0	0	510	508	12	0	
9	0	0	0	0	508	512	12	0	
10	0	0	0	0	501	512	12	0	
11	0	0	0	0	501	511	11	0	
12	0	0	0	0	505	510	12	0	
13	0	0	0	0	511	508	11	0	
14	0	0	0	0	514	509	9	0	
15	0	0	0	0	511	512	9	0	
0	0	0	0	0	503	512	10	0	
1	0	0	0	0	510	510	11	0	
2	0	0	0	0	519	511	9	0	
3	0	0	0	0	531	508	11	0	
4	0	0	0	0	527	510	11	0	
5	0	0	0	0	527	508	9	0	
6	0	0	0	0	502	510	10	0	
7	0	0	0	0	496	514	10	0	
8	0	0	0	0	491	513	10	0	
9	0	0	0	0	487	511	10	0	
10	0	0	0	0	487	506	10	0	
11	0	0	0	0	502	508	10	0	
12	0	0	0	0	522	510	10	0	
13	0	0	0	0	516	510	11	0	
14	0	0	0	0	501	515	10	0	
15	0	0	0	0	509	512	10	0	
0	0	0	0	0	523	513	11	0	
1	0	0	0	0	529	512	11	0	
2	0	0	0	0	529	511	10	0	
3	0	0	0	0	512	508	12	0	
4	0	0	0	0	506	510	12	0	
5	0	0	0	0	505	514	11	0	
6	0	0	0	0	495	514	11	0	
7	0	0	0	0	486	513	13	0	
8	0	0	0	0	509	511	14	0	
9	0	0	0	0	515	509	13	0	
10	0	0	0	0	504	508	12	0	
11	0	0	0	0	519	512	11	0	
12	0	0	0	0	507	508	11	0	
13	0	0	0	0	501	507	12	0	
14	0	0	0	0	498	510	13	0	
15	0	0	0	0	501	515	14	0	
0	0	0	0	0	511	514	14	0	
1	0	0	0	0	511	512	12	0	
2	0	0	0	0	502	509	14	0	
3	0	0	0	0	503	508	14	0	
4	0	0	0	0	507	507	14	0	
5	0	0	0	0	513	511	14	0	
6	0	0	0	0	523	512	14	0	
7	0	0	0	0	525	512	14	0	
8	0	0	0	0	523	511	14	0	
9	0	0	0	0	520	512	13	0	
10	0	0	0	0	513	512	13	0	
11	0	0	0	0	502	506	13	0	
12	0	0	0	0	503	507	13	0	
13	0	0	0	0	499	512	13	0	
14	0	0	0	0	495	511	14	0	
15	0	0	0	0	506	513	12	0	
0	0	0	0	0	510	512	13	0	
1	0	0	0	0	496	510	13	0	
2	0	0	0	0	498	506	14	0	
3	0	0	0	0	517	507	14	0	
4	0	0	0	0	536	509	14	0	
5	0	0	0	0	536	503	14	0	
6	0	0	0	0	517	503	13	0	
7	0	0	0	0	500	503	14	0	
8	0	0	0	0	502	507	15	0	
9	0	0	0	0	490	513	15	0	
10	0	0	0	0	482	517	15	0	
11	0	0	0	0	488	516	15	0	
12	0	0	0	0	504	512	16	0	
13	0	0	0	0	515	512	16	0	
14	0	0	0	0	501	508	16	0	
15	0	0	0	0	513	504	17	0	
0	0	0	0	0	531	509	18	0	
1	0	0	0	0	514	511	17	0	
2	0	0	0	0	488	513	17	0	
3	0	0	0	0	486	516	17	0	
4	0	0	0	0	521	519	17	0	
5	0	0	0	0	536	508	17	0	
6	0	0	0	0	515	504	17	0	
7	0	0	0	0	501	510	19	0	
8	0	0	0	0	502	512	19	0	
9	0	0	0	0	494	511	19	0	
10	0	0	0	0	485	515	21	0	
11	0	0	0	0	505	522	20	0	
12	0	0	0	0	526	523	21	0	
13	0	0	0	0	530	524	21	0	
14	0	0	0	0	512	507	20	0	
15	0	0	0	0	509	494	20	0	
0	0	0	0	0	533	495	20	0	
1	0	0	0	0	531	497	20	0	
2	0	0	0	0	537	503	20	0	
3	0	0	0	0	499	506	19	0	
4	0	0	0	0	473	509	19	0	
5	0	0	0	0	466	514	19	0	
6	0	0	0	0	489	513	19	0	
7	0	0	0	0	536	517	20	0	
8	0	0	0	0	521	503	19	0	
9	0	0	0	0	559	511	20	0	
10	0	0	0	0	519	518	20	0	
11	0	0	0	0	457	518	19	0	
12	0	0	0	0	446	508	19	0	
13	0	0	0	0	487	509	19	0	
14	0	0	0	0	550	502	20	0	
15	0	0	0	0	561	524	19	0	
0	0	0	0	0	512	533	19	0	
1	0	0	0	0	500	523	19	0	
2	0	0	0	0	512	515	19	0	
3	0	0	0	0	542	509	19	0	
4	0	0	0	0	527	509	19	0	
5	0	0	0	0	482	500	19	0	
6	0	0	0	0	486	501	19	0	
7	0	0	0	0	515	496	19	0	
8	0	0	0	0	491	493	24	0	
9	0	0	0	0	440	506	32	0	
10	0	0	0	0	428	518	37	0	
11	0	0	0	0	447	523	35	0	
12	0	0	0	0	497	516	37	0	
13	0	0	0	0	561	520	43	0	
14	0	0	0	0	631	510	49	0	
15	0	0	0	0	574	486	55	0	
0	0	0	0	0	506	486	61	0	
1	0	0	0	0	535	510	66	0	
2	0	0	0	0	536	523	76	0	
3	0	0	0	0	491	524	81	0	
4	0	0	0	0	487	509	86	0	
5	0	0	0	0	503	508	90	0	
6	0	0	0	0	524	521	92	0	
7	0	0	0	0	503	514	97	0	
8	0	0	0	0	505	509	98	0	
9	0	0	0	0	479	498	101	0	
10	0	0	0	0	491	508	103	0	
11	0	0	0	0	476	498	106	0	
12	0	0	0	0	540	487	104	0	
13	0	0	0	0	542	486	102	0	
14	0	0	0	0	509	511	106	0	
15	0	0	0	0	516	539	108	0	
0	0	0	0	0	501	531	112	0	
1	0	0	0	0	492	533	114	0	
2	0	0	0	0	477	541	118	0	
3	0	0	0	0	492	539	121	0	
4	0	0	0	0	502	519	127	0	
5	0	0	0	0	519	502	129	0	
6	0	0	0	0	538	491	133	0	
7	0	0	0	0	518	483	136	0	
8	0	0	0	0	519	495	141	0	
9	0	0	0	0	485	494	151	0	
10	0	0	0	0	451	498	151	0	
11	0	0	0	0	475	519	159	0	
12	0	0	0	0	495	531	159	0	
13	0	0	0	0	507	505	166	0	
14	0	0	0	0	543	499	168	0	
15	0	0	0	0	575	517	174	0	
0	0	0	0	0	523	510	173	0	
1	0	0	0	0	511	510	173	0	
2	0	0	0	0	496	520	180	0	
3	0	0	0	0	491	527	188	0	
4	0	0	0	0	499	531	192	0	
5	0	0	0	0	512	505	201	0	
6	0	0	0	0	553	504	200	0	
7	0	0	0	0	511	502	207	0	
8	0	0	0	0	397	496	209	0	
9	0	0	0	0	428	495	205	0	
10	0	0	0	0	541	507	212	0	
11	0	0	0	0	515	512	212	0	
12	0	0	0	0	504	550	217	0	
13	0	0	0	0	565	568	223	0	
14	0	0	0	0	609	580	219	0	
15	0	0	0	0	692	578	217	0	
0	0	0	0	0	483	546	221	0	
1	0	0	0	0	397	520	221	0	
2	0	0	0	0	448	502	222	0	
3	0	0	0	0	496	455	221	0	
4	0	0	0	0	617	447	224	0	
5	0	0	0	0	498	444	225	0	
6	0	0	0	0	447	440	228	0	
7	0	0	0	0	472	440	226	0	
8	0	0	0	0	513	477	230	0	
9	0	0	0	0	520	473	233	0	
10	0	0	0	0	428	494	235	0	
11	0	0	0	0	410	514	237	0	
12	0	0	0	0	523	533	245	0	
13	0	0	0	0	646	553	247	0	
14	0	0	0	0	644	547	248	0	
15	0	0	0	0	555	524	240	0	
0	0	0	0	0	524	494	244	0	
1	0	0	0	0	433	485	246	0	
2	0	0	0	0	467	537	248	0	
3	0	0	0	0	506	568	255	0	
4	0	0	0	0	542	560	255	0	
5	0	0	0	0	491	519	253	0	
6	0	0	0	0	500	495	257	0	
7	0	0	0	0	464	508	261	0	
8	0	0	0	0	482	501	261	0	
9	0	0	0	0	446	494	264	0	
10	0	0	0	0	432	500	274	0	
11	0	0	0	0	492	500	275	0	
12	0	0	0	0	554	498	274	0	
13	0	0	0	0	522	506	278	0	
14	0	0	0	0	550	496	290	0	
15	0	0	0	0	608	483	294	0	
0	0	0	0	0	616	485	292	0	
1	0	0	0	0	543	509	294	0	
2	0	0	0	0	406	491	292	0	
3	0	0	0	0	387	530	298	0	
4	0	0	0	0	459	550	301	0	
5	0	0	0	0	493	550	295	0	
6	0	0	0	0	541	539	299	0	
7	0	0	0	0	504	500	303	0	
8	0	0	0	0	389	478	307	0	
9	0	0	0	0	443	516	305	0	
10	0	0	0	0	491	525	312	0	
11	0	0	0	0	579	522	313	0	
12	0	0	0	0	654	540	317	0	
13	0	0	0	0	666	539	318	0	
14	0	0	0	0	575	523	319	0	
15	0	0	0	0	561	552	323	0	
0	0	0	0	0	519	550	325	0	
1	0	0	0	0	536	530	329	0	
2	0	0	0	0	551	479	329	0	
3	0	0	0	0	518	460	329	0	
4	0	0	0	0	411	479	331	0	
5	0	0	0	0	416	473	329	0	
6	0	0	0	0	390	467	326	0	
7	0	0	0	0	390	520	327	0	
8	0	0	0	0	395	529	327	0	
9	0	0	0	0	473	531	327	0	
10	0	0	0	0	551	535	325	0	
11	0	0	0	0	571	555	322	0	
12	0	0	0	0	586	543	323	0	
13	0	0	0	0	559	524	324	0	
14	0	0	0	0	495	483	327	0	
15	0	0	0	0	535	480	327	0	
0	0	0	0	0	563	463	328	0	
1	0	0	0	0	522	432	331	0	
2	0	0	0	0	551	441	327	0	
3	0	0	0	0	560	493	327	0	
4	0	0	0	0	504	495	328	0	
5	0	0	0	0	461	504	328	0	
6	0	0	0	0	363	497	326	0	
7	0	0	0	0	469	528	325	0	
8	0	0	0	0	536	550	324	0	
9	0	0	0	0	553	542	326	0	
10	0	0	0	0	524	521	324	0	
11	0	0	0	0	556	532	324	0	
12	0	0	0	0	495	553	324	0	
13	0	0	0	0	441	558	325	0	
14	0	0	0	0	418	541	327	0	
15	0	0	0	0	483	511	328	0	
0	0	0	0	0	553	510	329	0	
1	0	0	0	0	603	480	329	0	
2	0	0	0	0	666	479	329	0	
3	0	0	0	0	622	472	331	0	
4	0	0	0	0	522	510	329	0	
5	0	0	0	0	467	518	331	0	
6	0	0	0	0	438	516	332	0	
7	0	0	0	0	443	516	335	0	
8	0	0	0	0	472	517	333	0	
9	0	0	0	0	492	519	332	0	
10	0	0	0	0	471	511	332	0	
11	0	0	0	0	441	503	332	0	
12	0	0	0	0	459	516	333	0	
13	0	0	0	0	492	519	335	0	
14	0	0	0	0	508	509	335	0	
15	0	0	0	0	579	508	334	0	
0	0	0	0	0	589	527	334	0	
1	0	0	0	0	524	537	333	0	
2	0	0	0	0	458	537	335	0	
3	0	0	0	0	478	537	335	0	
4	0	0	0	0	432	532	335	0	
5	0	0	0	0	480	502	334	0	
6	0	0	0	0	522	491	337	0	
7	0	0	0	0	504	487	335	0	
8	0	0	0	0	549	488	336	0	
9	0	0	0	0	554	478	336	0	
10	0	0	0	0	515	485	335	0	
11	0	0	0	0	479	504	337	0	
12	0	0	0	0	501	521	336	0	
13	0	0	0	0	573	531	335	0	
14	0	0	0	0	561	522	336	0	
15	0	0	0	0	603	519	337	0	
0	0	0	0	0	513	512	338	0	
1	0	0	0	0	349	491	338	0	
2	0	0	0	0	347	500	340	0	
3	0	0	0	0	487	519	341	0	
4	0	0	0	0	619	519	340	0	
5	0	0	0	0	681	513	341	0	
6	0	0	0	0	644	513	340	0	
7	0	0	0	0	516	506	341	0	
8	0	0	0	0	540	484	340	0	
9	0	0	0	0	533	486	339	0	
10	0	0	0	0	505	513	339	0	
11	0	0	0	0	390	512	340	0	
12	0	0	0	0	355	506	341	0	
13	0	0	0	0	458	531	340	0	
14	0	0	0	0	515	524	341	0	
15	0	0	0	0	461	504	342	0	
0	0	0	0	0	389	502	343	0	
1	0	0	0	0	426	487	343	0	
2	0	0	0	0	517	505	344	0	
3	0	0	0	0	574	504	345	0	
4	0	0	0	0	595	529	344	0	
5	0	0	0	0	556	540	344	0	
6	0	0	0	0	551	539	344	0	
7	0	0	0	0	622	523	345	0	
8	0	0	0	0	593	512	347	0	
9	0	0	0	0	588	516	348	0	
10	0	0	0	0	553	502	349	0	
11	0	0	0	0	497	496	349	0	
12	0	0	0	0	433	498	350	0	
13	0	0	0	0	397	501	350	0	
14	0	0	0	0	460	525	349	0	
15	0	0	0	0	425	507	349	0	
0	0	0	0	0	479	483	349	0	
1	0	0	0	0	515	495	350	0	
2	0	0	0	0	511	512	350	0	
3	0	0	0	0	551	556	350	0	
4	0	0	0	0	484	565	349	0	
5	0	0	0	0	516	558	349	0	
6	0	0	0	0	495	535	350	0	
7	0	0	0	0	492	508	350	0	
8	0	0	0	0	472	493	349	0	
9	0	0	0	0	477	476	349	0	
10	0	0	0	0	509	482	349	0	
11	0	0	0	0	582	483	352	0	
12	0	0	0	0	597	470	350	0	
13	0	0	0	0	550	456	350	0	
14	0	0	0	0	471	483	349	0	
15	0	0	0	0	406	505	350	0	
0	0	0	0	0	434	513	350	0	
1	0	0	0	0	660	523	350	0	
2	0	0	0	0	590	512	351	0	
3	0	0	0	0	540	541	350	0	
4	0	0	0	0	549	547	350	0	
5	0	0	0	0	376	531	351	0	
6	0	0	0	0	384	529	350	0	
7	0	0	0	0	476	529	351	0	
8	0	0	0	0	525	514	351	0	
9	0	0	0	0	516	504	351	0	
10	0	0	0	0	555	474	351	0	
11	0	0	0	0	542	485	352	0	
12	0	0	0	0	585	496	352	0	
13	0	0	0	0	600	512	353	0	
14	0	0	0	0	556	512	352	0	
15	0	0	0	0	503	519	352	0	
0	0	0	0	0	470	505	353	0	
1	0	0	0	0	428	512	354	0	
2	0	0	0	0	381	512	355	0	
3	0	0	0	0	418	500	356	0	
4	0	0	0	0	506	527	356	0	
5	0	0	0	0	590	527	357	0	
6	0	0	0	0	598	518	357	0	
7	0	0	0	0	573	528	357	0	
8	0	0	0	0	464	555	358	0	
9	0	0	0	0	461	543	358	0	
10	0	0	0	0	406	500	360	0	
11	0	0	0	0	408	498	359	0	
12	0	0	0	0	469	503	360	0	
13	0	0	0	0	538	486	361	0	
14	0	0	0	0	583	495	360	0	
15	0	0	0	0	568	488	360	0	
0	0	0	0	0	639	486	360	0	
1	0	0	0	0	617	499	359	0	
2	0	0	0	0	498	521	360	0	
3	0	0	0	0	519	523	362	0	
4	0	0	0	0	532	496	362	0	
5	0	0	0	0	526	484	362	0	
6	0	0	0	0	431	512	361	0	
7	0	0	0	0	439	534	360	0	
8	0	0	0	0	435	534	360	0	
9	0	0	0	0	466	554	359	0	
10	0	0	0	0	427	568	359	0	
11	0	0	0	0	515	569	360	0	
12	0	0	0	0	596	519	359	0	
13	0	0	0	0	553	500	359	0	
14	0	0	0	0	524	483	358	0	
15	0	0	0	0	536	488	360	0	
0	0	0	0	0	560	503	359	0	
1	0	0	0	0	483	475	359	0	
2	0	0	0	0	466	447	358	0	
3	0	0	0	0	492	470	359	0	
4	0	0	0	0	546	499	358	0	
5	0	0	0	0	565	511	360	0	
6	0	0	0	0	492	529	360	0	
7	0	0	0	0	415	537	360	0	
8	0	0	0	0	403	528	360	0	
9	0	0	0	0	419	528	360	0	
10	0	0	0	0	497	515	361	0	
11	0	0	0	0	559	489	362	0	
12	0	0	0	0	588	485	362	0	
13	0	0	0	0	567	471	363	0	
14	0	0	0	0	595	467	362	0	
15	0	0	0	0	546	496	362	0	
0	0	0	0	0	469	525	363	0	
1	0	0	0	0	503	556	363	0	
2	0	0	0	0	535	547	363	0	
3	0	0	0	0	465	527	364	0	
4	0	0	0	0	437	518	364	0	
5	0	0	0	0	389	515	365	0	
6	0	0	0	0	434	509	365	0	
7	0	0	0	0	588	510	365	0	
8	0	0	0	0	587	500	364	0	
9	0	0	0	0	606	494	366	0	
10	0	0	0	0	642	505	366	0	
11	0	0	0	0	532	519	366	0	
12	0	0	0	0	513	532	366	0	
13	0	0	0	0	496	528	367	0	
14	0	0	0	0	468	510	367	0	
15	0	0	0	0	448	475	366	0	
0	0	0	0	0	501	470	367	0	
1	0	0	0	0	485	464	367	0	
2	0	0	0	0	491	520	368	0	
3	0	0	0	0	467	539	368	0	
4	0	0	0	0	502	543	368	0	
5	0	0	0	0	413	542	368	0	
6	0	0	0	0	530	547	368	0	
7	0	0	0	0	564	532	368	0	
8	0	0	0	0	570	532	368	0	
9	0	0	0	0	553	527	368	0	
10	0	0	0	0	510	516	368	0	
11	0	0	0	0	471	512	368	0	
12	0	0	0	0	401	499	366	0	
13	0	0	0	0	433	499	364	0	
14	0	0	0	0	477	500	366	0	
15	0	0	0	0	499	512	366	0	
0	0	0	0	0	559	508	365	0	
1	0	0	0	0	626	499	364	0	
2	0	0	0	0	624	491	365	0	
3	0	0	0	0	524	477	365	0	
4	0	0	0	0	536	503	364	0	
5	0	0	0	0	542	510	364	0	
6	0	0	0	0	475	487	364	0	
7	0	0	0	0	439	493	364	0	
8	0	0	0	0	488	503	364	0	
9	0	0	0	0	488	519	364	0	
10	0	0	0	0	519	555	364	0	
11	0	0	0	0	527	553	364	0	
12	0	0	0	0	512	527	364	0	
13	0	0	0	0	491	494	364	0	
14	0	0	0	0	378	470	365	0	
15	0	0	0	0	400	492	365	0	
0	0	0	0	0	448	485	365	0	
1	0	0	0	0	521	487	366	0	
2	0	0	0	0	650	503	366	0	
3	0	0	0	0	631	502	366	0	
4	0	0	0	0	561	519	367	0	
5	0	0	0	0	612	543	367	0	
6	0	0	0	0	587	533	368	0	
7	0	0	0	0	508	506	367	0	
8	0	0	0	0	392	486	369	0	
9	0	0	0	0	363	509	369	0	
10	0	0	0	0	447	522	369	0	
11	0	0	0	0	552	522	369	0	
12	0	0	0	0	531	526	371	0	
13	0	0	0	0	505	532	370	0	
14	0	0	0	0	552	527	370	0	
15	0	0	0	0	531	515	373	0	
0	0	0	0	0	571	511	370	0	
1	0	0	0	0	536	493	371	0	
2	0	0	0	0	510	507	374	0	
3	0	0	0	0	457	493	374	0	
4	0	0	0	0	410	524	372	0	
5	0	0	0	0	420	532	371	0	
6	0	0	0	0	481	527	373	0	
7	0	0	0	0	480	497	374	0	
8	0	0	0	0	482	469	372	0	
9	0	0	0	0	544	495	372	0	
10	0	0	0	0	576	528	375	0	
11	0	0	0	0	588	517	375	0	
12	0	0	0	0	606	515	374	0	
13	0	0	0	0	503	515	372	0	
14	0	0	0	0	384	528	370	0	
15	0	0	0	0	383	527	372	0	
0	0	0	0	0	465	524	368	0	
1	0	0	0	0	628	519	367	0	
2	0	0	0	0	693	517	366	0	
3	0	0	0	0	514	511	368	0	
4	0	0	0	0	483	498	369	0	
5	0	0	0	0	498	512	369	0	
6	0	0	0	0	530	546	369	0	
7	0	0	0	0	527	532	367	0	
8	0	0	0	0	430	518	368	0	
9	0	0	0	0	412	494	367	0	
10	0	0	0	0	460	476	368	0	
11	0	0	0	0	563	475	371	0	
12	0	0	0	0	601	493	371	0	
13	0	0	0	0	580	491	371	0	
14	0	0	0	0	445	479	371	0	
15	0	0	0	0	428	497	368	0	
0	0	0	0	0	481	500	369	0	
1	0	0	0	0	492	518	369	0	
2	0	0	0	0	533	507	371	0	
3	0	0	0	0	562	496	375	0	
4	0	0	0	0	500	496	375	0	
5	0	0	0	0	406	531	375	0	
6	0	0	0	0	408	551	374	0	
7	0	0	0	0	458	540	374	0	
8	0	0	0	0	541	529	373	0	
9	0	0	0	0	568	504	376	0	
10	0	0	0	0	583	478	376	0	
11	0	0	0	0	600	496	376	0	
12	0	0	0	0	620	520	375	0	
13	0	0	0	0	559	517	374	0	
14	0	0	0	0	537	499	377	0	
15	0	0	0	0	470	484	376	0	
0	0	0	0	0	435	492	375	0	
1	0	0	0	0	473	511	376	0	
2	0	0	0	0	594	529	377	0	
3	0	0	0	0	560	516	378	0	
4	0	0	0	0	377	516	379	0	
5	0	0	0	0	411	506	379	0	
6	0	0	0	0	525	510	377	0	
7	0	0	0	0	574	524	378	0	
8	0	0	0	0	521	531	378	0	
9	0	0	0	0	458	519	377	0	
10	0	0	0	0	401	516	378	0	
11	0	0	0	0	412	527	377	0	
12	0	0	0	0	497	536	377	0	
13	0	0	0	0	607	520	377	0	
14	0	0	0	0	600	522	378	0	
15	0	0	0	0	529	514	378	0	
0	0	0	0	0	509	513	378	0	
1	0	0	0	0	486	513	377	0	
2	0	0	0	0	533	487	377	0	
3	0	0	0	0	529	465	378	0	
4	0	0	0	0	516	463	379	0	
5	0	0	0	0	497	478	380	0	
6	0	0	0	0	498	482	381	0	
7	0	0	0	0	506	480	381	0	
8	0	0	0	0	471	488	383	0	
9	0	0	0	0	487	536	382	0	
10	0	0	0	0	495	556	383	0	
11	0	0	0	0	526	536	382	0	
12	0	0	0	0	597	521	384	0	
13	0	0	0	0	623	528	384	0	
14	0	0	0	0	492	525	384	0	
15	0	0	0	0	397	526	384	0	
0	0	0	0	0	385	527	385	0	
1	0	0	0	0	477	524	385	0	
2	0	0	0	0	481	539	386	0	
3	0	0	0	0	545	522	387	0	
4	0	0	0	0	570	479	386	0	
5	0	0	0	0	498	467	385	0	
6	0	0	0	0	490	486	385	0	
7	0	0	0	0	494	496	384	0	
8	0	0	0	0	498	508	385	0	
9	0	0	0	0	541	526	387	0	
10	0	0	0	0	578	517	386	0	
11	0	0	0	0	590	494	385	0	
12	0	0	0	0	558	521	387	0	
13	0	0	0	0	475	559	387	0	
14	0	0	0	0	442	560	386	0	
15	0	0	0	0	421	550	387	0	
0	0	0	0	0	452	532	385	0	
1	0	0	0	0	505	504	386	0	
2	0	0	0	0	551	481	386	0	
3	0	0	0	0	557	454	386	0	
4	0	0	0	0	563	457	386	0	
5	0	0	0	0	521	448	387	0	
6	0	0	0	0	502	450	385	0	
7	0	0	0	0	538	495	385	0	
8	0	0	0	0	537	533	385	0	
9	0	0	0	0	474	551	384	0	
10	0	0	0	0	471	542	384	0	
11	0	0	0	0	465	517	384	0	
12	0	0	0	0	483	510	384	0	
13	0	0	0	0	470	510	384	0	
14	0	0	0	0	463	534	385	0	
15	0	0	0	0	540	531	385	0	
0	0	0	0	0	651	523	385	0	
1	0	0	0	0	539	503	385	0	
2	0	0	0	0	471	487	385	0	
3	0	0	0	0	442	488	387	0	
4	0	0	0	0	448	533	387	0	
5	0	0	0	0	524	566	387	0	
6	0	0	0	0	552	537	388	0	
7	0	0	0	0	575	524	387	0	
8	0	0	0	0	525	524	388	0	
9	0	0	0	0	498	503	388	0	
10	0	0	0	0	493	485	388	0	
11	0	0	0	0	447	480	388	0	
12	0	0	0	0	397	492	388	0	
13	0	0	0	0	471	470	389	0	
14	0	0	0	0	577	471	389	0	
15	0	0	0	0	567	492	390	0	
0	0	0	0	0	471	502	391	0	
1	0	0	0	0	496	538	390	0	
2	0	0	0	0	467	556	390	0	
3	0	0	0	0	492	535	390	0	
4	0	0	0	0	548	521	391	0	
5	0	0	0	0	592	509	391	0	
6	0	0	0	0	662	501	391	0	
7	0	0	0	0	588	499	392	0	
8	0	0	0	0	491	515	392	0	
9	0	0	0	0	488	508	392	0	
10	0	0	0	0	498	510	392	0	
11	0	0	0	0	471	502	392	0	
12	0	0	0	0	467	513	392	0	
13	0	0	0	0	476	519	392	0	
14	0	0	0	0	492	521	391	0	
15	0	0	0	0	464	506	391	0	
0	0	0	0	0	455	518	391	0	
1	0	0	0	0	504	518	391	0	
2	0	0	0	0	542	516	391	0	
3	0	0	0	0	524	512	391	0	
4	0	0	0	0	493	499	390	0	
5	0	0	0	0	499	491	389	0	
6	0	0	0	0	496	508	389	0	
7	0	0	0	0	514	515	388	0	
8	0	0	0	0	521	519	387	0	
9	0	0	0	0	496	517	389	0	
10	0	0	0	0	441	516	388	0	
11	0	0	0	0	437	521	388	0	
12	0	0	0	0	585	521	389	0	
13	0	0	0	0	670	505	389	0	
14	0	0	0	0	592	499	389	0	
15	0	0	0	0	551	489	389	0	
0	0	0	0	0	499	507	390	0	
1	0	0	0	0	452	508	390	0	
2	0	0	0	0	453	513	390	0	
3	0	0	0	0	439	513	389	0	
4	0	0	0	0	435	514	389	0	
5	0	0	0	0	458	512	389	0	
6	0	0	0	0	467	513	389	0	
7	0	0	0	0	558	526	390	0	
8	0	0	0	0	597	515	389	0	
9	0	0	0	0	598	515	389	0	
10	0	0	0	0	511	520	388	0	
11	0	0	0	0	455	537	391	0	
12	0	0	0	0	496	527	390	0	
13	0	0	0	0	521	508	390	0	
14	0	0	0	0	543	510	391	0	
15	0	0	0	0	536	503	390	0	
0	0	0	0	0	539	508	389	0	
1	0	0	0	0	477	491	389	0	
2	0	0	0	0	469	482	388	0	
3	0	0	0	0	492	483	387	0	
4	0	0	0	0	484	498	385	0	
5	0	0	0	0	431	493	384	0	
6	0	0	0	0	393	498	383	0	
7	0	0	0	0	475	523	380	0	
8	0	0	0	0	586	526	378	0	
9	0	0	0	0	573	500	378	0	
10	0	0	0	0	579	502	378	0	
11	0	0	0	0	527	503	379	0	
12	0	0	0	0	504	525	378	0	
13	0	0	0	0	605	560	379	0	
14	0	0	0	0	596	548	380	0	
15	0	0	0	0	531	516	381	0	
0	0	0	0	0	492	516	381	0	
1	0	0	0	0	420	502	379	0	
2	0	0	0	0	418	478	379	0	
3	0	0	0	0	480	485	377	0	
4	0	0	0	0	523	507	376	0	
5	0	0	0	0	530	520	375	0	
6	0	0	0	0	468	521	377	0	
7	0	0	0	0	535	524	376	0	
8	0	0	0	0	545	525	379	0	
9	0	0	0	0	511	515	379	0	
10	0	0	0	0	489	506	380	0	
11	0	0	0	0	439	507	382	0	
12	0	0	0	0	483	524	381	0	
13	0	0	0	0	539	518	377	0	
14	0	0	0	0	543	502	375	0	
15	0	0	0	0	515	500	378	0	
0	0	0	0	0	487	495	377	0	
1	0	0	0	0	475	505	376	0	
2	0	0	0	0	534	515	377	0	
3	0	0	0	0	592	496	379	0	
4	0	0	0	0	558	484	379	0	
5	0	0	0	0	508	502	380	0	
6	0	0	0	0	464	512	380	0	
7	0	0	0	0	521	520	382	0	
8	0	0	0	0	482	502	380	0	
9	0	0	0	0	425	489	382	0	
10	0	0	0	0	456	509	381	0	
11	0	0	0	0	485	529	380	0	
12	0	0	0	0	532	532	380	0	
13	0	0	0	0	523	521	381	0	
14	0	0	0	0	588	518	380	0	
15	0	0	0	0	579	500	380	0	
0	0	0	0	0	584	516	379	0	
1	0	0	0	0	514	510	378	0	
2	0	0	0	0	424	523	381	0	
3	0	0	0	0	418	510	384	0	
4	0	0	0	0	477	502	384	0	
5	0	0	0	0	499	489	382	0	
6	0	0	0	0	508	505	381	0	
7	0	0	0	0	551	504	384	0	
8	0	0	0	0	590	509	385	0	
9	0	0	0	0	495	499	384	0	
10	0	0	0	0	534	505	384	0	
11	0	0	0	0	540	511	383	0	
12	0	0	0	0	577	515	382	0	
13	0	0	0	0	525	521	383	0	
14	0	0	0	0	511	543	382	0	
15	0	0	0	0	457	525	377	0	
0	0	0	0	0	412	514	379	0	
1	0	0	0	0	398	513	378	0	
2	0	0	0	0	487	508	377	0	
3	0	0	0	0	502	500	380	0	
4	0	0	0	0	492	509	380	0	
5	0	0	0	0	520	498	379	0	
6	0	0	0	0	519	503	377	0	
7	0	0	0	0	508	530	376	0	
8	0	0	0	0	572	534	377	0	
9	0	0	0	0	488	532	375	0	
10	0	0	0	0	479	522	377	0	
11	0	0	0	0	535	520	379	0	
12	0	0	0	0	515	497	380	0	
13	0	0	0	0	526	493	379	0	
14	0	0	0	0	596	500	377	0	
15	0	0	0	0	612	492	376	0	
0	0	0	0	0	537	464	377	0	
1	0	0	0	0	440	467	375	0	
2	0	0	0	0	393	492	376	0	
3	0	0	0	0	444	533	379	0	
4	0	0	0	0	532	547	379	0	
5	0	0	0	0	550	523	380	0	
6	0	0	0	0	547	506	377	0	
7	0	0	0	0	488	507	377	0	
8	0	0	0	0	493	524	378	0	
9	0	0	0	0	485	514	376	0	
10	0	0	0	0	536	524	378	0	
11	0	0	0	0	592	524	377	0	
12	0	0	0	0	534	519	378	0	
13	0	0	0	0	469	523	376	0	
14	0	0	0	0	462	525	375	0	
15	0	0	0	0	443	518	374	0	
0	0	0	0	0	413	512	374	0	
1	0	0	0	0	536	497	372	0	
2	0	0	0	0	543	490	374	0	
3	0	0	0	0	545	479	376	0	
4	0	0	0	0	581	500	378	0	
5	0	0	0	0	554	528	378	0	
6	0	0	0	0	484	517	379	0	
7	0	0	0	0	419	500	377	0	
8	0	0	0	0	458	497	376	0	
9	0	0	0	0	534	518	379	0	
10	0	0	0	0	571	520	379	0	
11	0	0	0	0	499	513	380	0	
12	0	0	0	0	454	514	383	0	
13	0	0	0	0	472	498	380	0	
14	0	0	0	0	532	500	382	0	
15	0	0	0	0	622	503	381	0	
0	0	0	0	0	569	503	381	0	
1	0	0	0	0	545	516	381	0	
2	0	0	0	0	551	501	380	0	
3	0	0	0	0	508	499	381	0	
4	0	0	0	0	476	529	380	0	
5	0	0	0	0	478	535	378	0	
6	0	0	0	0	422	529	378	0	
7	0	0	0	0	382	528	377	0	
8	0	0	0	0	427	537	377	0	
9	0	0	0	0	531	541	380	0	
10	0	0	0	0	559	513	382	0	
11	0	0	0	0	545	495	381	0	
12	0	0	0	0	597	477	377	0	
13	0	0	0	0	550	469	377	0	
14	0	0	0	0	470	501	377	0	
15	0	0	0	0	493	515	379	0	
0	0	0	0	0	512	501	376	0	
1	0	0	0	0	493	481	380	0	
2	0	0	0	0	496	506	378	0	
3	0	0	0	0	470	523	378	0	
4	0	0	0	0	452	513	377	0	
5	0	0	0	0	488	510	378	0	
6	0	0	0	0	527	505	379	0	
7	0	0	0	0	543	503	380	0	
8	0	0	0	0	549	498	380	0	
9	0	0	0	0	516	492	377	0	
10	0	0	0	0	515	521	379	0	
11	0	0	0	0	507	531	380	0	
12	0	0	0	0	574	533	379	0	
13	0	0	0	0	572	526	377	0	
14	0	0	0	0	504	525	376	0	
15	0	0	0	0	469	512	377	0	
0	0	0	0	0	469	503	375	0	
1	0	0	0	0	507	503	375	0	
2	0	0	0	0	570	512	376	0	
3	0	0	0	0	465	522	376	0	
4	0	0	0	0	446	512	377	0	
5	0	0	0	0	454	503	373	0	
6	0	0	0	0	477	498	370	0	
7	0	0	0	0	505	505	372	0	
8	0	0	0	0	580	519	371	0	
9	0	0	0	0	512	524	374	0	
10	0	0	0	0	518	518	372	0	
11	0	0	0	0	480	504	370	0	
12	0	0	0	0	542	496	368	0	
13	0	0	0	0	532	504	368	0	
14	0	0	0	0	499	531	364	0	
15	0	0	0	0	496	530	361	0	
0	0	0	0	0	476	517	358	0	
1	0	0	0	0	542	512	358	0	
2	0	0	0	0	575	513	356	0	
3	0	0	0	0	594	505	354	0	
4	0	0	0	0	490	522	353	0	
5	0	0	0	0	434	504	353	0	
6	0	0	0	0	409	492	353	0	
7	0	0	0	0	464	492	352	0	
8	0	0	0	0	501	497	350	0	
9	0	0	0	0	560	516	349	0	
10	0	0	0	0	558	502	347	0	
11	0	0	0	0	532	512	346	0	
12	0	0	0	0	525	514	346	0	
13	0	0	0	0	440	495	347	0	
14	0	0	0	0	501	529	347	0	
15	0	0	0	0	548	548	347	0	
0	0	0	0	0	552	532	346	0	
1	0	0	0	0	497	521	345	0	
2	0	0	0	0	472	506	346	0	
3	0	0	0	0	530	490	345	0	
4	0	0	0	0	524	479	345	0	
5	0	0	0	0	495	500	345	0	
6	0	0	0	0	393	520	346	0	
7	0	0	0	0	350	508	346	0	
8	0	0	0	0	520	524	347	0	
9	0	0	0	0	611	521	348	0	
10	0	0	0	0	633	502	350	0	
11	0	0	0	0	636	495	350	0	
12	0	0	0	0	576	519	350	0	
13	0	0	0	0	492	523	350	0	
14	0	0	0	0	480	514	350	0	
15	0	0	0	0	475	523	349	0	
0	0	0	0	0	462	515	351	0	
1	0	0	0	0	513	508	350	0	
2	0	0	0	0	503	502	350	0	
3	0	0	0	0	517	519	351	0	
4	0	0	0	0	512	519	351	0	
5	0	0	0	0	513	483	353	0	
6	0	0	0	0	458	463	353	0	
7	0	0	0	0	444	474	355	0	
8	0	0	0	0	451	505	357	0	
9	0	0	0	0	459	522	356	0	
10	0	0	0	0	484	500	355	0	
11	0	0	0	0	546	506	355	0	
12	0	0	0	0	590	513	355	0	
13	0	0	0	0	573	517	355	0	
14	0	0	0	0	574	538	354	0	
15	0	0	0	0	531	541	355	0	
0	0	0	0	0	509	534	355	0	
1	0	0	0	0	433	519	356	0	
2	0	0	0	0	456	528	358	0	
3	0	0	0	0	503	494	359	5	
4	0	0	0	0	544	514	359	4	
5	0	0	0	0	564	519	361	3	
6	0	0	0	0	497	516	362	3	
7	0	0	0	0	480	497	362	2	
8	0	0	0	0	477	486	362	7	
9	0	0	0	0	531	490	364	6	
10	0	0	0	0	552	492	365	7	
11	0	0	0	0	448	492	366	7	
12	0	0	0	0	413	508	366	6	
13	0	0	0	0	447	518	366	6	
14	0	0	0	0	522	522	367	7	
15	0	0	0	0	553	519	368	9	
0	0	0	0	0	607	508	369	0	
1	0	0	0	0	640	498	368	1	
2	0	0	0	0	533	502	368	10	
3	0	0	0	0	495	515	369	12	
4	0	0	0	0	460	516	367	6	
5	0	0	0	0	464	517	368	7	
6	0	0	0	0	512	527	367	8	
7	0	0	0	0	489	518	366	7	
8	0	0	0	0	501	527	366	5	
9	0	0	0	0	529	531	365	4	
10	0	0	0	0	547	526	366	3	
11	0	0	0	0	512	527	362	7	
12	0	0	0	0	484	531	360	14	
13	0	0	0	0	465	496	360	9	
14	0	0	0	0	473	485	359	9	
15	0	0	0	0	435	500	358	9	
0	0	0	0	0	445	503	360	13	
1	0	0	0	0	471	496	358	19	
2	0	0	0	0	556	504	357	20	
3	0	0	0	0	554	503	355	19	
4	0	0	0	0	544	496	356	20	
5	0	0	0	0	611	485	355	20	
6	0	0	0	0	670	516	353	19	
7	0	0	0	0	549	524	354	20	
8	0	0	0	0	452	506	353	20	
9	0	0	0	0	470	508	354	22	
10	0	0	0	0	467	520	353	23	
11	0	0	0	0	422	501	354	22	
12	0	0	0	0	448	507	352	25	
13	0	0	0	0	466	519	352	26	
14	0	0	0	0	475	519	351	27	
15	0	0	0	0	537	515	352	33	
0	0	0	0	0	603	516	353	28	
1	0	0	0	0	505	505	354	28	
2	0	0	0	0	508	493	354	32	
3	0	0	0	0	564	509	354	32	
4	0	0	0	0	520	508	353	39	
5	0	0	0	0	477	522	353	42	
6	0	0	0	0	509	524	353	51	
7	0	0	0	0	525	523	353	60	
8	0	0	0	0	511	534	355	59	
9	0	0	0	0	497	532	354	60	
10	0	0	0	0	496	512	355	63	
11	0	0	0	0	517	511	355	67	
12	0	0	0	0	483	496	354	71	
13	0	0	0	0	489	481	353	69	
14	0	0	0	0	494	484	353	71	
15	0	0	0	0	494	490	353	71	
0	0	0	0	0	518	507	352	70	
1	0	0	0	0	486	498	354	68	
2	0	0	0	0	472	504	353	67	
3	0	0	0	0	470	515	353	66	
4	0	0	0	0	484	526	352	69	
5	0	0	0	0	521	524	351	70	
6	0	0	0	0	565	529	352	72	
7	0	0	0	0	600	526	351	72	
8	0	0	0	0	566	497	352	75	
9	0	0	0	0	537	469	352	75	
10	0	0	0	0	476	529	352	76	
11	0	0	0	0	458	565	351	78	
12	0	0	0	0	505	552	351	77	
13	0	0	0	0	561	515	352	79	
14	0	0	0	0	585	495	351	80	
15	0	0	0	0	501	474	351	83	
0	0	0	0	0	486	465	351	84	
1	0	0	0	0	489	492	350	85	
2	0	0	0	0	473	502	350	85	
3	0	0	0	0	475	496	350	87	
4	0	0	0	0	463	513	348	87	
5	0	0	0	0	461	537	349	86	
6	0	0	0	0	482	546	348	86	
7	0	0	0	0	504	539	349	88	
8	0	0	0	0	537	509	349	90	
9	0	0	0	0	562	492	349	90	
10	0	0	0	0	562	501	348	91	
11	0	0	0	0	534	493	347	92	
12	0	0	0	0	527	512	346	91	
13	0	0	0	0	469	534	344	91	
14	0	0	0	0	478	527	344	91	
15	0	0	0	0	530	518	344	93	
0	0	0	0	0	529	512	343	94	
1	0	0	0	0	511	488	343	92	
2	0	0	0	0	526	483	342	94	
3	0	0	0	0	508	498	341	94	
4	0	0	0	0	457	515	341	94	
5	0	0	0	0	433	515	341	94	
6	0	0	0	0	468	507	340	93	
7	0	0	0	0	540	513	341	94	
8	0	0	0	0	565	521	340	95	
9	0	0	0	0	517	520	340	96	
10	0	0	0	0	505	513	339	97	
11	0	0	0	0	515	514	339	96	
12	0	0	0	0	489	500	338	97	
13	0	0	0	0	483	500	338	97	
14	0	0	0	0	483	523	337	101	
15	0	0	0	0	484	514	337	102	
0	0	0	0	0	483	519	336	99	
1	0	0	0	0	545	508	336	99	
2	0	0	0	0	526	463	336	98	
3	0	0	0	0	531	475	336	98	
4	0	0	0	0	536	501	334	99	
5	0	0	0	0	542	510	335	98	
6	0	0	0	0	615	533	334	97	
7	0	0	0	0	572	537	334	98	
8	0	0	0	0	528	518	334	99	
9	0	0	0	0	496	517	333	99	
10	0	0	0	0	430	518	332	99	
11	0	0	0	0	456	518	332	99	
12	0	0	0	0	529	528	332	99	
13	0	0	0	0	473	518	331	101	
14	0	0	0	0	413	507	332	104	
15	0	0	0	0	454	514	333	106	
0	0	0	0	0	499	519	332	108	
1	0	0	0	0	472	521	331	107	
2	0	0	0	0	585	493	332	107	
3	0	0	0	0	628	495	332	108	
4	0	0	0	0	507	496	332	109	
5	0	0	0	0	492	509	332	110	
6	0	0	0	0	490	512	332	111	
7	0	0	0	0	478	523	332	112	
8	0	0	0	0	515	514	331	113	
9	0	0	0	0	561	491	332	115	
10	0	0	0	0	572	515	331	115	
11	0	0	0	0	490	525	331	115	
12	0	0	0	0	483	505	329	115	
13	0	0	0	0	496	493	331	116	
14	0	0	0	0	485	510	329	116	
15	0	0	0	0	470	513	330	114	
0	0	0	0	0	495	521	330	115	
1	0	0	0	0	539	526	330	116	
2	0	0	0	0	505	518	330	117	
3	0	0	0	0	470	511	332	116	
4	0	0	0	0	450	505	332	118	
5	0	0	0	0	490	504	332	119	
6	0	0	0	0	520	512	332	119	
7	0	0	0	0	543	510	333	117	
8	0	0	0	0	577	525	334	117	
9	0	0	0	0	603	508	335	119	
10	0	0	0	0	638	496	333	119	
11	0	0	0	0	529	501	332	119	
12	0	0	0	0	414	509	334	119	
13	0	0	0	0	326	515	333	118	
14	0	0	0	0	392	513	332	119	
15	0	0	0	0	486	513	333	118	
0	0	0	0	0	568	513	334	119	
1	0	0	0	0	556	535	334	119	
2	0	0	0	0	531	524	333	120	
3	0	0	0	0	522	501	333	121	
4	0	0	0	0	574	500	333	121	
5	0	0	0	0	548	505	335	120	
6	0	0	0	0	563	495	335	120	
7	0	0	0	0	523	489	334	120	
8	0	0	0	0	436	500	335	119	
9	0	0	0	0	486	487	333	120	
10	0	0	0	0	582	496	335	121	
11	0	0	0	0	538	501	333	122	
12	0	0	0	0	447	521	335	123	
13	0	0	0	0	410	537	335	124	
14	0	0	0	0	478	532	338	126	
15	0	0	0	0	512	519	337	127	
0	0	0	0	0	461	512	337	127	
1	0	0	0	0	429	507	338	126	
2	0	0	0	0	486	511	337	124	
3	0	0	0	0	526	499	337	125	
4	0	0	0	0	613	535	337	125	
5	0	0	0	0	620	543	338	124	
6	0	0	0	0	559	535	338	126	
7	0	0	0	0	526	527	338	126	
8	0	0	0	0	520	521	339	126	
9	0	0	0	0	502	503	339	127	
10	0	0	0	0	531	475	339	127	
11	0	0	0	0	500	476	338	127	
12	0	0	0	0	446	471	340	127	
13	0	0	0	0	394	453	339	128	
14	0	0	0	0	432	480	340	128	
15	0	0	0	0	488	525	342	129	
0	0	0	0	0	503	540	340	131	
1	0	0	0	0	580	542	340	131	
2	0	0	0	0	593	531	341	132	
3	0	0	0	0	519	516	341	133	
4	0	0	0	0	495	509	342	133	
5	0	0	0	0	413	515	342	134	
6	0	0	0	0	422	523	342	133	
7	0	0	0	0	588	530	343	133	
8	0	0	0	0	644	511	342	133	
9	0	0	0	0	685	506	343	134	
10	0	0	0	0	537	519	343	135	
11	0	0	0	0	519	494	344	134	
12	0	0	0	0	525	497	344	133	
13	0	0	0	0	438	507	344	134	
14	0	0	0	0	367	480	344	134	
15	0	0	0	0	404	452	344	135	
0	0	0	0	0	478	532	344	136	
1	0	0	0	0	483	553	344	136	
2	0	0	0	0	482	554	345	136	
3	0	0	0	0	480	542	345	137	
4	0	0	0	0	585	510	345	139	
5	0	0	0	0	583	487	345	139	
6	0	0	0	0	507	497	346	140	
7	0	0	0	0	516	501	346	139	
8	0	0	0	0	531	503	346	139	
9	0	0	0	0	527	494	346	139	
10	0	0	0	0	621	512	347	139	
11	0	0	0	0	521	519	345	140	
12	0	0	0	0	481	507	346	141	
13	0	0	0	0	519	487	345	141	
14	0	0	0	0	531	496	347	141	
15	0	0	0	0	503	500	346	140	
0	0	0	0	0	418	513	346	143	
1	0	0	0	0	358	524	345	142	
2	0	0	0	0	437	542	346	143	
3	0	0	0	0	492	538	345	143	
4	0	0	0	0	562	528	345	142	
5	0	0	0	0	594	510	345	143	
6	0	0	0	0	559	498	347	143	
7	0	0	0	0	534	489	347	143	
8	0	0	0	0	499	490	347	142	
9	0	0	0	0	480	507	348	142	
10	0	0	0	0	494	531	348	143	
11	0	0	0	0	491	531	349	144	
12	0	0	0	0	504	521	348	143	
13	0	0	0	0	533	504	350	144	
14	0	0	0	0	548	490	350	146	
15	0	0	0	0	581	496	352	145	
0	0	0	0	0	516	518	351	146	
1	0	0	0	0	452	524	353	146	
2	0	0	0	0	385	503	354	147	
3	0	0	0	0	415	505	355	146	
4	0	0	0	0	411	510	353	147	
5	0	0	0	0	486	486	353	147	
6	0	0	0	0	611	495	353	148	
7	0	0	0	0	662	515	355	148	
8	0	0	0	0	636	521	355	149	
9	0	0	0	0	568	530	353	149	
10	0	0	0	0	510	536	354	149	
11	0	0	0	0	465	530	355	149	
12	0	0	0	0	476	521	355	150	
13	0	0	0	0	543	487	355	149	
14	0	0	0	0	447	499	356	150	
15	0	0	0	0	428	539	356	150	
0	0	0	0	0	448	542	355	151	
1	0	0	0	0	387	506	356	150	
2	0	0	0	0	536	494	356	151	
3	0	0	0	0	626	453	356	151	
4	0	0	0	0	527	447	357	152	
5	0	0	0	0	531	519	358	152	
6	0	0	0	0	520	531	359	153	
7	0	0	0	0	489	505	360	154	
8	0	0	0	0	444	507	357	154	
9	0	0	0	0	530	507	357	154	
10	0	0	0	0	607	508	357	155	
11	0	0	0	0	605	527	357	154	
12	0	0	0	0	503	512	358	154	
13	0	0	0	0	487	515	358	153	
14	0	0	0	0	443	535	358	154	
15	0	0	0	0	493	536	359	154	
0	0	0	0	0	525	540	360	154	
1	0	0	0	0	557	535	360	155	
2	0	0	0	0	495	527	359	155	
3	0	0	0	0	408	538	359	155	
4	0	0	0	0	380	524	360	155	
5	0	0	0	0	534	518	360	156	
6	0	0	0	0	582	503	361	155	
7	0	0	0	0	585	495	360	156	
8	0	0	0	0	559	500	362	156	
9	0	0	0	0	525	509	363	157	
10	0	0	0	0	415	501	364	157	
11	0	0	0	0	473	492	363	159	
12	0	0	0	0	543	478	362	160	
13	0	0	0	0	577	489	361	161	
14	0	0	0	0	522	493	361	159	
15	0	0	0	0	488	481	360	161	
0	0	0	0	0	560	528	359	162	
1	0	0	0	0	531	518	360	164	
2	0	0	0	0	479	511	360	163	
3	0	0	0	0	415	492	359	165	
4	0	0	0	0	441	493	363	166	
5	0	0	0	0	581	496	368	166	
6	0	0	0	0	587	477	368	166	
7	0	0	0	0	558	477	365	167	
8	0	0	0	0	502	494	367	168	
9	0	0	0	0	486	506	366	170	
10	0	0	0	0	489	527	366	170	
11	0	0	0	0	527	536	367	171	
12	0	0	0	0	502	532	368	172	
13	0	0	0	0	403	528	368	172	
14	0	0	0	0	399	518	368	175	
15	0	0	0	0	361	531	367	175	
0	0	0	0	0	537	539	369	175	
1	0	0	0	0	623	522	369	176	
2	0	0	0	0	636	545	368	176	
3	0	0	0	0	585	525	368	177	
4	0	0	0	0	523	495	368	177	
5	0	0	0	0	450	480	370	177	
6	0	0	0	0	436	497	368	177	
7	0	0	0	0	489	506	368	179	
8	0	0	0	0	560	507	367	181	
9	0	0	0	0	550	494	368	183	
10	0	0	0	0	499	519	367	184	
11	0	0	0	0	441	516	366	184	
12	0	0	0	0	519	499	367	188	
13	0	0	0	0	561	511	366	191	
14	0	0	0	0	605	554	364	189	
15	0	0	0	0	480	539	363	191	
0	0	0	0	0	509	534	363	191	
1	0	0	0	0	392	485	364	191	
2	0	0	0	0	435	521	364	192	
3	0	0	0	0	546	527	364	192	
4	0	0	0	0	548	526	367	192	
5	0	0	0	0	542	486	364	192	
6	0	0	0	0	532	477	365	193	
7	0	0	0	0	534	487	362	193	
8	0	0	0	0	475	489	361	193	
9	0	0	0	0	480	518	358	194	
10	0	0	0	0	567	532	357	195	
11	0	0	0	0	521	496	355	194	
12	0	0	0	0	480	472	353	195	
13	0	0	0	0	479	500	353	196	
14	0	0	0	0	545	538	353	197	
15	0	0	0	0	564	547	352	197	
0	0	0	0	0	494	534	353	199	
1	0	0	0	0	500	523	351	199	
2	0	0	0	0	489	507	352	198	
3	0	0	0	0	432	486	353	197	
4	0	0	0	0	431	495	353	198	
5	0	0	0	0	487	516	351	196	
6	0	0	0	0	516	499	350	197	
7	0	0	0	0	588	508	350	201	
8	0	0	0	0	531	493	349	202	
9	0	0	0	0	509	494	349	203	
10	0	0	0	0	483	497	350	203	
11	0	0	0	0	482	545	348	202	
12	0	0	0	0	544	545	347	202	
13	0	0	0	0	461	516	350	202	
14	0	0	0	0	467	496	349	203	
15	0	0	0	0	515	492	350	202	
0	0	0	0	0	548	495	349	203	
1	0	0	0	0	615	490	347	204	
2	0	0	0	0	634	510	346	204	
3	0	0	0	0	622	545	346	203	
4	0	0	0	0	471	563	346	203	
5	0	0	0	0	380	565	346	204	
6	0	0	0	0	414	565	347	204	
7	0	0	0	0	485	541	347	204	
8	0	0	0	0	532	505	347	202	
9	0	0	0	0	463	458	347	204	
10	0	0	0	0	382	422	347	206	
11	0	0	0	0	501	439	346	205	
12	0	0	0	0	582	487	347	206	
13	0	0	0	0	556	487	348	206	
14	0	0	0	0	527	492	348	207	
15	0	0	0	0	482	536	347	207	
0	0	0	0	0	524	574	349	208	
1	0	0	0	0	517	575	348	208	
2	0	0	0	0	542	551	349	208	
3	0	0	0	0	515	532	350	209	
4	0	0	0	0	437	509	349	211	
5	0	0	0	0	379	515	350	210	
6	0	0	0	0	440	503	350	210	
7	0	0	0	0	532	460	350	211	
8	0	0	0	0	602	432	351	210	
9	0	0	0	0	712	438	351	210	
10	0	0	0	0	653	480	351	210	
11	0	0	0	0	570	525	352	211	
12	0	0	0	0	488	532	353	211	
13	0	0	0	0	409	522	354	211	
14	0	0	0	0	461	529	354	211	
15	0	0	0	0	465	540	355	211	
0	0	0	0	0	465	537	355	211	
1	0	0	0	0	425	515	355	211	
2	0	0	0	0	446	489	353	211	
3	0	0	0	0	430	507	352	211	
4	0	0	0	0	431	540	352	211	
5	0	0	0	0	548	542	353	213	
6	0	0	0	0	640	548	354	211	
7	0	0	0	0	604	494	353	211	
8	0	0	0	0	609	501	352	211	
9	0	0	0	0	620	553	352	211	
10	0	0	0	0	524	513	351	212	
11	0	0	0	0	420	490	351	212	
12	0	0	0	0	436	473	351	214	
13	0	0	0	0	478	451	351	213	
14	0	0	0	0	458	460	350	216	
15	0	0	0	0	487	473	350	216	
0	0	0	0	0	542	502	351	217	
1	0	0	0	0	576	526	352	219	
2	0	0	0	0	573	526	348	219	
3	0	0	0	0	540	517	347	219	
4	0	0	0	0	489	512	346	219	
5	0	0	0	0	403	493	348	219	
6	0	0	0	0	400	508	348	219	
7	0	0	0	0	438	569	348	220	
8	0	0	0	0	505	589	348	219	
9	0	0	0	0	509	547	347	219	
10	0	0	0	0	583	513	348	219	
11	0	0	0	0	682	505	347	219	
12	0	0	0	0	644	513	347	218	
13	0	0	0	0	528	529	346	217	
14	0	0	0	0	436	520	345	217	
15	0	0	0	0	358	505	345	218	
0	0	0	0	0	410	510	345	220	
1	0	0	0	0	464	523	344	219	
2	0	0	0	0	504	505	344	220	
3	0	0	0	0	541	493	344	220	
4	0	0	0	0	524	487	342	219	
5	0	0	0	0	556	483	345	219	
6	0	0	0	0	540	474	343	221	
7	0	0	0	0	491	463	346	222	
8	0	0	0	0	545	513	347	219	
9	0	0	0	0	621	535	344	219	
10	0	0	0	0	594	527	344	220	
11	0	0	0	0	519	523	345	221	
12	0	0	0	0	456	546	344	222	
13	0	0	0	0	387	534	344	223	
14	0	0	0	0	344	509	344	222	
15	0	0	0	0	435	487	343	222	
0	0	0	0	0	569	487	343	222	
1	0	0	0	0	537	470	343	222	
2	0	0	0	0	487	493	344	222	
3	0	0	0	0	475	541	344	222	
4	0	0	0	0	564	550	344	222	
5	0	0	0	0	562	520	343	223	
6	0	0	0	0	576	512	343	222	
7	0	0	0	0	520	509	344	224	
8	0	0	0	0	476	493	343	222	
9	0	0	0	0	395	514	343	223	
10	0	0	0	0	446	510	343	224	
11	0	0	0	0	468	508	343	224	
12	0	0	0	0	545	530	343	223	
13	0	0	0	0	627	532	344	223	
14	0	0	0	0	597	498	344	224	
15	0	0	0	0	586	481	343	224	
0	0	0	0	0	513	478	344	223	
1	0	0	0	0	432	467	343	222	
2	0	0	0	0	492	496	343	224	
3	0	0	0	0	519	515	343	224	
4	0	0	0	0	528	522	343	223	
5	0	0	0	0	469	506	345	224	
6	0	0	0	0	451	523	344	223	
7	0	0	0	0	454	531	345	222	
8	0	0	0	0	539	506	346	219	
9	0	0	0	0	592	522	345	218	
10	0	0	0	0	558	528	346	218	
11	0	0	0	0	444	529	346	217	
12	0	0	0	0	419	526	347	216	
13	0	0	0	0	483	511	348	216	
14	0	0	0	0	561	502	347	214	
15	0	0	0	0	602	502	348	214	
0	0	0	0	0	499	499	350	212	
1	0	0	0	0	502	508	349	213	
2	0	0	0	0	569	537	349	212	
3	0	0	0	0	461	539	349	212	
4	0	0	0	0	435	557	349	213	
5	0	0	0	0	465	555	349	212	
6	0	0	0	0	492	527	349	212	
7	0	0	0	0	523	475	349	212	
8	0	0	0	0	593	459	350	211	
9	0	0	0	0	615	459	350	212	
10	0	0	0	0	540	447	351	212	
11	0	0	0	0	426	455	352	212	
12	0	0	0	0	406	499	352	213	
13	0	0	0	0	505	552	352	213	
14	0	0	0	0	552	524	353	214	
15	0	0	0	0	504	530	353	214	
0	0	0	0	0	469	515	353	214	
1	0	0	0	0	421	504	353	214	
2	0	0	0	0	460	524	354	215	
3	0	0	0	0	501	538	355	217	
4	0	0	0	0	490	563	355	217	
5	0	0	0	0	461	540	355	219	
6	0	0	0	0	586	499	356	220	
7	0	0	0	0	660	495	356	220	
8	0	0	0	0	616	502	354	221	
9	0	0	0	0	604	507	355	222	
10	0	0	0	0	528	488	356	223	
11	0	0	0	0	533	476	357	223	
12	0	0	0	0	496	481	356	222	
13	0	0	0	0	389	502	358	224	
14	0	0	0	0	320	518	357	224	
15	0	0	0	0	416	538	357	225	
0	0	0	0	0	506	558	358	226	
1	0	0	0	0	525	553	358	226	
2	0	0	0	0	571	537	358	227	
3	0	0	0	0	614	535	357	227	
4	0	0	0	0	572	521	357	228	
5	0	0	0	0	475	480	359	228	
6	0	0	0	0	581	487	360	229	
7	0	0	0	0	507	498	359	229	
8	0	0	0	0	564	509	359	230	
9	0	0	0	0	513	497	359	230	
10	0	0	0	0	460	476	359	231	
11	0	0	0	0	472	452	361	232	
12	0	0	0	0	485	446	360	232	
13	0	0	0	0	484	470	360	233	
14	0	0	0	0	485	502	360	233	
15	0	0	0	0	509	522	360	236	
0	0	0	0	0	517	536	359	237	
1	0	0	0	0	450	534	359	236	
2	0	0	0	0	454	560	359	238	
3	0	0	0	0	451	536	360	237	
4	0	0	0	0	508	521	361	237	
5	0	0	0	0	580	533	360	238	
6	0	0	0	0	640	522	359	238	
7	0	0	0	0	566	498	361	239	
8	0	0	0	0	489	494	361	240	
9	0	0	0	0	489	481	361	240	
10	0	0	0	0	476	494	363	240	
11	0	0	0	0	521	510	362	240	
12	0	0	0	0	505	529	362	239	
13	0	0	0	0	495	537	362	240	
14	0	0	0	0	524	538	362	241	
15	0	0	0	0	526	520	362	242	
0	0	0	0	0	494	515	364	243	
1	0	0	0	0	496	534	363	241	
2	0	0	0	0	482	520	364	242	
3	0	0	0	0	456	487	364	243	
4	0	0	0	0	507	497	364	243	
5	0	0	0	0	513	503	364	244	
6	0	0	0	0	525	510	363	245	
7	0	0	0	0	501	507	362	246	
8	0	0	0	0	539	499	363	248	
9	0	0	0	0	482	486	362	248	
10	0	0	0	0	524	476	362	247	
11	0	0	0	0	534	475	363	246	
12	0	0	0	0	564	499	364	244	
13	0	0	0	0	551	510	363	244	
14	0	0	0	0	498	518	363	246	
15	0	0	0	0	381	523	363	246	
0	0	0	0	0	360	520	364	247	
1	0	0	0	0	556	523	364	246	
2	0	0	0	0	604	518	368	247	
3	0	0	0	0	598	508	368	247	
4	0	0	0	0	605	537	368	248	
5	0	0	0	0	585	533	367	249	
6	0	0	0	0	491	502	366	249	
7	0	0	0	0	456	499	365	250	
8	0	0	0	0	420	508	365	250	
9	0	0	0	0	385	509	367	249	
10	0	0	0	0	417	520	368	249	
11	0	0	0	0	511	519	368	248	
12	0	0	0	0	547	531	368	250	
13	0	0	0	0	519	528	368	249	
14	0	0	0	0	526	519	368	251	
15	0	0	0	0	517	515	368	250	
0	0	0	0	0	531	522	368	250	
1	0	0	0	0	589	536	368	250	
2	0	0	0	0	539	531	368	251	
3	0	0	0	0	431	511	369	250	
4	0	0	0	0	450	503	369	249	
5	0	0	0	0	505	484	371	250	
6	0	0	0	0	588	453	372	251	
7	0	0	0	0	642	466	371	250	
8	0	0	0	0	527	495	370	251	
9	0	0	0	0	440	513	371	251	
10	0	0	0	0	495	511	372	252	
11	0	0	0	0	552	530	373	252	
12	0	0	0	0	593	520	373	251	
13	0	0	0	0	562	504	373	252	
14	0	0	0	0	390	492	374	251	
15	0	0	0	0	371	509	376	252	
0	0	0	0	0	470	531	377	252	
1	0	0	0	0	449	523	378	252	
2	0	0	0	0	503	551	375	251	
3	0	0	0	0	492	527	376	251	
4	0	0	0	0	555	495	376	253	
5	0	0	0	0	529	491	377	253	
6	0	0	0	0	492	495	377	252	
7	0	0	0	0	527	489	377	253	
8	0	0	0	0	517	529	377	252	
9	0	0	0	0	541	560	377	252	
10	0	0	0	0	489	544	377	252	
11	0	0	0	0	514	518	378	252	
12	0	0	0	0	536	479	379	251	
13	0	0	0	0	529	483	379	250	
14	0	0	0	0	562	510	379	252	
15	0	0	0	0	510	505	377	252	
0	0	0	0	0	499	509	376	255	
1	0	0	0	0	522	519	377	255	
2	0	0	0	0	516	517	379	254	
3	0	0	0	0	497	504	377	255	
4	0	0	0	0	484	496	377	254	
5	0	0	0	0	428	493	376	255	
6	0	0	0	0	509	484	375	255	
7	0	0	0	0	523	484	375	255	
8	0	0	0	0	482	503	373	255	
9	0	0	0	0	496	495	373	255	
10	0	0	0	0	504	492	374	253	
11	0	0	0	0	447	520	374	252	
12	0	0	0	0	491	553	374	253	
13	0	0	0	0	597	563	374	253	
14	0	0	0	0	640	524	374	254	
15	0	0	0	0	617	470	373	255	
0	0	0	0	0	539	487	374	255	
1	0	0	0	0	319	512	375	254	
2	0	0	0	0	441	521	375	254	
3	0	0	0	0	446	542	375	252	
4	0	0	0	0	443	536	375	252	
5	0	0	0	0	601	515	375	252	
6	0	0	0	0	581	505	375	253	
7	0	0	0	0	478	498	378	252	
8	0	0	0	0	477	496	379	252	
9	0	0	0	0	552	518	378	254	
10	0	0	0	0	537	520	379	254	
11	0	0	0	0	515	509	378	253	
12	0	0	0	0	503	508	382	254	
13	0	0	0	0	541	526	383	253	
14	0	0	0	0	502	540	384	251	
15	0	0	0	0	505	541	384	252	
0	0	0	0	0	482	536	385	250	
1	0	0	0	0	456	518	384	251	
2	0	0	0	0	478	511	382	251	
3	0	0	0	0	515	510	382	252	
4	0	0	0	0	563	514	383	252	
5	0	0	0	0	553	485	382	252	
6	0	0	0	0	518	446	381	253	
7	0	0	0	0	566	457	384	252	
8	0	0	0	0	547	494	385	252	
9	0	0	0	0	485	515	383	254	
10	0	0	0	0	503	520	384	254	
11	0	0	0	0	439	511	384	252	
12	0	0	0	0	430	509	384	252	
13	0	0	0	0	477	507	384	252	
14	0	0	0	0	552	518	384	253	
15	0	0	0	0	566	533	383	253	
0	0	0	0	0	579	526	384	254	
1	0	0	0	0	528	518	386	253	
2	0	0	0	0	504	473	389	254	
3	0	0	0	0	453	460	391	255	
4	0	0	0	0	469	454	393	255	
5	0	0	0	0	512	504	390	254	
6	0	0	0	0	495	498	389	254	
7	0	0	0	0	521	502	390	254	
8	0	0	0	0	506	550	389	254	
9	0	0	0	0	493	575	388	255	
10	0	0	0	0	460	599	392	256	
11	0	0	0	0	449	550	392	255	
12	0	0	0	0	508	523	391	256	
13	0	0	0	0	547	496	391	255	
14	0	0	0	0	506	491	390	256	
15	0	0	0	0	450	498	391	255	
0	0	0	0	0	477	498	390	255	
1	0	0	0	0	626	523	391	256	
2	0	0	0	0	534	513	391	254	
3	0	0	0	0	531	509	391	256	
4	0	0	0	0	529	515	394	255	
5	0	0	0	0	553	512	393	255	
6	0	0	0	0	559	487	395	257	
7	0	0	0	0	531	490	395	257	
8	0	0	0	0	481	520	395	258	
9	0	0	0	0	434	526	396	258	
10	0	0	0	0	429	536	400	258	
11	0	0	0	0	508	503	403	258	
12	0	0	0	0	500	443	402	257	
13	0	0	0	0	525	445	403	259	
14	0	0	0	0	500	480	406	258	
15	0	0	0	0	497	526	408	257	
0	0	0	0	0	559	555	408	257	
1	0	0	0	0	605	566	409	257	
2	0	0	0	0	540	559	408	258	
3	0	0	0	0	482	537	408	257	
4	0	0	0	0	515	516	409	260	
5	0	0	0	0	481	487	406	261	
6	0	0	0	0	476	487	407	261	
7	0	0	0	0	488	498	407	262	
8	0	0	0	0	502	497	408	263	
9	0	0	0	0	507	493	409	264	
10	0	0	0	0	506	508	408	264	
11	0	0	0	0	504	515	408	264	
12	0	0	0	0	484	517	407	267	
13	0	0	0	0	517	528	407	266	
14	0	0	0	0	514	524	406	268	
15	0	0	0	0	541	521	406	268	
0	0	0	0	0	526	511	407	269	
1	0	0	0	0	512	507	407	269	
2	0	0	0	0	510	495	408	269	
3	0	0	0	0	489	483	407	270	
4	0	0	0	0	507	490	407	271	
5	0	0	0	0	506	489	407	272	
6	0	0	0	0	494	501	408	274	
7	0	0	0	0	529	515	408	274	
8	0	0	0	0	566	519	407	273	
9	0	0	0	0	525	517	406	275	
10	0	0	0	0	496	527	407	277	
11	0	0	0	0	457	512	406	275	
12	0	0	0	0	429	517	407	277	
13	0	0	0	0	458	514	406	278	
14	0	0	0	0	464	517	408	281	
15	0	0	0	0	451	516	409	280	
0	0	0	0	0	494	518	409	281	
1	0	0	0	0	517	521	409	282	
2	0	0	0	0	538	513	410	283	
3	0	0	0	0	565	513	412	283	
4	0	0	0	0	605	512	412	283	
5	0	0	0	0	535	496	413	283	
6	0	0	0	0	515	513	414	283	
7	0	0	0	0	521	528	412	282	
8	0	0	0	0	462	527	413	283	
9	0	0	0	0	449	529	413	282	
10	0	0	0	0	518	520	411	283	
11	0	0	0	0	576	500	413	284	
12	0	0	0	0	580	483	411	283	
13	0	0	0	0	539	483	412	285	
14	0	0	0	0	492	507	413	286	
15	0	0	0	0	472	519	412	285	
0	0	0	0	0	506	513	412	284	
1	0	0	0	0	545	523	412	284	
2	0	0	0	0	476	550	411	284	
3	0	0	0	0	388	530	411	283	
4	0	0	0	0	470	506	411	282	
5	0	0	0	0	554	486	410	282	
6	0	0	0	0	563	486	411	283	
7	0	0	0	0	554	489	410	282	
8	0	0	0	0	555	502	408	283	
9	0	0	0	0	555	507	406	282	
10	0	0	0	0	486	515	407	281	
11	0	0	0	0	468	481	407	281	
12	0	0	0	0	433	470	406	280	
13	0	0	0	0	515	539	405	283	
14	0	0	0	0	556	544	406	281	
15	0	0	0	0	526	511	407	281	
0	0	0	0	0	467	499	407	282	
1	0	0	0	0	483	509	406	280	
2	0	0	0	0	585	518	406	280	
3	0	0	0	0	558	538	407	282	
4	0	0	0	0	406	549	406	283	
5	0	0	0	0	436	550	407	283	
6	0	0	0	0	501	552	408	284	
7	0	0	0	0	510	532	408	281	
8	0	0	0	0	512	501	410	280	
9	0	0	0	0	459	473	412	277	
10	0	0	0	0	477	485	412	278	
11	0	0	0	0	539	494	414	275	
12	0	0	0	0	560	491	415	275	
13	0	0	0	0	519	469	416	273	
14	0	0	0	0	517	469	415	272	
15	0	0	0	0	542	501	414	273	
0	0	0	0	0	556	521	411	275	
1	0	0	0	0	581	511	413	277	
2	0	0	0	0	542	498	412	275	
3	0	0	0	0	488	503	413	273	
4	0	0	0	0	481	494	413	273	
5	0	0	0	0	487	501	411	273	
6	0	0	0	0	484	512	413	273	
7	0	0	0	0	473	514	414	272	
8	0	0	0	0	472	519	415	270	
9	0	0	0	0	474	523	415	273	
10	0	0	0	0	505	525	412	272	
11	0	0	0	0	547	526	412	270	
12	0	0	0	0	548	521	413	269	
13	0	0	0	0	540	514	412	268	
14	0	0	0	0	520	512	413	267	
15	0	0	0	0	501	510	412	262	
0	0	0	0	0	506	508	412	263	
1	0	0	0	0	496	509	412	262	
2	0	0	0	0	495	511	412	259	
3	0	0	0	0	497	511	411	258	
4	0	0	0	0	488	511	413	257	
5	0	0	0	0	491	516	411	254	
6	0	0	0	0	514	514	412	252	
7	0	0	0	0	517	514	415	251	
8	0	0	0	0	504	511	415	248	
9	0	0	0	0	513	514	414	249	
10	0	0	0	0	519	520	415	247	
11	0	0	0	0	518	519	416	246	
12	0	0	0	0	517	515	415	244	
13	0	0	0	0	503	512	416	241	
14	0	0	0	0	498	512	416	239	
15	0	0	0	0	494	515	416	238	
0	0	0	0	0	503	511	414	236	
1	0	0	0	0	518	509	412	234	
2	0	0	0	0	500	506	414	230	
3	0	0	0	0	483	507	413	228	
4	0	0	0	0	497	508	411	227	
5	0	0	0	0	524	509	413	224	
6	0	0	0	0	541	512	412	222	
7	0	0	0	0	546	513	414	217	
8	0	0	0	0	520	513	412	214	
9	0	0	0	0	496	511	417	213	
10	0	0	0	0	499	517	417	209	
11	0	0	0	0	493	522	415	207	
12	0	0	0	0	502	515	415	206	
13	0	0	0	0	503	511	415	204	
14	0	0	0	0	511	507	416	202	
15	0	0	0	0	520	505	413	203	
0	0	0	0	0	497	499	412	203	
1	0	0	0	0	503	496	412	201	
2	0	0	0	0	500	497	413	201	
3	0	0	0	0	504	497	411	200	
4	0	0	0	0	525	500	412	198	
5	0	0	0	0	532	508	419	198	
6	0	0	0	0	549	514	421	195	
7	0	0	0	0	509	519	422	194	
8	0	0	0	0	491	525	421	181	
9	0	0	0	0	502	527	420	179	
10	0	0	0	0	472	520	421	175	
11	0	0	0	0	470	512	421	172	
12	0	0	0	0	487	508	419	169	
13	0	0	0	0	521	502	417	168	
14	0	0	0	0	561	501	415	164	
15	0	0	0	0	548	503	416	163	
0	0	0	0	0	531	499	416	159	
1	0	0	0	0	490	500	418	149	
2	0	0	0	0	438	504	418	147	
3	0	0	0	0	419	518	422	140	
4	0	0	0	0	492	527	422	133	
5	0	0	0	0	592	536	424	128	
6	0	0	0	0	597	538	421	121	
7	0	0	0	0	521	531	420	114	
8	0	0	0	0	488	524	421	112	
9	0	0	0	0	502	515	423	107	
10	0	0	0	0	491	500	425	80	
11	0	0	0	0	474	486	423	83	
12	0	0	0	0	502	478	422	81	
13	0	0	0	0	536	476	422	76	
14	0	0	0	0	524	475	422	76	
15	0	0	0	0	533	493	422	76	
0	0	0	0	0	505	518	421	75	
1	0	0	0	0	503	527	422	74	
2	0	0	0	0	545	524	423	74	
3	0	0	0	0	498	515	423	72	
4	0	0	0	0	468	513	423	70	
5	0	0	0	0	483	514	422	69	
6	0	0	0	0	484	512	420	71	
7	0	0	0	0	443	510	422	69	
8	0	0	0	0	519	511	420	67	
9	0	0	0	0	545	518	421	65	
10	0	0	0	0	503	518	424	62	
11	0	0	0	0	590	521	422	60	
12	0	0	0	0	535	520	422	61	
13	0	0	0	0	514	510	422	57	
14	0	0	0	0	497	505	423	56	
15	0	0	0	0	539	508	424	51	
0	0	0	0	0	530	507	425	51	
1	0	0	0	0	512	510	424	44	
2	0	0	0	0	494	511	422	31	
3	0	0	0	0	484	508	423	19	
4	0	0	0	0	505	507	424	15	
5	0	0	0	0	481	504	422	1	
6	0	0	0	0	483	507	421	0	
7	0	0	0	0	498	504	420	0	
8	0	0	0	0	518	508	421	0	
9	0	0	0	0	515	511	421	0	
10	0	0	0	0	495	514	420	0	
11	0	0	0	0	496	515	418	0	
12	0	0	0	0	507	513	418	0	
13	0	0	0	0	512	514	417	0	
14	0	0	0	0	518	513	417	0	
15	0	0	0	0	524	511	417	0	
0	0	0	0	0	532	512	415	0	
1	0	0	0	0	527	513	414	0	
2	0	0	0	0	515	511	412	0	
3	0	0	0	0	485	514	411	0	
4	0	0	0	0	515	515	409	0	
5	0	0	0	0	497	513	409	0	
6	0	0	0	0	488	513	412	0	
7	0	0	0	0	519	508	411	0	
8	0	0	0	0	519	512	409	0	
9	0	0	0	0	475	515	409	0	
10	0	0	0	0	443	513	408	0	
11	0	0	0	0	474	512	408	0	
12	0	0	0	0	526	510	409	0	
13	0	0	0	0	510	508	410	0	
14	0	0	0	0	531	505	410	0	
15	0	0	0	0	540	505	409	0	
0	0	0	0	0	524	505	411	0	
1	0	0	0	0	515	504	411	0	
2	0	0	0	0	522	510	411	0	
3	0	0	0	0	508	511	411	0	
4	0	0	0	0	523	518	410	0	
5	0	0	0	0	521	512	411	0	
6	0	0	0	0	511	512	412	0	
7	0	0	0	0	534	508	409	0	
8	0	0	0	0	519	510	407	0	
9	0	0	0	0	508	512	406	0	
10	0	0	0	0	499	512	404	0	
11	0	0	0	0	498	511	403	0	
12	0	0	0	0	497	509	402	0	
13	0	0	0	0	495	509	402	0	
14	0	0	0	0	487	510	399	0	
15	0	0	0	0	466	511	396	0	
0	0	0	0	0	492	513	391	0	
1	0	0	0	0	521	513	386	0	
2	0	0	0	0	503	517	381	0	
3	0	0	0	0	515	514	371	0	
4	0	0	0	0	542	514	369	0	
5	0	0	0	0	538	513	367	0	
6	0	0	0	0	512	508	364	0	
7	0	0	0	0	516	508	359	0	
8	0	0	0	0	498	505	359	0	
9	0	0	0	0	515	504	356	0	
10	0	0	0	0	544	502	352	0	
11	0	0	0	0	497	502	352	0	
12	0	0	0	0	467	511	348	0	
13	0	0	0	0	498	520	347	0	
14	0	0	0	0	517	523	344	0	
15	0	0	0	0	513	520	341	0	
0	0	0	0	0	510	510	342	0	
1	0	0	0	0	518	508	339	0	
2	0	0	0	0	524	508	338	0	
3	0	0	0	0	515	507	335	0	
4	0	0	0	0	508	500	332	0	
5	0	0	0	0	494	505	329	0	
6	0	0	0	0	496	509	327	0	
7	0	0	0	0	497	509	325	0	
8	0	0	0	0	505	510	323	0	
9	0	0	0	0	508	511	323	0	
10	0	0	0	0	511	512	320	0	
11	0	0	0	0	511	514	320	0	
12	0	0	0	0	512	512	316	0	
13	0	0	0	0	511	511	312	0	
14	0	0	0	0	511	512	308	0	
15	0	0	0	0	510	510	307	0	
0	0	0	0	0	507	510	304	0	
1	0	0	0	0	509	513	301	0	
2	0	0	0	0	508	510	299	0	
3	0	0	0	0	508	511	300	0	
4	0	0	0	0	505	509	297	0	
5	0	0	0	0	504	511	296	0	
6	0	0	0	0	503	511	294	0	
7	0	0	0	0	503	510	291	0	
8	0	0	0	0	507	513	290	0	
9	0	0	0	0	508	511	288	0	
10	0	0	0	0	508	510	283	0	
11	0	0	0	0	509	511	281	0	
12	0	0	0	0	509	511	283	0	
13	0	0	0	0	514	509	282	0	
14	0	0	0	0	512	511	282	0	
15	0	0	0	0	518	512	282	0	
0	0	0	0	0	525	513	282	0	
1	0	0	0	0	516	513	282	0	
2	0	0	0	0	508	509	278	0	
3	0	0	0	0	504	512	276	0	
4	0	0	0	0	498	511	274	0	
5	0	0	0	0	487	510	273	0	
6	0	0	0	0	491	510	273	0	
7	0	0	0	0	509	512	273	0	
8	0	0	0	0	513	510	249	0	
9	0	0	0	0	510	511	245	0	
10	0	0	0	0	509	510	244	0	
11	0	0	0	0	511	508	242	0	
12	0	0	0	0	511	507	240	0	
13	0	0	0	0	509	510	236	0	
14	0	0	0	0	511	508	235	0	
15	0	0	0	0	509	510	235	0	
0	0	0	0	0	512	510	233	0	
1	0	0	0	0	512	511	231	0	
2	0	0	0	0	511	511	232	0	
3	0	0	0	0	511	511	233	0	
4	0	0	0	0	513	512	233	0	
5	0	0	0	0	513	511	229	0	
6	0	0	0	0	512	512	226	0	
7	0	0	0	0	509	511	220	0	
8	0	0	0	0	509	513	217	0	
9	0	0	0	0	508	511	219	0	
10	0	0	0	0	507	508	216	0	
11	0	0	0	0	507	509	210	0	
12	0	0	0	0	505	510	206	0	
13	0	0	0	0	505	511	201	0	
14	0	0	0	0	507	510	199	0	
15	0	0	0	0	506	508	196	0	
0	0	0	0	0	505	508	197	0	
1	0	0	0	0	505	510	192	0	
2	0	0	0	0	508	510	190	0	
3	0	0	0	0	509	509	186	0	
4	0	0	0	0	508	509	183	0	
5	0	0	0	0	512	510	183	0	
6	0	0	0	0	513	510	180	0	
7	0	0	0	0	512	512	179	0	
8	0	0	0	0	512	512	177	0	
9	0	0	0	0	511	511	181	0	
10	0	0	0	0	511	512	177	0	
11	0	0	0	0	510	510	175	0	
12	0	0	0	0	509	510	172	0	
13	0	0	0	0	512	511	170	0	
14	0	0	0	0	508	511	169	0	
15	0	0	0	0	505	509	166	0	
0	0	0	0	0	504	509	166	0	
1	0	0	0	0	504	509	157	0	
2	0	0	0	0	504	510	159	0	
3	0	0	0	0	505	511	153	0	
4	0	0	0	0	504	509	155	0	
5	0	0	0	0	505	508	151	0	
6	0	0	0	0	507	511	152	0	
7	0	0	0	0	507	509	148	0	
8	0	0	0	0	511	512	147	0	
9	0	0	0	0	511	512	125	0	
10	0	0	0	0	513	512	122	0	
11	0	0	0	0	512	510	118	0	
12	0	0	0	0	512	512	114	0	
13	0	0	0	0	511	512	111	0	
14	0	0	0	0	511	511	105	0	
15	0	0	0	0	510	511	104	0	
0	0	0	0	0	510	511	102	0	
1	0	0	0	0	508	509	107	0	
2	0	0	0	0	507	511	106	0	
3	0	0	0	0	504	511	103	0	
4	0	0	0	0	506	511	100	0	
5	0	0	0	0	507	509	102	0	
6	0	0	0	0	505	510	102	0	
7	0	0	0	0	507	510	98	0	
8	0	0	0	0	504	511	97	0	
9	0	0	0	0	508	509	101	0	
10	0	0	0	0	506	510	95	0	
11	0	0	0	0	507	510	96	0	
12	0	0	0	0	511	511	88	0	
13	0	0	0	0	511	511	84	0	
14	0	0	0	0	512	507	78	0	
15	0	0	0	0	512	509	75	0	
0	0	0	0	0	513	510	71	0	
1	0	0	0	0	511	514	68	0	
2	0	0	0	0	511	511	60	0	
3	0	0	0	0	512	512	50	0	
4	0	0	0	0	511	511	47	0	
5	0	0	0	0	507	511	47	0	
6	0	0	0	0	508	510	41	0	
7	0	0	0	0	507	509	39	0	
8	0	0	0	0	504	509	36	0	
9	0	0	0	0	504	510	32	0	
10	0	0	0	0	504	510	23	0	
11	0	0	0	0	507	510	21	0	
12	0	0	0	0	505	510	17	0	
13	0	0	0	0	507	510	14	0	
14	0	0	0	0	508	511	10	0	
15	0	0	0	0	509	510	6	0	
0	0	0	0	0	511	512	3	0	
1	0	0	0	0	510	509	0	0	
2	0	0	0	0	513	513	0	0	
3	0	0	0	0	513	512	0	0	
4	0	0	0	0	513	512	0	0	
5	0	0	0	0	513	511	0	0	
6	0	0	0	0	512	510	0	0	
7	0	0	0	0	511	510	0	0	
8	0	0	0	0	509	512	0	0	
9	0	0	0	0	508	511	0	0	
10	0	0	0	0	506	512	0	0	
11	0	0	0	0	504	511	0	0	
12	0	0	0	0	506	512	0	0	
13	0	0	0	0	504	509	0	0	
14	0	0	0	0	504	508	0	0	
15	0	0	0	0	505	509	0	0	
0	0	0	0	0	506	510	0	0	
1	0	0	0	0	506	510	0	0	
2	0	0	0	0	508	511	0	0	
3	0	0	0	0	510	510	0	0	
4	0	0	0	0	510	510	0	0	
5	0	0	0	0	510	510	0	0	
6	0	0	0	0	511	513	0	0	
7	0	0	0	0	511	511	0	0	
8	0	0	0	0	514	511	0	0	
9	0	0	0	0	513	512	0	0	
10	0	0	0	0	511	513	0	0	
11	0	0	0	0	512	512	0	0	
12	0	0	0	0	510	511	0	0	
13	0	0	0	0	508	511	0	0	
14	0	0	0	0	506	510	0	0	
15	0	0	0	0	508	510	0	0	
0	0	0	0	0	505	510	0	0	
1	0	0	0	0	506	510	0	0	
2	0	0	0	0	503	510	0	0	
3	0	0	0	0	504	509	0	0	
4	0	0	0	0	506	510	0	0	
5	0	0	0	0	505	511	0	0	
6	0	0	0	0	507	510	0	0	
7	0	0	0	0	508	510	0	0	
8	0	0	0	0	512	511	0	0	
9	0	0	0	0	514	511	0	0	
10	0	0	0	0	512	510	0	0	
11	0	0	0	0	514	511	0	0	
12	0	0	0	0	511	510	0	0	
13	0	0	0	0	514	511	0	0	
14	0	0	0	0	511	510	0	0	
15	0	0	0	0	510	514	0	0	
0	0	0	0	0	507	510	0	0	
1	0	0	0	0	510	510	0	0	
2	0	0	0	0	508	510	0	0	
3	0	0	0	0	506	510	0	0	
4	0	0	0	0	504	510	0	0	
5	0	0	0	0	504	510	0	0	
6	0	0	0	0	504	508	0	0	
7	0	0	0	0	504	510	0	0	
8	0	0	0	0	505	511	0	0	
9	0	0	0	0	507	512	0	0	
10	0	0	0	0	507	511	0	0	
11	0	0	0	0	511	511	0	0	
12	0	0	0	0	510	510	0	0	
13	0	0	0	0	509	510	0	0	
14	0	0	0	0	510	510	0	0	
15	0	0	0	0	514	513	0	0	
0	0	0	0	0	512	510	0	0	
1	0	0	0	0	511	511	0	0	
2	0	0	0	0	512	510	0	0	
3	0	0	0	0	510	512	0	0	
4	0	0	0	0	511	512	0	0	
5	0	0	0	0	511	509	0	0	
6	0	0	0	0	509	509	0	0	
7	0	0	0	0	504	510	0	0	
8	0	0	0	0	507	509	0	0	
9	0	0	0	0	504	509	0	0	
10	0	0	0	0	504	510	0	0	
11	0	0	0	0	507	510	0	0	
12	0	0	0	0	506	509	0	0	
13	0	0	0	0	507	510	0	0	
14	0	0	0	0	505	510	0	0	
15	0	0	0	0	506	511	0	0	
0	0	0	0	0	508	512	0	0	
1	0	0	0	0	511	510	0	0	
2	0	0	0	0	512	511	0	0	
3	0	0	0	0	513	510	0	0	
4	0	0	0	0	512	510	0	0	
5	0	0	0	0	512	512	0	0	
6	0	0	0	0	513	511	0	0	
7	0	0	0	0	511	512	0	0	
8	0	0	0	0	511	512	0	0	
9	0	0	0	0	508	508	0	0	
10	0	0	0	0	509	510	0	0	
11	0	0	0	0	505	509	0	0	
12	0	0	0	0	505	511	0	0	
13	0	0	0	0	506	510	0	0	
14	0	0	0	0	504	510	0	0	
15	0	0	0	0	506	510	0	0	
0	0	0	0	0	507	510	0	0	
1	0	0	0	0	505	507	0	0	
2	0	0	0	0	506	512	0	0	
3	0	0	0	0	506	512	0	0	
4	0	0	0	0	510	512	0	0	
5	0	0	0	0	512	511	0	0	
6	0	0	0	0	513	507	0	0	
7	0	0	0	0	511	510	0	0	
8	0	0	0	0	511	510	0	0	
9	0	0	0	0	512	512	0	0	
10	0	0	0	0	511	512	0	0	
11	0	0	0	0	512	511	0	0	
12	0	0	0	0	510	512	0	0	
13	0	0	0	0	508	511	0	0	
14	0	0	0	0	509	509	0	0	
15	0	0	0	0	507	513	0	0	
0	0	0	0	0	505	510	0	0	
1	0	0	0	0	506	511	0	0	
2	0	0	0	0	504	510	0	0	
3	0	0	0	0	504	511	0	0	
4	0	0	0	0	503	512	0	0	
5	0	0	0	0	508	508	0	0	
6	0	0	0	0	508	508	0	0	
7	0	0	0	0	507	510	0	0	
8	0	0	0	0	509	514	0	0	
9	0	0	0	0	511	513	0	0	
10	0	0	0	0	513	513	0	0	
11	0	0	0	0	512	509	0	0	
12	0	0	0	0	513	512	0	0	
13	0	0	0	0	513	511	0	0	
14	0	0	0	0	512	511	0	0	
15	0	0	0	0	511	509	0	0	
0	0	0	0	0	508	511	0	0	
1	0	0	0	0	508	508	0	0	
2	0	0	0	0	508	510	0	0	
3	0	0	0	0	507	510	0	0	
4	0	0	0	0	505	508	0	0	
5	0	0	0	0	505	510	0	0	
6	0	0	0	0	506	511	0	0	
7	0	0	0	0	503	509	0	0	
8	0	0	0	0	504	511	0	0	
9	0	0	0	0	507	509	0	0	
10	0	0	0	0	509	507	0	0	
11	0	0	0	0	509	511	0	0	
12	0	0	0	0	510	509	0	0	
13	0	0	0	0	512	511	0	0	
14	0	0	0	0	511	511	0	0	
15	0	0	0	0	512	511	0	0	
0	0	0	0	0	516	511	0	0	
1	0	0	0	0	512	511	0	0	
2	0	0	0	0	511	511	0	0	
3	0	0	0	0	512	512	0	0	
4	0	0	0	0	510	511	0	0	
5	0	0	0	0	509	512	0	0	
6	0	0	0	0	507	513	0	0	
7	0	0	0	0	504	511	0	0	
8	0	0	0	0	506	510	0	0	
9	0	0	0	0	507	508	0	0	
10	0	0	0	0	504	507	0	0	
11	0	0	0	0	505	508	0	0	
12	0	0	0	0	505	510	0	0	
13	0	0	0	0	504	511	0	0	
14	0	0	0	0	502	509	0	0	
15	0	0	0	0	507	511	0	0	
0	0	0	0	0	511	509	0	0	
1	0	0	0	0	512	510	0	0	
2	0	0	0	0	512	510	0	0	
3	0	0	0	0	513	511	0	0	
4	0	0	0	0	516	513	0	0	
5	0	0	0	0	512	513	0	0	
6	0	0	0	0	511	511	0	0	
7	0	0	0	0	512	509	0	0	
8	0	0	0	0	508	509	0	0	
9	0	0	0	0	510	512	0	0	
10	0	0	0	0	506	511	0	0	
11	0	0	0	0	505	511	0	0	
12	0	0	0	0	505	510	0	0	
13	0	0	0	0	506	510	0	0	
14	0	0	0	0	506	509	0	0	
15	0	0	0	0	504	511	0	0	
0	0	0	0	0	507	510	0	0	
1	0	0	0	0	507	511	0	0	
2	0	0	0	0	508	513	0	0	
3	0	0	0	0	509	510	0	0	
4	0	0	0	0	508	511	0	0	
5	0	0	0	0	510	514	0	0	
