# OpenSignals Text File Format. Version 1
# {"20:18:06:13:21:78": {"position": 0, "device": "bitalino_rev", "device name": "20:18:06:13:21:78", "device connection": "BTH20:18:06:13:21:78", "sampling rate": 1000, "resolution": [4, 1, 1, 1, 1, 10, 10, 10, 10], "firmware version": 1281, "comments": "", "keywords": "", "mode": 0, "sync interval": 2, "date": "2023-5-30", "time": "20:6:43.594", "channels": [1, 2, 3, 4], "sensor": ["EMGBITREV", "EMGBITREV", "RAW", "RAW"], "label": ["A1", "A2", "A3", "A4"], "column": ["nSeq", "I1", "I2", "O1", "O2", "A1", "A2", "A3", "A4"], "special": [{}, {}, {}, {}], "digital IO": [0, 0, 1, 1]}}
# EndOfHeader
0	0	0	0	0	510	505	0	0	
1	0	0	0	0	510	508	0	0	
2	0	0	0	0	511	508	0	0	
3	0	0	0	0	509	507	0	0	
4	0	0	0	0	508	508	0	0	
5	0	0	0	0	511	509	0	0	
6	0	0	0	0	510	506	0	0	
7	0	0	0	0	510	508	0	0	
8	0	0	0	0	512	509	0	0	
9	0	0	0	0	511	508	0	0	
10	0	0	0	0	512	510	0	0	
11	0	0	0	0	512	508	0	0	
12	0	0	0	0	511	508	0	0	
13	0	0	0	0	509	509	0	0	
14	0	0	0	0	512	511	0	0	
15	0	0	0	0	511	510	0	0	
0	0	0	0	0	512	510	0	0	
1	0	0	0	0	513	507	0	0	
2	0	0	0	0	510	507	0	0	
3	0	0	0	0	510	505	0	0	
4	0	0	0	0	511	504	0	0	
5	0	0	0	0	513	507	0	0	
6	0	0	0	0	512	508	0	0	
7	0	0	0	0	515	508	0	0	
8	0	0	0	0	513	508	0	0	
9	0	0	0	0	510	508	0	0	
10	0	0	0	0	506	506	0	0	
11	0	0	0	0	504	505	0	0	
12	0	0	0	0	506	508	0	0	
13	0	0	0	0	509	510	0	0	
14	0	0	0	0	511	510	0	0	
15	0	0	0	0	513	509	0	0	
0	0	0	0	0	513	509	0	0	
1	0	0	0	0	512	508	0	0	
2	0	0	0	0	512	508	0	0	
3	0	0	0	0	511	508	0	0	
4	0	0	0	0	511	508	0	0	
5	0	0	0	0	511	510	0	0	
6	0	0	0	0	512	508	0	0	
7	0	0	0	0	512	508	0	0	
8	0	0	0	0	513	505	0	0	
9	0	0	0	0	510	505	0	0	
10	0	0	0	0	511	507	0	0	
11	0	0	0	0	512	508	0	0	
12	0	0	0	0	511	511	0	0	
13	0	0	0	0	511	506	0	0	
14	0	0	0	0	510	506	0	0	
15	0	0	0	0	508	508	0	0	
0	0	0	0	0	506	510	0	0	
1	0	0	0	0	509	510	0	0	
2	0	0	0	0	508	510	0	0	
3	0	0	0	0	510	508	0	0	
4	0	0	0	0	510	508	0	0	
5	0	0	0	0	514	509	0	0	
6	0	0	0	0	517	507	0	0	
7	0	0	0	0	517	510	0	0	
8	0	0	0	0	516	509	0	0	
9	0	0	0	0	511	508	0	0	
10	0	0	0	0	511	508	0	0	
11	0	0	0	0	509	507	0	0	
12	0	0	0	0	509	505	0	0	
13	0	0	0	0	511	507	0	0	
14	0	0	0	0	505	505	0	0	
15	0	0	0	0	509	507	0	0	
0	0	0	0	0	510	507	0	0	
1	0	0	0	0	509	506	0	0	
2	0	0	0	0	513	508	0	0	
3	0	0	0	0	511	508	0	0	
4	0	0	0	0	511	510	0	0	
5	0	0	0	0	508	509	0	0	
6	0	0	0	0	511	508	0	0	
7	0	0	0	0	511	510	0	0	
8	0	0	0	0	516	508	0	0	
9	0	0	0	0	515	510	0	0	
10	0	0	0	0	509	509	0	0	
11	0	0	0	0	510	509	0	0	
12	0	0	0	0	512	509	0	0	
13	0	0	0	0	513	512	0	0	
14	0	0	0	0	512	505	0	0	
15	0	0	0	0	509	505	0	0	
0	0	0	0	0	507	506	0	0	
1	0	0	0	0	511	505	0	0	
2	0	0	0	0	511	509	0	0	
3	0	0	0	0	509	507	0	0	
4	0	0	0	0	510	509	0	0	
5	0	0	0	0	514	508	0	0	
6	0	0	0	0	511	508	0	0	
7	0	0	0	0	508	508	0	0	
8	0	0	0	0	505	507	0	0	
9	0	0	0	0	510	509	0	0	
10	0	0	0	0	512	507	0	0	
11	0	0	0	0	513	508	0	0	
12	0	0	0	0	514	511	0	0	
13	0	0	0	0	513	508	0	0	
14	0	0	0	0	513	509	0	0	
15	0	0	0	0	511	511	0	0	
0	0	0	0	0	510	508	0	0	
1	0	0	0	0	511	507	0	0	
2	0	0	0	0	513	507	0	0	
3	0	0	0	0	512	505	0	0	
4	0	0	0	0	511	507	0	0	
5	0	0	0	0	511	505	0	0	
6	0	0	0	0	511	506	0	0	
7	0	0	0	0	512	506	0	0	
8	0	0	0	0	510	507	0	0	
9	0	0	0	0	510	506	0	0	
10	0	0	0	0	510	509	0	0	
11	0	0	0	0	511	508	0	0	
12	0	0	0	0	512	510	0	0	
13	0	0	0	0	510	510	0	0	
14	0	0	0	0	510	508	0	0	
15	0	0	0	0	512	511	0	0	
0	0	0	0	0	515	508	0	0	
1	0	0	0	0	510	509	0	0	
2	0	0	0	0	511	509	0	0	
3	0	0	0	0	509	508	0	0	
4	0	0	0	0	511	508	0	0	
5	0	0	0	0	510	507	0	0	
6	0	0	0	0	510	507	0	0	
7	0	0	0	0	510	507	0	0	
8	0	0	0	0	513	507	0	0	
9	0	0	0	0	512	509	0	0	
10	0	0	0	0	511	507	0	0	
11	0	0	0	0	511	508	0	0	
12	0	0	0	0	512	508	0	0	
13	0	0	0	0	511	505	0	0	
14	0	0	0	0	510	508	0	0	
15	0	0	0	0	508	508	0	0	
0	0	0	0	0	506	508	0	0	
1	0	0	0	0	512	508	0	0	
2	0	0	0	0	512	508	0	0	
3	0	0	0	0	514	507	0	0	
4	0	0	0	0	515	508	0	0	
5	0	0	0	0	513	509	0	0	
6	0	0	0	0	512	508	0	0	
7	0	0	0	0	511	508	0	0	
8	0	0	0	0	508	508	0	0	
9	0	0	0	0	509	508	0	0	
10	0	0	0	0	511	510	0	0	
11	0	0	0	0	512	510	0	0	
12	0	0	0	0	509	506	0	0	
13	0	0	0	0	507	506	0	0	
14	0	0	0	0	508	507	0	0	
15	0	0	0	0	512	508	0	0	
0	0	0	0	0	509	505	0	0	
1	0	0	0	0	510	507	0	0	
2	0	0	0	0	507	509	0	0	
3	0	0	0	0	508	510	0	0	
4	0	0	0	0	512	509	0	0	
5	0	0	0	0	513	509	0	0	
6	0	0	0	0	513	509	0	0	
7	0	0	0	0	511	509	0	0	
8	0	0	0	0	513	509	0	0	
9	0	0	0	0	513	510	0	0	
10	0	0	0	0	512	509	0	0	
11	0	0	0	0	513	509	0	0	
12	0	0	0	0	512	509	0	0	
13	0	0	0	0	512	507	0	0	
14	0	0	0	0	511	507	0	0	
15	0	0	0	0	509	508	0	0	
0	0	0	0	0	511	507	0	0	
1	0	0	0	0	512	506	0	0	
2	0	0	0	0	511	507	0	0	
3	0	0	0	0	511	508	0	0	
4	0	0	0	0	511	508	0	0	
5	0	0	0	0	512	505	0	0	
6	0	0	0	0	509	507	0	0	
7	0	0	0	0	509	509	0	0	
8	0	0	0	0	511	511	0	0	
9	0	0	0	0	509	510	0	0	
10	0	0	0	0	505	508	0	0	
11	0	0	0	0	510	509	0	0	
12	0	0	0	0	510	510	0	0	
13	0	0	0	0	513	509	0	0	
14	0	0	0	0	514	508	0	0	
15	0	0	0	0	510	508	0	0	
0	0	0	0	0	511	511	0	0	
1	0	0	0	0	512	507	0	0	
2	0	0	0	0	513	508	0	0	
3	0	0	0	0	512	508	0	0	
4	0	0	0	0	511	505	0	0	
5	0	0	0	0	511	507	0	0	
6	0	0	0	0	508	507	0	0	
7	0	0	0	0	510	508	0	0	
8	0	0	0	0	511	508	0	0	
9	0	0	0	0	511	507	0	0	
10	0	0	0	0	511	507	0	0	
11	0	0	0	0	513	507	0	0	
12	0	0	0	0	514	510	0	0	
13	0	0	0	0	511	509	0	0	
14	0	0	0	0	506	510	0	0	
15	0	0	0	0	504	511	0	0	
0	0	0	0	0	507	511	0	0	
1	0	0	0	0	510	507	0	0	
2	0	0	0	0	513	506	0	0	
3	0	0	0	0	511	508	0	0	
4	0	0	0	0	512	507	0	0	
5	0	0	0	0	515	509	0	0	
6	0	0	0	0	517	507	0	0	
7	0	0	0	0	518	507	0	0	
8	0	0	0	0	514	506	0	0	
9	0	0	0	0	512	505	0	0	
10	0	0	0	0	510	508	0	0	
11	0	0	0	0	512	507	0	0	
12	0	0	0	0	508	508	0	0	
13	0	0	0	0	511	506	0	0	
14	0	0	0	0	510	507	0	0	
15	0	0	0	0	505	509	0	0	
0	0	0	0	0	506	510	0	0	
1	0	0	0	0	507	508	0	0	
2	0	0	0	0	510	508	0	0	
3	0	0	0	0	510	509	0	0	
4	0	0	0	0	512	510	0	0	
5	0	0	0	0	513	509	0	0	
6	0	0	0	0	511	510	0	0	
7	0	0	0	0	513	508	0	0	
8	0	0	0	0	511	508	0	0	
9	0	0	0	0	512	509	0	0	
10	0	0	0	0	513	508	0	0	
11	0	0	0	0	512	507	0	0	
12	0	0	0	0	517	504	0	0	
13	0	0	0	0	517	508	0	0	
14	0	0	0	0	512	505	0	0	
15	0	0	0	0	506	508	0	0	
0	0	0	0	0	505	507	0	0	
1	0	0	0	0	506	505	0	0	
2	0	0	0	0	507	506	0	0	
3	0	0	0	0	509	509	0	0	
4	0	0	0	0	511	508	0	0	
5	0	0	0	0	511	509	0	0	
6	0	0	0	0	509	509	0	0	
7	0	0	0	0	511	510	0	0	
8	0	0	0	0	515	508	0	0	
9	0	0	0	0	512	509	0	0	
10	0	0	0	0	515	509	0	0	
11	0	0	0	0	513	507	0	0	
12	0	0	0	0	514	509	0	0	
13	0	0	0	0	511	508	0	0	
14	0	0	0	0	513	510	0	0	
15	0	0	0	0	510	507	0	0	
0	0	0	0	0	512	508	0	0	
1	0	0	0	0	513	508	0	0	
2	0	0	0	0	510	507	0	0	
3	0	0	0	0	507	506	0	0	
4	0	0	0	0	509	507	0	0	
5	0	0	0	0	510	505	0	0	
6	0	0	0	0	510	508	0	0	
7	0	0	0	0	511	507	0	0	
8	0	0	0	0	513	508	0	0	
9	0	0	0	0	512	509	0	0	
10	0	0	0	0	513	512	0	0	
11	0	0	0	0	512	511	0	0	
12	0	0	0	0	511	510	0	0	
13	0	0	0	0	511	509	0	0	
14	0	0	0	0	512	508	0	0	
15	0	0	0	0	510	508	0	0	
0	0	0	0	0	509	508	0	0	
1	0	0	0	0	511	507	0	0	
2	0	0	0	0	510	508	0	0	
3	0	0	0	0	509	508	0	0	
4	0	0	0	0	511	507	0	0	
5	0	0	0	0	510	507	0	0	
6	0	0	0	0	513	508	0	0	
7	0	0	0	0	513	506	0	0	
8	0	0	0	0	513	508	0	0	
9	0	0	0	0	510	507	0	0	
10	0	0	0	0	509	508	0	0	
11	0	0	0	0	513	509	0	0	
12	0	0	0	0	513	509	0	0	
13	0	0	0	0	512	508	0	0	
14	0	0	0	0	508	509	0	0	
15	0	0	0	0	506	508	0	0	
0	0	0	0	0	506	509	0	0	
1	0	0	0	0	507	509	0	0	
2	0	0	0	0	508	507	0	0	
3	0	0	0	0	508	509	0	0	
4	0	0	0	0	509	508	0	0	
5	0	0	0	0	516	508	0	0	
6	0	0	0	0	518	509	0	0	
7	0	0	0	0	518	505	0	0	
8	0	0	0	0	512	507	0	0	
9	0	0	0	0	511	507	0	0	
10	0	0	0	0	512	506	0	0	
11	0	0	0	0	513	507	0	0	
12	0	0	0	0	511	507	0	0	
13	0	0	0	0	510	508	0	0	
14	0	0	0	0	511	509	0	0	
15	0	0	0	0	510	508	0	0	
0	0	0	0	0	512	510	0	0	
1	0	0	0	0	511	510	0	0	
2	0	0	0	0	510	509	0	0	
3	0	0	0	0	507	510	0	0	
4	0	0	0	0	508	509	0	0	
5	0	0	0	0	512	508	0	0	
6	0	0	0	0	512	508	0	0	
7	0	0	0	0	512	511	0	0	
8	0	0	0	0	511	511	0	0	
9	0	0	0	0	509	507	0	0	
10	0	0	0	0	513	508	0	0	
11	0	0	0	0	513	506	0	0	
12	0	0	0	0	509	507	0	0	
13	0	0	0	0	510	506	0	0	
14	0	0	0	0	512	506	0	0	
15	0	0	0	0	510	508	0	0	
0	0	0	0	0	508	507	0	0	
1	0	0	0	0	511	506	0	0	
2	0	0	0	0	511	507	0	0	
3	0	0	0	0	510	509	0	0	
4	0	0	0	0	509	507	0	0	
5	0	0	0	0	510	509	0	0	
6	0	0	0	0	510	510	0	0	
7	0	0	0	0	513	509	0	0	
8	0	0	0	0	514	511	0	0	
9	0	0	0	0	511	507	0	0	
10	0	0	0	0	512	507	0	0	
11	0	0	0	0	512	509	0	0	
12	0	0	0	0	510	508	0	0	
13	0	0	0	0	512	508	0	0	
14	0	0	0	0	510	506	0	0	
15	0	0	0	0	511	505	0	0	
0	0	0	0	0	515	506	0	0	
1	0	0	0	0	514	509	0	0	
2	0	0	0	0	511	508	0	0	
3	0	0	0	0	510	508	0	0	
4	0	0	0	0	508	507	0	0	
5	0	0	0	0	509	505	0	0	
6	0	0	0	0	513	508	0	0	
7	0	0	0	0	509	510	0	0	
8	0	0	0	0	507	508	0	0	
9	0	0	0	0	509	508	0	0	
10	0	0	0	0	513	510	0	0	
11	0	0	0	0	511	510	0	0	
12	0	0	0	0	510	511	0	0	
13	0	0	0	0	510	511	0	0	
14	0	0	0	0	509	509	0	0	
15	0	0	0	0	512	509	0	0	
0	0	0	0	0	511	508	0	0	
1	0	0	0	0	513	507	0	0	
2	0	0	0	0	511	508	0	0	
3	0	0	0	0	513	506	0	0	
4	0	0	0	0	508	506	0	0	
5	0	0	0	0	506	505	0	0	
6	0	0	0	0	508	507	0	0	
7	0	0	0	0	511	509	0	0	
8	0	0	0	0	512	507	0	0	
9	0	0	0	0	514	508	0	0	
10	0	0	0	0	514	509	0	0	
11	0	0	0	0	516	508	0	0	
12	0	0	0	0	515	510	0	0	
13	0	0	0	0	512	510	0	0	
14	0	0	0	0	512	510	0	0	
15	0	0	0	0	509	510	0	0	
0	0	0	0	0	511	510	0	0	
1	0	0	0	0	513	509	0	0	
2	0	0	0	0	512	507	0	0	
3	0	0	0	0	511	511	0	0	
4	0	0	0	0	511	508	0	0	
5	0	0	0	0	513	508	0	0	
6	0	0	0	0	510	506	0	0	
7	0	0	0	0	512	508	0	0	
8	0	0	0	0	512	506	0	0	
9	0	0	0	0	511	507	0	0	
10	0	0	0	0	511	508	0	0	
11	0	0	0	0	509	507	0	0	
12	0	0	0	0	509	507	0	0	
13	0	0	0	0	510	507	0	0	
14	0	0	0	0	511	507	0	0	
15	0	0	0	0	510	507	0	0	
0	0	0	0	0	507	508	0	0	
1	0	0	0	0	507	508	0	0	
2	0	0	0	0	509	508	0	0	
3	0	0	0	0	511	510	0	0	
4	0	0	0	0	510	509	0	0	
5	0	0	0	0	514	511	0	0	
6	0	0	0	0	513	509	0	0	
7	0	0	0	0	511	508	0	0	
8	0	0	0	0	512	510	0	0	
9	0	0	0	0	513	507	0	0	
10	0	0	0	0	513	507	0	0	
11	0	0	0	0	511	507	0	0	
12	0	0	0	0	510	508	0	0	
13	0	0	0	0	506	506	0	0	
14	0	0	0	0	509	508	0	0	
15	0	0	0	0	511	507	0	0	
0	0	0	0	0	510	506	0	0	
1	0	0	0	0	510	505	0	0	
2	0	0	0	0	510	508	0	0	
3	0	0	0	0	510	510	0	0	
4	0	0	0	0	511	510	0	0	
5	0	0	0	0	512	511	0	0	
6	0	0	0	0	507	511	0	0	
7	0	0	0	0	510	510	0	0	
8	0	0	0	0	511	508	0	0	
9	0	0	0	0	513	508	0	0	
10	0	0	0	0	510	509	0	0	
11	0	0	0	0	512	510	0	0	
12	0	0	0	0	511	512	0	0	
13	0	0	0	0	513	507	0	0	
14	0	0	0	0	513	507	0	0	
15	0	0	0	0	509	506	0	0	
0	0	0	0	0	513	506	0	0	
1	0	0	0	0	511	508	0	0	
2	0	0	0	0	514	507	0	0	
3	0	0	0	0	515	508	0	0	
4	0	0	0	0	513	507	0	0	
5	0	0	0	0	511	507	0	0	
6	0	0	0	0	509	507	0	0	
7	0	0	0	0	505	509	0	0	
8	0	0	0	0	507	509	0	0	
9	0	0	0	0	509	510	0	0	
10	0	0	0	0	512	511	0	0	
11	0	0	0	0	511	508	0	0	
12	0	0	0	0	512	509	0	0	
13	0	0	0	0	513	508	0	0	
14	0	0	0	0	511	508	0	0	
15	0	0	0	0	513	511	0	0	
0	0	0	0	0	513	509	0	0	
1	0	0	0	0	511	508	0	0	
2	0	0	0	0	513	504	0	0	
3	0	0	0	0	513	507	0	0	
4	0	0	0	0	512	507	0	0	
5	0	0	0	0	507	506	0	0	
6	0	0	0	0	509	507	0	0	
7	0	0	0	0	508	509	0	0	
8	0	0	0	0	506	505	0	0	
9	0	0	0	0	510	507	0	0	
10	0	0	0	0	515	509	0	0	
11	0	0	0	0	516	509	0	0	
12	0	0	0	0	514	508	0	0	
13	0	0	0	0	515	508	0	0	
14	0	0	0	0	511	509	0	0	
15	0	0	0	0	508	510	0	0	
0	0	0	0	0	508	510	0	0	
1	0	0	0	0	507	508	0	0	
2	0	0	0	0	511	508	0	0	
3	0	0	0	0	511	510	0	0	
4	0	0	0	0	508	507	0	0	
5	0	0	0	0	512	506	0	0	
6	0	0	0	0	507	507	0	0	
7	0	0	0	0	509	508	0	0	
8	0	0	0	0	512	508	0	0	
9	0	0	0	0	510	505	0	0	
10	0	0	0	0	515	507	0	0	
11	0	0	0	0	514	509	0	0	
12	0	0	0	0	513	510	0	0	
13	0	0	0	0	513	506	0	0	
14	0	0	0	0	509	505	0	0	
15	0	0	0	0	509	507	0	0	
0	0	0	0	0	510	510	0	0	
1	0	0	0	0	513	507	0	0	
2	0	0	0	0	512	510	0	0	
3	0	0	0	0	510	509	0	0	
4	0	0	0	0	510	510	0	0	
5	0	0	0	0	510	509	0	0	
6	0	0	0	0	510	509	0	0	
7	0	0	0	0	508	508	0	0	
8	0	0	0	0	509	511	0	0	
9	0	0	0	0	511	508	0	0	
10	0	0	0	0	512	508	0	0	
11	0	0	0	0	513	508	0	0	
12	0	0	0	0	514	507	0	0	
13	0	0	0	0	511	507	0	0	
14	0	0	0	0	511	507	0	0	
15	0	0	0	0	514	506	0	0	
0	0	0	0	0	510	508	0	0	
1	0	0	0	0	509	507	0	0	
2	0	0	0	0	508	506	0	0	
3	0	0	0	0	509	507	0	0	
4	0	0	0	0	510	509	0	0	
5	0	0	0	0	512	510	0	0	
6	0	0	0	0	512	508	0	0	
7	0	0	0	0	510	510	0	0	
8	0	0	0	0	508	511	0	0	
9	0	0	0	0	510	509	0	0	
10	0	0	0	0	514	509	0	0	
11	0	0	0	0	513	507	0	0	
12	0	0	0	0	512	508	0	0	
13	0	0	0	0	513	508	0	0	
14	0	0	0	0	515	508	0	0	
15	0	0	0	0	514	507	0	0	
0	0	0	0	0	510	508	0	0	
1	0	0	0	0	510	508	0	0	
2	0	0	0	0	510	509	0	0	
3	0	0	0	0	513	507	0	0	
4	0	0	0	0	513	507	0	0	
5	0	0	0	0	512	506	0	0	
6	0	0	0	0	510	509	0	0	
7	0	0	0	0	510	507	0	0	
8	0	0	0	0	510	510	0	0	
9	0	0	0	0	511	510	0	0	
10	0	0	0	0	509	510	0	0	
11	0	0	0	0	509	509	0	0	
12	0	0	0	0	508	508	0	0	
13	0	0	0	0	509	508	0	0	
14	0	0	0	0	508	507	0	0	
15	0	0	0	0	509	508	0	0	
0	0	0	0	0	513	508	0	0	
1	0	0	0	0	515	506	0	0	
2	0	0	0	0	515	507	0	0	
3	0	0	0	0	516	508	0	0	
4	0	0	0	0	515	506	0	0	
5	0	0	0	0	516	508	0	0	
6	0	0	0	0	514	511	0	0	
7	0	0	0	0	509	506	0	0	
8	0	0	0	0	507	509	0	0	
9	0	0	0	0	506	505	0	0	
10	0	0	0	0	510	508	0	0	
11	0	0	0	0	511	509	0	0	
12	0	0	0	0	508	509	0	0	
13	0	0	0	0	507	508	0	0	
14	0	0	0	0	508	510	0	0	
15	0	0	0	0	511	511	0	0	
0	0	0	0	0	513	508	0	0	
1	0	0	0	0	513	508	0	0	
2	0	0	0	0	510	508	0	0	
3	0	0	0	0	511	509	0	0	
4	0	0	0	0	511	507	0	0	
5	0	0	0	0	513	507	0	0	
6	0	0	0	0	511	508	0	0	
7	0	0	0	0	512	507	0	0	
8	0	0	0	0	512	508	0	0	
9	0	0	0	0	511	508	0	0	
10	0	0	0	0	514	508	0	0	
11	0	0	0	0	511	508	0	0	
12	0	0	0	0	509	509	0	0	
13	0	0	0	0	508	506	0	0	
14	0	0	0	0	511	509	0	0	
15	0	0	0	0	510	509	0	0	
0	0	0	0	0	508	510	0	0	
1	0	0	0	0	509	508	0	0	
2	0	0	0	0	507	508	0	0	
3	0	0	0	0	510	511	0	0	
4	0	0	0	0	512	508	0	0	
5	0	0	0	0	513	509	0	0	
6	0	0	0	0	509	509	0	0	
7	0	0	0	0	508	508	0	0	
8	0	0	0	0	510	507	0	0	
9	0	0	0	0	513	508	0	0	
10	0	0	0	0	514	507	0	0	
11	0	0	0	0	511	508	0	0	
12	0	0	0	0	512	506	0	0	
13	0	0	0	0	511	509	0	0	
14	0	0	0	0	513	505	0	0	
15	0	0	0	0	511	506	0	0	
0	0	0	0	0	511	507	0	0	
1	0	0	0	0	511	505	0	0	
2	0	0	0	0	509	506	0	0	
3	0	0	0	0	511	510	0	0	
4	0	0	0	0	511	509	0	0	
5	0	0	0	0	510	508	0	0	
6	0	0	0	0	513	509	0	0	
7	0	0	0	0	511	509	0	0	
8	0	0	0	0	513	509	0	0	
9	0	0	0	0	514	511	0	0	
10	0	0	0	0	511	509	0	0	
11	0	0	0	0	511	510	0	0	
12	0	0	0	0	510	508	0	0	
13	0	0	0	0	510	507	0	0	
14	0	0	0	0	513	510	0	0	
15	0	0	0	0	515	509	0	0	
0	0	0	0	0	509	504	0	0	
1	0	0	0	0	508	506	0	0	
2	0	0	0	0	510	508	0	0	
3	0	0	0	0	511	507	0	0	
4	0	0	0	0	511	510	0	0	
5	0	0	0	0	510	506	0	0	
6	0	0	0	0	511	508	0	0	
7	0	0	0	0	509	507	0	0	
8	0	0	0	0	509	510	0	0	
9	0	0	0	0	509	507	0	0	
10	0	0	0	0	511	508	0	0	
11	0	0	0	0	511	510	0	0	
12	0	0	0	0	511	509	0	0	
13	0	0	0	0	512	510	0	0	
14	0	0	0	0	511	508	0	0	
15	0	0	0	0	512	510	0	0	
0	0	0	0	0	513	510	0	0	
1	0	0	0	0	511	508	0	0	
2	0	0	0	0	512	510	0	0	
3	0	0	0	0	515	505	0	0	
4	0	0	0	0	510	506	0	0	
5	0	0	0	0	511	507	0	0	
6	0	0	0	0	511	507	0	0	
7	0	0	0	0	511	506	0	0	
8	0	0	0	0	510	506	0	0	
9	0	0	0	0	512	507	0	0	
10	0	0	0	0	511	506	0	0	
11	0	0	0	0	507	509	0	0	
12	0	0	0	0	505	510	0	0	
13	0	0	0	0	510	509	0	0	
14	0	0	0	0	511	510	0	0	
15	0	0	0	0	510	507	0	0	
0	0	0	0	0	511	510	0	0	
1	0	0	0	0	515	508	0	0	
2	0	0	0	0	517	507	0	0	
3	0	0	0	0	513	509	0	0	
4	0	0	0	0	510	508	0	0	
5	0	0	0	0	509	509	0	0	
6	0	0	0	0	511	508	0	0	
7	0	0	0	0	513	507	0	0	
8	0	0	0	0	515	507	0	0	
9	0	0	0	0	514	505	0	0	
10	0	0	0	0	512	507	0	0	
11	0	0	0	0	513	507	0	0	
12	0	0	0	0	508	505	0	0	
13	0	0	0	0	508	507	0	0	
14	0	0	0	0	511	506	0	0	
15	0	0	0	0	508	509	0	0	
0	0	0	0	0	508	511	0	0	
1	0	0	0	0	509	511	0	0	
2	0	0	0	0	508	512	0	0	
3	0	0	0	0	512	511	0	0	
4	0	0	0	0	511	509	0	0	
5	0	0	0	0	513	509	0	0	
6	0	0	0	0	513	507	0	0	
7	0	0	0	0	512	511	0	0	
8	0	0	0	0	510	509	0	0	
9	0	0	0	0	510	509	0	0	
10	0	0	0	0	511	506	0	0	
11	0	0	0	0	511	507	0	0	
12	0	0	0	0	512	506	0	0	
13	0	0	0	0	510	507	0	0	
14	0	0	0	0	512	508	0	0	
15	0	0	0	0	514	508	0	0	
0	0	0	0	0	511	507	0	0	
1	0	0	0	0	509	506	0	0	
2	0	0	0	0	508	507	0	0	
3	0	0	0	0	509	507	0	0	
4	0	0	0	0	511	507	0	0	
5	0	0	0	0	511	507	0	0	
6	0	0	0	0	513	511	0	0	
7	0	0	0	0	511	509	0	0	
8	0	0	0	0	511	510	0	0	
9	0	0	0	0	511	510	0	0	
10	0	0	0	0	511	508	0	0	
11	0	0	0	0	510	507	0	0	
12	0	0	0	0	512	508	0	0	
13	0	0	0	0	513	506	0	0	
14	0	0	0	0	512	510	0	0	
15	0	0	0	0	512	509	0	0	
0	0	0	0	0	511	504	0	0	
1	0	0	0	0	511	507	0	0	
2	0	0	0	0	512	508	0	0	
3	0	0	0	0	510	505	0	0	
4	0	0	0	0	511	508	0	0	
5	0	0	0	0	511	506	0	0	
6	0	0	0	0	511	508	0	0	
7	0	0	0	0	511	508	0	0	
8	0	0	0	0	511	508	0	0	
9	0	0	0	0	511	511	0	0	
10	0	0	0	0	511	510	0	0	
11	0	0	0	0	512	511	0	0	
12	0	0	0	0	512	510	0	0	
13	0	0	0	0	508	510	0	0	
14	0	0	0	0	507	509	0	0	
15	0	0	0	0	511	507	0	0	
0	0	0	0	0	511	508	0	0	
1	0	0	0	0	510	510	0	0	
2	0	0	0	0	510	507	0	0	
3	0	0	0	0	508	504	0	0	
4	0	0	0	0	507	505	0	0	
5	0	0	0	0	510	506	0	0	
6	0	0	0	0	515	507	0	0	
7	0	0	0	0	518	509	0	0	
8	0	0	0	0	515	509	0	0	
9	0	0	0	0	511	507	0	0	
10	0	0	0	0	508	507	0	0	
11	0	0	0	0	509	508	0	0	
12	0	0	0	0	510	508	0	0	
13	0	0	0	0	511	510	0	0	
14	0	0	0	0	509	511	0	0	
15	0	0	0	0	511	507	0	0	
0	0	0	0	0	512	510	0	0	
1	0	0	0	0	514	512	0	0	
2	0	0	0	0	513	508	0	0	
3	0	0	0	0	509	508	0	0	
4	0	0	0	0	513	509	0	0	
5	0	0	0	0	514	507	0	0	
6	0	0	0	0	515	508	0	0	
7	0	0	0	0	512	508	0	0	
8	0	0	0	0	511	505	0	0	
9	0	0	0	0	510	507	0	0	
10	0	0	0	0	509	507	0	0	
11	0	0	0	0	508	509	0	0	
12	0	0	0	0	510	509	0	0	
13	0	0	0	0	513	508	0	0	
14	0	0	0	0	508	507	0	0	
15	0	0	0	0	510	508	0	0	
0	0	0	0	0	507	508	0	0	
1	0	0	0	0	510	510	0	0	
2	0	0	0	0	510	508	0	0	
3	0	0	0	0	511	510	0	0	
4	0	0	0	0	512	509	0	0	
5	0	0	0	0	514	510	0	0	
6	0	0	0	0	512	508	0	0	
7	0	0	0	0	511	510	0	0	
8	0	0	0	0	512	509	0	0	
9	0	0	0	0	511	510	0	0	
10	0	0	0	0	511	508	0	0	
11	0	0	0	0	511	506	0	0	
12	0	0	0	0	511	507	0	0	
13	0	0	0	0	511	508	0	0	
14	0	0	0	0	508	507	0	0	
15	0	0	0	0	510	509	0	0	
0	0	0	0	0	511	508	0	0	
1	0	0	0	0	511	507	0	0	
2	0	0	0	0	511	509	0	0	
3	0	0	0	0	513	508	0	0	
4	0	0	0	0	513	508	0	0	
5	0	0	0	0	512	509	0	0	
6	0	0	0	0	510	509	0	0	
7	0	0	0	0	509	510	0	0	
8	0	0	0	0	513	510	0	0	
9	0	0	0	0	513	509	0	0	
10	0	0	0	0	512	508	0	0	
11	0	0	0	0	510	509	0	0	
12	0	0	0	0	511	507	0	0	
13	0	0	0	0	511	508	0	0	
14	0	0	0	0	512	507	0	0	
15	0	0	0	0	513	507	0	0	
0	0	0	0	0	512	505	0	0	
1	0	0	0	0	512	505	0	0	
2	0	0	0	0	511	508	0	0	
3	0	0	0	0	508	507	0	0	
4	0	0	0	0	508	506	0	0	
5	0	0	0	0	509	506	0	0	
6	0	0	0	0	510	506	0	0	
7	0	0	0	0	507	509	0	0	
8	0	0	0	0	512	510	0	0	
9	0	0	0	0	511	509	0	0	
10	0	0	0	0	510	510	0	0	
11	0	0	0	0	512	510	0	0	
12	0	0	0	0	513	511	0	0	
13	0	0	0	0	516	510	0	0	
14	0	0	0	0	511	509	0	0	
15	0	0	0	0	510	510	0	0	
0	0	0	0	0	511	507	0	0	
1	0	0	0	0	512	508	0	0	
2	0	0	0	0	513	507	0	0	
3	0	0	0	0	512	506	0	0	
4	0	0	0	0	510	507	0	0	
5	0	0	0	0	511	508	0	0	
6	0	0	0	0	511	507	0	0	
7	0	0	0	0	510	506	0	0	
8	0	0	0	0	511	507	0	0	
9	0	0	0	0	513	508	0	0	
10	0	0	0	0	513	508	0	0	
11	0	0	0	0	509	508	0	0	
12	0	0	0	0	507	508	0	0	
13	0	0	0	0	505	507	0	0	
14	0	0	0	0	503	510	0	0	
15	0	0	0	0	505	508	0	0	
0	0	0	0	0	509	508	0	0	
1	0	0	0	0	512	508	0	0	
2	0	0	0	0	511	509	0	0	
3	0	0	0	0	512	508	0	0	
4	0	0	0	0	514	509	0	0	
5	0	0	0	0	517	508	0	0	
6	0	0	0	0	516	508	0	0	
7	0	0	0	0	513	507	0	0	
8	0	0	0	0	511	505	0	0	
9	0	0	0	0	508	505	0	0	
10	0	0	0	0	511	507	0	0	
11	0	0	0	0	511	508	0	0	
12	0	0	0	0	511	506	0	0	
13	0	0	0	0	512	510	0	0	
14	0	0	0	0	510	510	0	0	
15	0	0	0	0	510	509	0	0	
0	0	0	0	0	510	509	0	0	
1	0	0	0	0	510	508	0	0	
2	0	0	0	0	511	511	0	0	
3	0	0	0	0	509	508	0	0	
4	0	0	0	0	509	506	0	0	
5	0	0	0	0	511	508	0	0	
6	0	0	0	0	512	511	0	0	
7	0	0	0	0	511	511	0	0	
8	0	0	0	0	512	508	0	0	
9	0	0	0	0	512	507	0	0	
10	0	0	0	0	511	507	0	0	
11	0	0	0	0	511	506	0	0	
12	0	0	0	0	512	506	0	0	
13	0	0	0	0	513	507	0	0	
14	0	0	0	0	510	507	0	0	
15	0	0	0	0	510	509	0	0	
0	0	0	0	0	507	507	0	0	
1	0	0	0	0	506	506	0	0	
2	0	0	0	0	509	508	0	0	
3	0	0	0	0	511	508	0	0	
4	0	0	0	0	512	511	0	0	
5	0	0	0	0	508	510	0	0	
6	0	0	0	0	513	509	0	0	
7	0	0	0	0	513	509	0	0	
8	0	0	0	0	513	508	0	0	
9	0	0	0	0	512	508	0	0	
10	0	0	0	0	512	509	0	0	
11	0	0	0	0	512	509	0	0	
12	0	0	0	0	510	508	0	0	
13	0	0	0	0	512	509	0	0	
14	0	0	0	0	512	507	0	0	
15	0	0	0	0	513	506	0	0	
0	0	0	0	0	513	505	0	0	
1	0	0	0	0	511	506	0	0	
2	0	0	0	0	512	508	0	0	
3	0	0	0	0	510	508	0	0	
4	0	0	0	0	508	508	0	0	
5	0	0	0	0	510	506	0	0	
6	0	0	0	0	511	508	0	0	
7	0	0	0	0	511	508	0	0	
8	0	0	0	0	510	509	0	0	
9	0	0	0	0	511	510	0	0	
10	0	0	0	0	509	509	0	0	
11	0	0	0	0	511	509	0	0	
12	0	0	0	0	512	509	0	0	
13	0	0	0	0	512	509	0	0	
14	0	0	0	0	511	509	0	0	
15	0	0	0	0	511	510	0	0	
0	0	0	0	0	511	507	0	0	
1	0	0	0	0	509	506	0	0	
2	0	0	0	0	509	508	0	0	
3	0	0	0	0	509	506	0	0	
4	0	0	0	0	510	507	0	0	
5	0	0	0	0	512	509	0	0	
6	0	0	0	0	519	508	0	0	
7	0	0	0	0	518	509	0	0	
8	0	0	0	0	512	507	0	0	
9	0	0	0	0	511	506	0	0	
10	0	0	0	0	507	507	0	0	
11	0	0	0	0	508	509	0	0	
12	0	0	0	0	509	510	0	0	
13	0	0	0	0	509	509	0	0	
14	0	0	0	0	509	510	0	0	
15	0	0	0	0	509	511	0	0	
0	0	0	0	0	510	508	0	0	
1	0	0	0	0	515	507	0	0	
2	0	0	0	0	514	508	0	0	
3	0	0	0	0	511	508	0	0	
4	0	0	0	0	513	508	0	0	
5	0	0	0	0	508	505	0	0	
6	0	0	0	0	507	506	0	0	
7	0	0	0	0	513	510	0	0	
8	0	0	0	0	511	506	0	0	
9	0	0	0	0	510	509	0	0	
10	0	0	0	0	509	508	0	0	
11	0	0	0	0	507	508	0	0	
12	0	0	0	0	508	508	0	0	
13	0	0	0	0	511	509	0	0	
14	0	0	0	0	509	507	0	0	
15	0	0	0	0	508	507	0	0	
0	0	0	0	0	511	509	0	0	
1	0	0	0	0	512	509	0	0	
2	0	0	0	0	512	510	0	0	
3	0	0	0	0	512	508	0	0	
4	0	0	0	0	514	509	0	0	
5	0	0	0	0	513	509	0	0	
6	0	0	0	0	512	511	0	0	
7	0	0	0	0	512	510	0	0	
8	0	0	0	0	512	508	0	0	
9	0	0	0	0	513	505	0	0	
10	0	0	0	0	513	508	0	0	
11	0	0	0	0	512	507	0	0	
12	0	0	0	0	511	506	0	0	
13	0	0	0	0	509	507	0	0	
14	0	0	0	0	511	508	0	0	
15	0	0	0	0	508	507	0	0	
0	0	0	0	0	510	508	0	0	
1	0	0	0	0	511	506	0	0	
2	0	0	0	0	507	508	0	0	
3	0	0	0	0	510	510	0	0	
4	0	0	0	0	509	510	0	0	
5	0	0	0	0	511	507	0	0	
6	0	0	0	0	511	508	0	0	
7	0	0	0	0	512	509	0	0	
8	0	0	0	0	513	508	0	0	
9	0	0	0	0	512	510	0	0	
10	0	0	0	0	511	508	0	0	
11	0	0	0	0	512	509	0	0	
12	0	0	0	0	510	510	0	0	
13	0	0	0	0	511	507	0	0	
14	0	0	0	0	511	508	0	0	
15	0	0	0	0	510	509	0	0	
0	0	0	0	0	513	506	0	0	
1	0	0	0	0	512	507	0	0	
2	0	0	0	0	510	507	0	0	
3	0	0	0	0	510	508	0	0	
4	0	0	0	0	510	508	0	0	
5	0	0	0	0	511	507	0	0	
6	0	0	0	0	511	507	0	0	
7	0	0	0	0	508	508	0	0	
8	0	0	0	0	510	510	0	0	
9	0	0	0	0	514	507	0	0	
10	0	0	0	0	512	508	0	0	
11	0	0	0	0	511	509	0	0	
12	0	0	0	0	512	510	0	0	
13	0	0	0	0	512	508	0	0	
14	0	0	0	0	511	506	0	0	
15	0	0	0	0	511	508	0	0	
0	0	0	0	0	514	510	0	0	
1	0	0	0	0	513	509	0	0	
2	0	0	0	0	509	509	0	0	
3	0	0	0	0	510	508	0	0	
4	0	0	0	0	510	504	0	0	
5	0	0	0	0	511	506	0	0	
6	0	0	0	0	510	508	0	0	
7	0	0	0	0	511	507	0	0	
8	0	0	0	0	512	508	0	0	
9	0	0	0	0	508	506	0	0	
10	0	0	0	0	508	505	0	0	
11	0	0	0	0	508	508	0	0	
12	0	0	0	0	507	509	0	0	
13	0	0	0	0	509	510	0	0	
14	0	0	0	0	510	509	0	0	
15	0	0	0	0	518	509	0	0	
0	0	0	0	0	515	508	0	0	
1	0	0	0	0	516	510	0	0	
2	0	0	0	0	508	508	0	0	
3	0	0	0	0	509	508	0	0	
4	0	0	0	0	511	508	0	0	
5	0	0	0	0	512	507	0	0	
6	0	0	0	0	515	509	0	0	
7	0	0	0	0	513	507	0	0	
8	0	0	0	0	513	505	0	0	
9	0	0	0	0	510	506	0	0	
10	0	0	0	0	513	508	0	0	
11	0	0	0	0	513	507	0	0	
12	0	0	0	0	510	507	0	0	
13	0	0	0	0	511	508	0	0	
14	0	0	0	0	509	508	0	0	
15	0	0	0	0	510	509	0	0	
0	0	0	0	0	509	509	0	0	
1	0	0	0	0	509	510	0	0	
2	0	0	0	0	511	510	0	0	
3	0	0	0	0	509	510	0	0	
4	0	0	0	0	509	511	0	0	
5	0	0	0	0	511	510	0	0	
6	0	0	0	0	513	509	0	0	
7	0	0	0	0	513	510	0	0	
8	0	0	0	0	512	508	0	0	
9	0	0	0	0	510	509	0	0	
10	0	0	0	0	509	507	0	0	
11	0	0	0	0	510	505	0	0	
12	0	0	0	0	507	506	0	0	
13	0	0	0	0	510	505	0	0	
14	0	0	0	0	508	507	0	0	
15	0	0	0	0	509	508	0	0	
0	0	0	0	0	514	508	0	0	
1	0	0	0	0	513	506	0	0	
2	0	0	0	0	513	508	0	0	
3	0	0	0	0	511	508	0	0	
4	0	0	0	0	511	509	0	0	
5	0	0	0	0	509	510	0	0	
6	0	0	0	0	509	511	0	0	
7	0	0	0	0	513	510	0	0	
8	0	0	0	0	514	510	0	0	
9	0	0	0	0	513	510	0	0	
10	0	0	0	0	510	509	0	0	
11	0	0	0	0	508	508	0	0	
12	0	0	0	0	511	507	0	0	
13	0	0	0	0	514	508	0	0	
14	0	0	0	0	513	508	0	0	
15	0	0	0	0	514	507	0	0	
0	0	0	0	0	515	507	0	0	
1	0	0	0	0	512	507	0	0	
2	0	0	0	0	511	508	0	0	
3	0	0	0	0	509	507	0	0	
4	0	0	0	0	510	510	0	0	
5	0	0	0	0	509	507	0	0	
6	0	0	0	0	510	507	0	0	
7	0	0	0	0	509	507	0	0	
8	0	0	0	0	507	507	0	0	
9	0	0	0	0	507	507	0	0	
10	0	0	0	0	510	511	0	0	
11	0	0	0	0	513	510	0	0	
12	0	0	0	0	513	508	0	0	
13	0	0	0	0	514	508	0	0	
14	0	0	0	0	510	508	0	0	
15	0	0	0	0	507	509	0	0	
0	0	0	0	0	512	509	0	0	
1	0	0	0	0	513	508	0	0	
2	0	0	0	0	512	508	0	0	
3	0	0	0	0	511	506	0	0	
4	0	0	0	0	512	507	0	0	
5	0	0	0	0	511	509	0	0	
6	0	0	0	0	515	507	0	0	
7	0	0	0	0	511	507	0	0	
8	0	0	0	0	509	507	0	0	
9	0	0	0	0	510	506	0	0	
10	0	0	0	0	509	510	0	0	
11	0	0	0	0	511	510	0	0	
12	0	0	0	0	510	508	0	0	
13	0	0	0	0	508	508	0	0	
14	0	0	0	0	508	509	0	0	
15	0	0	0	0	514	512	0	0	
0	0	0	0	0	511	508	0	0	
1	0	0	0	0	511	508	0	0	
2	0	0	0	0	507	509	0	0	
3	0	0	0	0	508	512	0	0	
4	0	0	0	0	515	510	0	0	
5	0	0	0	0	513	505	0	0	
6	0	0	0	0	512	508	0	0	
7	0	0	0	0	516	507	0	0	
8	0	0	0	0	515	505	0	0	
9	0	0	0	0	513	506	0	0	
10	0	0	0	0	511	508	0	0	
11	0	0	0	0	511	507	0	0	
12	0	0	0	0	510	505	0	0	
13	0	0	0	0	510	506	0	0	
14	0	0	0	0	512	508	0	0	
15	0	0	0	0	510	507	0	0	
0	0	0	0	0	511	508	0	0	
1	0	0	0	0	508	508	0	0	
2	0	0	0	0	509	510	0	0	
3	0	0	0	0	510	510	0	0	
4	0	0	0	0	511	508	0	0	
5	0	0	0	0	512	510	0	0	
6	0	0	0	0	511	509	0	0	
7	0	0	0	0	510	510	0	0	
8	0	0	0	0	509	508	0	0	
9	0	0	0	0	511	509	0	0	
10	0	0	0	0	512	508	0	0	
11	0	0	0	0	510	508	0	0	
12	0	0	0	0	512	505	0	0	
13	0	0	0	0	508	507	0	0	
14	0	0	0	0	510	507	0	0	
15	0	0	0	0	513	508	0	0	
0	0	0	0	0	512	508	0	0	
1	0	0	0	0	509	508	0	0	
2	0	0	0	0	512	505	0	0	
3	0	0	0	0	511	509	0	0	
4	0	0	0	0	513	510	0	0	
5	0	0	0	0	510	508	0	0	
6	0	0	0	0	507	509	0	0	
7	0	0	0	0	512	509	0	0	
8	0	0	0	0	514	508	0	0	
9	0	0	0	0	512	508	0	0	
10	0	0	0	0	509	510	0	0	
11	0	0	0	0	512	510	0	0	
12	0	0	0	0	509	510	0	0	
13	0	0	0	0	511	507	0	0	
14	0	0	0	0	515	508	0	0	
15	0	0	0	0	511	508	0	0	
0	0	0	0	0	510	507	0	0	
1	0	0	0	0	509	507	0	0	
2	0	0	0	0	510	508	0	0	
3	0	0	0	0	511	508	0	0	
4	0	0	0	0	511	509	0	0	
5	0	0	0	0	511	507	0	0	
6	0	0	0	0	511	507	0	0	
7	0	0	0	0	511	508	0	0	
8	0	0	0	0	509	508	0	0	
9	0	0	0	0	511	506	0	0	
10	0	0	0	0	507	509	0	0	
11	0	0	0	0	511	512	0	0	
12	0	0	0	0	509	508	0	0	
13	0	0	0	0	513	509	0	0	
14	0	0	0	0	511	509	0	0	
15	0	0	0	0	511	510	0	0	
0	0	0	0	0	514	507	0	0	
1	0	0	0	0	514	507	0	0	
2	0	0	0	0	510	508	0	0	
3	0	0	0	0	512	509	0	0	
4	0	0	0	0	515	507	0	0	
5	0	0	0	0	510	506	0	0	
6	0	0	0	0	510	507	0	0	
7	0	0	0	0	510	506	0	0	
8	0	0	0	0	512	507	0	0	
9	0	0	0	0	510	510	0	0	
10	0	0	0	0	512	510	0	0	
11	0	0	0	0	509	507	0	0	
12	0	0	0	0	508	510	0	0	
13	0	0	0	0	511	512	0	0	
14	0	0	0	0	511	510	0	0	
15	0	0	0	0	508	510	0	0	
0	0	0	0	0	511	508	0	0	
1	0	0	0	0	509	506	0	0	
2	0	0	0	0	511	506	0	0	
3	0	0	0	0	508	510	0	0	
4	0	0	0	0	511	509	0	0	
5	0	0	0	0	514	508	0	0	
6	0	0	0	0	515	506	0	0	
7	0	0	0	0	514	507	0	0	
8	0	0	0	0	513	505	0	0	
9	0	0	0	0	514	504	0	0	
10	0	0	0	0	512	506	0	0	
11	0	0	0	0	511	508	0	0	
12	0	0	0	0	509	508	0	0	
13	0	0	0	0	513	508	0	0	
14	0	0	0	0	511	507	0	0	
15	0	0	0	0	509	508	0	0	
0	0	0	0	0	512	510	0	0	
1	0	0	0	0	512	508	0	0	
2	0	0	0	0	509	511	0	0	
3	0	0	0	0	508	510	0	0	
4	0	0	0	0	507	511	0	0	
5	0	0	0	0	509	508	0	0	
6	0	0	0	0	513	509	0	0	
7	0	0	0	0	513	509	0	0	
8	0	0	0	0	510	508	0	0	
9	0	0	0	0	513	506	0	0	
10	0	0	0	0	511	507	0	0	
11	0	0	0	0	511	506	0	0	
12	0	0	0	0	510	505	0	0	
13	0	0	0	0	509	507	0	0	
14	0	0	0	0	510	507	0	0	
15	0	0	0	0	510	508	0	0	
0	0	0	0	0	512	508	0	0	
1	0	0	0	0	512	506	0	0	
2	0	0	0	0	511	508	0	0	
3	0	0	0	0	509	508	0	0	
4	0	0	0	0	505	508	0	0	
5	0	0	0	0	511	507	0	0	
6	0	0	0	0	513	509	0	0	
7	0	0	0	0	512	509	0	0	
8	0	0	0	0	513	508	0	0	
9	0	0	0	0	515	511	0	0	
10	0	0	0	0	515	509	0	0	
11	0	0	0	0	512	508	0	0	
12	0	0	0	0	510	509	0	0	
13	0	0	0	0	511	508	0	0	
14	0	0	0	0	513	506	0	0	
15	0	0	0	0	512	507	0	0	
0	0	0	0	0	511	507	0	0	
1	0	0	0	0	508	507	0	0	
2	0	0	0	0	511	508	0	0	
3	0	0	0	0	511	508	0	0	
4	0	0	0	0	507	506	0	0	
5	0	0	0	0	507	507	0	0	
6	0	0	0	0	508	506	0	0	
7	0	0	0	0	511	508	0	0	
8	0	0	0	0	511	510	0	0	
9	0	0	0	0	513	508	0	0	
10	0	0	0	0	510	510	0	0	
11	0	0	0	0	510	509	0	0	
12	0	0	0	0	511	510	0	0	
13	0	0	0	0	511	511	0	0	
14	0	0	0	0	510	507	0	0	
15	0	0	0	0	510	509	0	0	
0	0	0	0	0	511	509	0	0	
1	0	0	0	0	512	509	0	0	
2	0	0	0	0	515	508	0	0	
3	0	0	0	0	513	508	0	0	
4	0	0	0	0	511	504	0	0	
5	0	0	0	0	512	504	0	0	
6	0	0	0	0	515	507	0	0	
7	0	0	0	0	510	505	0	0	
8	0	0	0	0	511	507	0	0	
9	0	0	0	0	511	507	0	0	
10	0	0	0	0	512	508	0	0	
11	0	0	0	0	513	509	0	0	
12	0	0	0	0	512	510	0	0	
13	0	0	0	0	509	508	0	0	
14	0	0	0	0	507	509	0	0	
15	0	0	0	0	508	511	0	0	
0	0	0	0	0	508	510	0	0	
1	0	0	0	0	510	508	0	0	
2	0	0	0	0	512	507	0	0	
3	0	0	0	0	514	508	0	0	
4	0	0	0	0	516	510	0	0	
5	0	0	0	0	516	508	0	0	
6	0	0	0	0	513	508	0	0	
7	0	0	0	0	510	507	0	0	
8	0	0	0	0	510	507	0	0	
9	0	0	0	0	511	507	0	0	
10	0	0	0	0	512	507	0	0	
11	0	0	0	0	512	507	0	0	
12	0	0	0	0	509	507	0	0	
13	0	0	0	0	511	508	0	0	
14	0	0	0	0	509	507	0	0	
15	0	0	0	0	509	509	0	0	
0	0	0	0	0	508	509	0	0	
1	0	0	0	0	510	510	0	0	
2	0	0	0	0	508	512	0	0	
3	0	0	0	0	510	508	0	0	
4	0	0	0	0	513	510	0	0	
5	0	0	0	0	513	509	0	0	
6	0	0	0	0	512	510	0	0	
7	0	0	0	0	512	509	0	0	
8	0	0	0	0	510	508	0	0	
9	0	0	0	0	510	508	0	0	
10	0	0	0	0	511	507	0	0	
11	0	0	0	0	511	506	0	0	
12	0	0	0	0	512	507	0	0	
13	0	0	0	0	512	507	0	0	
14	0	0	0	0	513	507	0	0	
15	0	0	0	0	513	508	0	0	
0	0	0	0	0	511	508	0	0	
1	0	0	0	0	510	507	0	0	
2	0	0	0	0	510	506	0	0	
3	0	0	0	0	511	508	0	0	
4	0	0	0	0	510	508	0	0	
5	0	0	0	0	513	507	0	0	
6	0	0	0	0	513	510	0	0	
7	0	0	0	0	512	510	0	0	
8	0	0	0	0	515	510	0	0	
9	0	0	0	0	511	509	0	0	
10	0	0	0	0	510	509	0	0	
11	0	0	0	0	508	511	0	0	
12	0	0	0	0	506	508	0	0	
13	0	0	0	0	511	506	0	0	
14	0	0	0	0	512	506	0	0	
15	0	0	0	0	513	507	0	0	
0	0	0	0	0	512	505	0	0	
1	0	0	0	0	511	508	0	0	
2	0	0	0	0	513	507	0	0	
3	0	0	0	0	512	507	0	0	
4	0	0	0	0	508	507	0	0	
5	0	0	0	0	509	507	0	0	
6	0	0	0	0	511	508	0	0	
7	0	0	0	0	508	508	0	0	
8	0	0	0	0	513	508	0	0	
9	0	0	0	0	508	508	0	0	
10	0	0	0	0	508	510	0	0	
11	0	0	0	0	512	510	0	0	
12	0	0	0	0	512	510	0	0	
13	0	0	0	0	514	512	0	0	
14	0	0	0	0	511	508	0	0	
15	0	0	0	0	507	507	0	0	
0	0	0	0	0	508	508	0	0	
1	0	0	0	0	513	506	0	0	
2	0	0	0	0	516	507	0	0	
3	0	0	0	0	512	508	0	0	
4	0	0	0	0	509	505	0	0	
5	0	0	0	0	511	505	0	0	
6	0	0	0	0	512	507	0	0	
7	0	0	0	0	513	505	0	0	
8	0	0	0	0	513	511	0	0	
9	0	0	0	0	511	507	0	0	
10	0	0	0	0	510	509	0	0	
11	0	0	0	0	508	508	0	0	
12	0	0	0	0	510	509	0	0	
13	0	0	0	0	508	508	0	0	
14	0	0	0	0	511	510	0	0	
15	0	0	0	0	512	508	0	0	
0	0	0	0	0	511	509	0	0	
1	0	0	0	0	510	508	0	0	
2	0	0	0	0	511	510	0	0	
3	0	0	0	0	509	511	0	0	
4	0	0	0	0	510	508	0	0	
5	0	0	0	0	510	505	0	0	
6	0	0	0	0	510	507	0	0	
7	0	0	0	0	513	506	0	0	
8	0	0	0	0	515	505	0	0	
9	0	0	0	0	513	507	0	0	
10	0	0	0	0	514	507	0	0	
11	0	0	0	0	512	508	0	0	
12	0	0	0	0	510	506	0	0	
13	0	0	0	0	511	506	0	0	
14	0	0	0	0	508	509	0	0	
15	0	0	0	0	507	508	0	0	
0	0	0	0	0	510	508	0	0	
1	0	0	0	0	511	508	0	0	
2	0	0	0	0	511	507	0	0	
3	0	0	0	0	510	508	0	0	
4	0	0	0	0	512	510	0	0	
5	0	0	0	0	511	510	0	0	
6	0	0	0	0	512	508	0	0	
7	0	0	0	0	510	508	0	0	
8	0	0	0	0	512	509	0	0	
9	0	0	0	0	511	509	0	0	
10	0	0	0	0	512	508	0	0	
11	0	0	0	0	512	508	0	0	
12	0	0	0	0	515	505	0	0	
13	0	0	0	0	511	505	0	0	
14	0	0	0	0	510	508	0	0	
15	0	0	0	0	511	506	0	0	
0	0	0	0	0	512	508	0	0	
1	0	0	0	0	510	506	0	0	
2	0	0	0	0	508	507	0	0	
3	0	0	0	0	508	510	0	0	
4	0	0	0	0	509	508	0	0	
5	0	0	0	0	506	511	0	0	
6	0	0	0	0	506	511	0	0	
7	0	0	0	0	508	510	0	0	
8	0	0	0	0	514	508	0	0	
9	0	0	0	0	515	508	0	0	
10	0	0	0	0	518	508	0	0	
11	0	0	0	0	519	508	0	0	
12	0	0	0	0	513	508	0	0	
13	0	0	0	0	510	505	0	0	
14	0	0	0	0	511	507	0	0	
15	0	0	0	0	511	510	0	0	
0	0	0	0	0	510	507	0	0	
1	0	0	0	0	512	508	0	0	
2	0	0	0	0	515	507	0	0	
3	0	0	0	0	511	508	0	0	
4	0	0	0	0	509	507	0	0	
5	0	0	0	0	510	506	0	0	
6	0	0	0	0	510	508	0	0	
7	0	0	0	0	509	508	0	0	
8	0	0	0	0	508	509	0	0	
9	0	0	0	0	507	511	0	0	
10	0	0	0	0	509	511	0	0	
11	0	0	0	0	508	510	0	0	
12	0	0	0	0	512	509	0	0	
13	0	0	0	0	511	509	0	0	
14	0	0	0	0	513	508	0	0	
15	0	0	0	0	511	510	0	0	
0	0	0	0	0	511	508	0	0	
1	0	0	0	0	510	508	0	0	
2	0	0	0	0	508	506	0	0	
3	0	0	0	0	511	507	0	0	
4	0	0	0	0	516	506	0	0	
5	0	0	0	0	514	508	0	0	
6	0	0	0	0	510	507	0	0	
7	0	0	0	0	511	508	0	0	
8	0	0	0	0	513	508	0	0	
9	0	0	0	0	513	507	0	0	
10	0	0	0	0	513	507	0	0	
11	0	0	0	0	511	507	0	0	
12	0	0	0	0	511	508	0	0	
13	0	0	0	0	510	509	0	0	
14	0	0	0	0	508	509	0	0	
15	0	0	0	0	510	509	0	0	
0	0	0	0	0	509	509	0	0	
1	0	0	0	0	510	509	0	0	
2	0	0	0	0	512	508	0	0	
3	0	0	0	0	511	509	0	0	
4	0	0	0	0	513	510	0	0	
5	0	0	0	0	512	506	0	0	
6	0	0	0	0	511	506	0	0	
7	0	0	0	0	512	508	0	0	
8	0	0	0	0	515	507	0	0	
9	0	0	0	0	512	507	0	0	
10	0	0	0	0	512	507	0	0	
11	0	0	0	0	507	508	0	0	
12	0	0	0	0	508	505	0	0	
13	0	0	0	0	509	504	0	0	
14	0	0	0	0	507	507	0	0	
15	0	0	0	0	512	508	0	0	
0	0	0	0	0	510	511	0	0	
1	0	0	0	0	512	510	0	0	
2	0	0	0	0	514	510	0	0	
3	0	0	0	0	516	512	0	0	
4	0	0	0	0	512	507	0	0	
5	0	0	0	0	510	508	0	0	
6	0	0	0	0	509	510	0	0	
7	0	0	0	0	511	508	0	0	
8	0	0	0	0	510	508	0	0	
9	0	0	0	0	513	509	0	0	
10	0	0	0	0	513	507	0	0	
11	0	0	0	0	511	506	0	0	
12	0	0	0	0	512	508	0	0	
13	0	0	0	0	511	505	0	0	
14	0	0	0	0	507	507	0	0	
15	0	0	0	0	510	510	0	0	
0	0	0	0	0	510	509	0	0	
1	0	0	0	0	510	508	0	0	
2	0	0	0	0	510	506	0	0	
3	0	0	0	0	510	509	0	0	
4	0	0	0	0	511	508	0	0	
5	0	0	0	0	510	509	0	0	
6	0	0	0	0	510	508	0	0	
7	0	0	0	0	511	510	0	0	
8	0	0	0	0	510	508	0	0	
9	0	0	0	0	512	507	0	0	
10	0	0	0	0	510	510	0	0	
11	0	0	0	0	510	508	0	0	
12	0	0	0	0	510	508	0	0	
13	0	0	0	0	513	507	0	0	
14	0	0	0	0	514	505	0	0	
15	0	0	0	0	512	507	0	0	
0	0	0	0	0	515	507	0	0	
1	0	0	0	0	511	507	0	0	
2	0	0	0	0	512	508	0	0	
3	0	0	0	0	509	508	0	0	
4	0	0	0	0	506	509	0	0	
5	0	0	0	0	505	505	0	0	
6	0	0	0	0	508	508	0	0	
7	0	0	0	0	509	510	0	0	
8	0	0	0	0	511	509	0	0	
9	0	0	0	0	513	511	0	0	
10	0	0	0	0	515	514	0	0	
11	0	0	0	0	516	508	0	0	
12	0	0	0	0	514	509	0	0	
13	0	0	0	0	515	509	0	0	
14	0	0	0	0	515	508	0	0	
15	0	0	0	0	511	510	0	0	
0	0	0	0	0	510	509	0	0	
1	0	0	0	0	508	510	0	0	
2	0	0	0	0	511	505	0	0	
3	0	0	0	0	514	507	0	0	
4	0	0	0	0	515	507	0	0	
5	0	0	0	0	514	507	0	0	
6	0	0	0	0	512	508	0	0	
7	0	0	0	0	510	507	0	0	
8	0	0	0	0	508	507	0	0	
9	0	0	0	0	512	508	0	0	
10	0	0	0	0	509	508	0	0	
11	0	0	0	0	506	510	0	0	
12	0	0	0	0	507	507	0	0	
13	0	0	0	0	507	507	0	0	
14	0	0	0	0	510	511	0	0	
15	0	0	0	0	510	510	0	0	
0	0	0	0	0	513	510	0	0	
1	0	0	0	0	512	510	0	0	
2	0	0	0	0	515	508	0	0	
3	0	0	0	0	514	509	0	0	
4	0	0	0	0	510	510	0	0	
5	0	0	0	0	513	507	0	0	
6	0	0	0	0	511	505	0	0	
7	0	0	0	0	512	506	0	0	
8	0	0	0	0	511	507	0	0	
9	0	0	0	0	511	505	0	0	
10	0	0	0	0	511	507	0	0	
11	0	0	0	0	512	506	0	0	
12	0	0	0	0	512	508	0	0	
13	0	0	0	0	510	506	0	0	
14	0	0	0	0	509	508	0	0	
15	0	0	0	0	510	509	0	0	
0	0	0	0	0	511	510	0	0	
1	0	0	0	0	510	509	0	0	
2	0	0	0	0	510	508	0	0	
3	0	0	0	0	513	509	0	0	
4	0	0	0	0	512	509	0	0	
5	0	0	0	0	513	508	0	0	
6	0	0	0	0	511	507	0	0	
7	0	0	0	0	511	510	0	0	
8	0	0	0	0	512	509	0	0	
9	0	0	0	0	513	509	0	0	
10	0	0	0	0	513	508	0	0	
11	0	0	0	0	510	507	0	0	
12	0	0	0	0	511	505	0	0	
13	0	0	0	0	512	508	0	0	
14	0	0	0	0	512	509	0	0	
15	0	0	0	0	509	510	0	0	
0	0	0	0	0	510	506	0	0	
1	0	0	0	0	512	507	0	0	
2	0	0	0	0	512	507	0	0	
3	0	0	0	0	511	508	0	0	
4	0	0	0	0	511	509	0	0	
5	0	0	0	0	511	510	0	0	
6	0	0	0	0	512	508	0	0	
7	0	0	0	0	509	510	0	0	
8	0	0	0	0	511	508	0	0	
9	0	0	0	0	510	509	0	0	
10	0	0	0	0	512	509	0	0	
11	0	0	0	0	509	510	0	0	
12	0	0	0	0	511	509	0	0	
13	0	0	0	0	511	506	0	0	
14	0	0	0	0	511	507	0	0	
15	0	0	0	0	510	507	0	0	
0	0	0	0	0	510	508	0	0	
1	0	0	0	0	507	506	0	0	
2	0	0	0	0	513	508	0	0	
3	0	0	0	0	519	509	0	0	
4	0	0	0	0	515	505	0	0	
5	0	0	0	0	512	509	0	0	
6	0	0	0	0	510	507	0	0	
7	0	0	0	0	509	508	0	0	
8	0	0	0	0	511	507	0	0	
9	0	0	0	0	511	507	0	0	
10	0	0	0	0	508	510	0	0	
11	0	0	0	0	508	508	0	0	
12	0	0	0	0	508	510	0	0	
13	0	0	0	0	510	511	0	0	
14	0	0	0	0	512	510	0	0	
15	0	0	0	0	511	511	0	0	
0	0	0	0	0	510	510	0	0	
1	0	0	0	0	513	508	0	0	
2	0	0	0	0	511	505	0	0	
3	0	0	0	0	511	508	0	0	
4	0	0	0	0	515	506	0	0	
5	0	0	0	0	513	506	0	0	
6	0	0	0	0	514	506	0	0	
7	0	0	0	0	510	508	0	0	
8	0	0	0	0	506	508	0	0	
9	0	0	0	0	504	508	0	0	
10	0	0	0	0	510	507	0	0	
11	0	0	0	0	510	509	0	0	
12	0	0	0	0	511	508	0	0	
13	0	0	0	0	511	510	0	0	
14	0	0	0	0	508	509	0	0	
15	0	0	0	0	511	507	0	0	
0	0	0	0	0	512	510	0	0	
1	0	0	0	0	513	510	0	0	
2	0	0	0	0	512	509	0	0	
3	0	0	0	0	511	508	0	0	
4	0	0	0	0	512	508	0	0	
5	0	0	0	0	509	509	0	0	
6	0	0	0	0	512	508	0	0	
7	0	0	0	0	511	507	0	0	
8	0	0	0	0	511	504	0	0	
9	0	0	0	0	512	507	0	0	
10	0	0	0	0	513	508	0	0	
11	0	0	0	0	513	508	0	0	
12	0	0	0	0	512	508	0	0	
13	0	0	0	0	511	509	0	0	
14	0	0	0	0	511	507	0	0	
15	0	0	0	0	508	509	0	0	
0	0	0	0	0	510	508	0	0	
1	0	0	0	0	511	509	0	0	
2	0	0	0	0	511	509	0	0	
3	0	0	0	0	511	510	0	0	
4	0	0	0	0	509	509	0	0	
5	0	0	0	0	510	508	0	0	
6	0	0	0	0	511	509	0	0	
7	0	0	0	0	511	508	0	0	
8	0	0	0	0	512	510	0	0	
9	0	0	0	0	512	508	0	0	
10	0	0	0	0	514	506	0	0	
11	0	0	0	0	511	508	0	0	
12	0	0	0	0	512	508	0	0	
13	0	0	0	0	508	507	0	0	
14	0	0	0	0	508	508	0	0	
15	0	0	0	0	510	508	0	0	
0	0	0	0	0	510	506	0	0	
1	0	0	0	0	509	508	0	0	
2	0	0	0	0	511	507	0	0	
3	0	0	0	0	511	509	0	0	
4	0	0	0	0	509	508	0	0	
5	0	0	0	0	508	508	0	0	
6	0	0	0	0	510	508	0	0	
7	0	0	0	0	511	510	0	0	
8	0	0	0	0	512	510	0	0	
9	0	0	0	0	512	511	0	0	
10	0	0	0	0	510	507	0	0	
11	0	0	0	0	511	507	0	0	
12	0	0	0	0	514	508	0	0	
13	0	0	0	0	512	508	0	0	
14	0	0	0	0	512	507	0	0	
15	0	0	0	0	512	508	0	0	
0	0	0	0	0	513	507	0	0	
1	0	0	0	0	515	507	0	0	
2	0	0	0	0	511	508	0	0	
3	0	0	0	0	513	510	0	0	
4	0	0	0	0	509	509	0	0	
5	0	0	0	0	511	509	0	0	
6	0	0	0	0	510	507	0	0	
7	0	0	0	0	507	507	0	0	
8	0	0	0	0	508	506	0	0	
9	0	0	0	0	506	509	0	0	
10	0	0	0	0	508	509	0	0	
11	0	0	0	0	511	510	0	0	
12	0	0	0	0	512	512	0	0	
13	0	0	0	0	515	508	0	0	
14	0	0	0	0	516	510	0	0	
15	0	0	0	0	510	512	0	0	
0	0	0	0	0	513	507	0	0	
1	0	0	0	0	513	507	0	0	
2	0	0	0	0	514	507	0	0	
3	0	0	0	0	512	507	0	0	
4	0	0	0	0	511	506	0	0	
5	0	0	0	0	510	507	0	0	
6	0	0	0	0	510	508	0	0	
7	0	0	0	0	510	510	0	0	
8	0	0	0	0	511	506	0	0	
9	0	0	0	0	512	505	0	0	
10	0	0	0	0	512	506	0	0	
11	0	0	0	0	511	508	0	0	
12	0	0	0	0	511	511	0	0	
13	0	0	0	0	509	509	0	0	
14	0	0	0	0	508	510	0	0	
15	0	0	0	0	510	509	0	0	
0	0	0	0	0	508	508	0	0	
1	0	0	0	0	508	509	0	0	
2	0	0	0	0	511	508	0	0	
3	0	0	0	0	512	507	0	0	
4	0	0	0	0	513	509	0	0	
5	0	0	0	0	512	507	0	0	
6	0	0	0	0	511	508	0	0	
7	0	0	0	0	510	506	0	0	
8	0	0	0	0	509	507	0	0	
9	0	0	0	0	512	507	0	0	
10	0	0	0	0	511	509	0	0	
11	0	0	0	0	512	509	0	0	
12	0	0	0	0	511	508	0	0	
13	0	0	0	0	513	505	0	0	
14	0	0	0	0	510	509	0	0	
15	0	0	0	0	509	508	0	0	
0	0	0	0	0	511	512	0	0	
1	0	0	0	0	512	509	0	0	
2	0	0	0	0	511	509	0	0	
3	0	0	0	0	509	508	0	0	
4	0	0	0	0	510	508	0	0	
5	0	0	0	0	512	510	0	0	
6	0	0	0	0	513	509	0	0	
7	0	0	0	0	510	507	0	0	
8	0	0	0	0	512	509	0	0	
9	0	0	0	0	513	508	0	0	
10	0	0	0	0	515	508	0	0	
11	0	0	0	0	512	505	0	0	
12	0	0	0	0	513	507	0	0	
13	0	0	0	0	511	506	0	0	
14	0	0	0	0	509	507	0	0	
15	0	0	0	0	512	510	0	0	
0	0	0	0	0	511	507	0	0	
1	0	0	0	0	511	506	0	0	
2	0	0	0	0	511	509	0	0	
3	0	0	0	0	512	507	0	0	
4	0	0	0	0	511	507	0	0	
5	0	0	0	0	511	509	0	0	
6	0	0	0	0	512	509	0	0	
7	0	0	0	0	510	510	0	0	
8	0	0	0	0	509	511	0	0	
9	0	0	0	0	510	509	0	0	
10	0	0	0	0	508	508	0	0	
11	0	0	0	0	509	510	0	0	
12	0	0	0	0	511	509	0	0	
13	0	0	0	0	513	507	0	0	
14	0	0	0	0	513	507	0	0	
15	0	0	0	0	511	506	0	0	
0	0	0	0	0	512	504	0	0	
1	0	0	0	0	512	507	0	0	
2	0	0	0	0	513	508	0	0	
3	0	0	0	0	513	509	0	0	
4	0	0	0	0	512	507	0	0	
5	0	0	0	0	512	506	0	0	
6	0	0	0	0	510	507	0	0	
7	0	0	0	0	508	509	0	0	
8	0	0	0	0	510	508	0	0	
9	0	0	0	0	510	506	0	0	
10	0	0	0	0	509	511	0	0	
11	0	0	0	0	512	509	0	0	
12	0	0	0	0	508	509	0	0	
13	0	0	0	0	508	510	0	0	
14	0	0	0	0	513	509	0	0	
15	0	0	0	0	511	511	0	0	
0	0	0	0	0	510	509	0	0	
1	0	0	0	0	512	508	0	0	
2	0	0	0	0	509	506	0	0	
3	0	0	0	0	509	505	0	0	
4	0	0	0	0	508	505	0	0	
5	0	0	0	0	509	508	0	0	
6	0	0	0	0	508	507	0	0	
7	0	0	0	0	511	509	0	0	
8	0	0	0	0	511	508	0	0	
9	0	0	0	0	514	507	0	0	
10	0	0	0	0	515	508	0	0	
11	0	0	0	0	511	507	0	0	
12	0	0	0	0	511	508	0	0	
13	0	0	0	0	511	510	0	0	
14	0	0	0	0	508	509	0	0	
15	0	0	0	0	510	509	0	0	
0	0	0	0	0	510	508	0	0	
1	0	0	0	0	512	510	0	0	
2	0	0	0	0	512	508	0	0	
3	0	0	0	0	513	509	0	0	
4	0	0	0	0	513	507	0	0	
5	0	0	0	0	512	505	0	0	
6	0	0	0	0	510	507	0	0	
7	0	0	0	0	509	508	0	0	
8	0	0	0	0	511	507	0	0	
9	0	0	0	0	511	508	0	0	
10	0	0	0	0	510	508	0	0	
11	0	0	0	0	511	509	0	0	
12	0	0	0	0	514	507	0	0	
13	0	0	0	0	513	506	0	0	
14	0	0	0	0	511	508	0	0	
15	0	0	0	0	508	507	0	0	
0	0	0	0	0	509	509	0	0	
1	0	0	0	0	508	509	0	0	
2	0	0	0	0	510	511	0	0	
3	0	0	0	0	511	510	0	0	
4	0	0	0	0	511	510	0	0	
5	0	0	0	0	512	508	0	0	
6	0	0	0	0	514	509	0	0	
7	0	0	0	0	512	508	0	0	
8	0	0	0	0	513	510	0	0	
9	0	0	0	0	512	507	0	0	
10	0	0	0	0	511	508	0	0	
11	0	0	0	0	511	505	0	0	
12	0	0	0	0	512	506	0	0	
13	0	0	0	0	512	506	0	0	
14	0	0	0	0	512	508	0	0	
15	0	0	0	0	511	507	0	0	
0	0	0	0	0	510	508	0	0	
1	0	0	0	0	511	506	0	0	
2	0	0	0	0	509	508	0	0	
3	0	0	0	0	509	506	0	0	
4	0	0	0	0	510	508	0	0	
5	0	0	0	0	507	510	0	0	
6	0	0	0	0	509	508	0	0	
7	0	0	0	0	510	509	0	0	
8	0	0	0	0	512	510	0	0	
9	0	0	0	0	512	508	0	0	
10	0	0	0	0	512	508	0	0	
11	0	0	0	0	510	511	0	0	
12	0	0	0	0	511	510	0	0	
13	0	0	0	0	513	508	0	0	
14	0	0	0	0	514	509	0	0	
15	0	0	0	0	511	508	0	0	
0	0	0	0	0	511	506	0	0	
1	0	0	0	0	511	508	0	0	
2	0	0	0	0	514	507	0	0	
3	0	0	0	0	510	507	0	0	
4	0	0	0	0	508	506	0	0	
5	0	0	0	0	512	508	0	0	
6	0	0	0	0	512	508	0	0	
7	0	0	0	0	512	508	0	0	
8	0	0	0	0	510	509	0	0	
9	0	0	0	0	508	511	0	0	
10	0	0	0	0	509	509	0	0	
11	0	0	0	0	511	507	0	0	
12	0	0	0	0	512	508	0	0	
13	0	0	0	0	512	508	0	0	
14	0	0	0	0	510	509	0	0	
15	0	0	0	0	510	509	0	0	
0	0	0	0	0	511	509	0	0	
1	0	0	0	0	511	507	0	0	
2	0	0	0	0	514	506	0	0	
3	0	0	0	0	511	508	0	0	
4	0	0	0	0	513	506	0	0	
5	0	0	0	0	510	508	0	0	
6	0	0	0	0	510	509	0	0	
7	0	0	0	0	510	508	0	0	
8	0	0	0	0	510	508	0	0	
9	0	0	0	0	512	507	0	0	
10	0	0	0	0	511	507	0	0	
11	0	0	0	0	511	509	0	0	
12	0	0	0	0	510	511	0	0	
13	0	0	0	0	509	509	0	0	
14	0	0	0	0	508	510	0	0	
15	0	0	0	0	511	510	0	0	
0	0	0	0	0	509	507	0	0	
1	0	0	0	0	511	507	0	0	
2	0	0	0	0	511	508	0	0	
3	0	0	0	0	513	508	0	0	
4	0	0	0	0	513	510	0	0	
5	0	0	0	0	509	508	0	0	
6	0	0	0	0	511	507	0	0	
7	0	0	0	0	510	508	0	0	
8	0	0	0	0	511	506	0	0	
9	0	0	0	0	510	507	0	0	
10	0	0	0	0	511	508	0	0	
11	0	0	0	0	513	508	0	0	
12	0	0	0	0	511	507	0	0	
13	0	0	0	0	511	508	0	0	
14	0	0	0	0	510	506	0	0	
15	0	0	0	0	507	508	0	0	
0	0	0	0	0	511	507	0	0	
1	0	0	0	0	514	510	0	0	
2	0	0	0	0	512	509	0	0	
3	0	0	0	0	508	508	0	0	
4	0	0	0	0	509	510	0	0	
5	0	0	0	0	511	510	0	0	
6	0	0	0	0	511	508	0	0	
7	0	0	0	0	512	510	0	0	
8	0	0	0	0	513	510	0	0	
9	0	0	0	0	512	508	0	0	
10	0	0	0	0	513	508	0	0	
11	0	0	0	0	512	506	0	0	
12	0	0	0	0	513	509	0	0	
13	0	0	0	0	513	507	0	0	
14	0	0	0	0	512	507	0	0	
15	0	0	0	0	512	506	0	0	
0	0	0	0	0	510	507	0	0	
1	0	0	0	0	511	509	0	0	
2	0	0	0	0	511	506	0	0	
3	0	0	0	0	507	507	0	0	
4	0	0	0	0	507	509	0	0	
5	0	0	0	0	510	510	0	0	
6	0	0	0	0	511	510	0	0	
7	0	0	0	0	512	508	0	0	
8	0	0	0	0	510	508	0	0	
9	0	0	0	0	510	509	0	0	
10	0	0	0	0	513	508	0	0	
11	0	0	0	0	513	508	0	0	
12	0	0	0	0	512	509	0	0	
13	0	0	0	0	511	509	0	0	
14	0	0	0	0	512	506	0	0	
15	0	0	0	0	512	508	0	0	
0	0	0	0	0	512	507	0	0	
1	0	0	0	0	510	507	0	0	
2	0	0	0	0	509	508	0	0	
3	0	0	0	0	509	508	0	0	
4	0	0	0	0	511	507	0	0	
5	0	0	0	0	513	507	0	0	
6	0	0	0	0	514	507	0	0	
7	0	0	0	0	511	509	0	0	
8	0	0	0	0	511	509	0	0	
9	0	0	0	0	508	510	0	0	
10	0	0	0	0	508	508	0	0	
11	0	0	0	0	510	509	0	0	
12	0	0	0	0	512	509	0	0	
13	0	0	0	0	512	508	0	0	
14	0	0	0	0	513	508	0	0	
15	0	0	0	0	510	508	0	0	
0	0	0	0	0	510	507	0	0	
1	0	0	0	0	512	508	0	0	
2	0	0	0	0	514	506	0	0	
3	0	0	0	0	513	508	0	0	
4	0	0	0	0	511	507	0	0	
5	0	0	0	0	511	508	0	0	
6	0	0	0	0	508	508	0	0	
7	0	0	0	0	509	508	0	0	
8	0	0	0	0	510	508	0	0	
9	0	0	0	0	508	507	0	0	
10	0	0	0	0	511	508	0	0	
11	0	0	0	0	510	507	0	0	
12	0	0	0	0	512	510	0	0	
13	0	0	0	0	514	508	0	0	
14	0	0	0	0	514	511	0	0	
15	0	0	0	0	511	510	0	0	
0	0	0	0	0	512	507	0	0	
1	0	0	0	0	512	510	0	0	
2	0	0	0	0	514	509	0	0	
3	0	0	0	0	512	509	0	0	
4	0	0	0	0	511	508	0	0	
5	0	0	0	0	511	509	0	0	
6	0	0	0	0	508	507	0	0	
7	0	0	0	0	507	507	0	0	
8	0	0	0	0	509	505	0	0	
9	0	0	0	0	509	507	0	0	
10	0	0	0	0	510	507	0	0	
11	0	0	0	0	511	508	0	0	
12	0	0	0	0	508	507	0	0	
13	0	0	0	0	511	508	0	0	
14	0	0	0	0	510	508	0	0	
15	0	0	0	0	512	510	0	0	
0	0	0	0	0	512	510	0	0	
1	0	0	0	0	511	509	0	0	
2	0	0	0	0	510	509	0	0	
3	0	0	0	0	510	509	0	0	
4	0	0	0	0	513	508	0	0	
5	0	0	0	0	513	508	0	0	
6	0	0	0	0	513	507	0	0	
7	0	0	0	0	510	510	0	0	
8	0	0	0	0	509	510	0	0	
9	0	0	0	0	512	511	0	0	
10	0	0	0	0	510	505	0	0	
11	0	0	0	0	511	507	0	0	
12	0	0	0	0	512	505	0	0	
13	0	0	0	0	509	507	0	0	
14	0	0	0	0	509	507	0	0	
15	0	0	0	0	512	509	0	0	
0	0	0	0	0	511	507	0	0	
1	0	0	0	0	511	506	0	0	
2	0	0	0	0	510	507	0	0	
3	0	0	0	0	511	508	0	0	
4	0	0	0	0	511	510	0	0	
5	0	0	0	0	510	507	0	0	
6	0	0	0	0	511	508	0	0	
7	0	0	0	0	511	511	0	0	
8	0	0	0	0	512	511	0	0	
9	0	0	0	0	511	509	0	0	
10	0	0	0	0	511	510	0	0	
11	0	0	0	0	511	510	0	0	
12	0	0	0	0	510	508	0	0	
13	0	0	0	0	512	507	0	0	
14	0	0	0	0	513	507	0	0	
15	0	0	0	0	511	506	0	0	
0	0	0	0	0	512	507	0	0	
1	0	0	0	0	512	507	0	0	
2	0	0	0	0	511	508	0	0	
3	0	0	0	0	512	509	0	0	
4	0	0	0	0	508	507	0	0	
5	0	0	0	0	513	507	0	0	
6	0	0	0	0	510	507	0	0	
7	0	0	0	0	508	508	0	0	
8	0	0	0	0	511	509	0	0	
9	0	0	0	0	509	508	0	0	
10	0	0	0	0	509	510	0	0	
11	0	0	0	0	509	511	0	0	
12	0	0	0	0	512	508	0	0	
13	0	0	0	0	513	510	0	0	
14	0	0	0	0	514	509	0	0	
15	0	0	0	0	511	508	0	0	
0	0	0	0	0	513	510	0	0	
1	0	0	0	0	513	507	0	0	
2	0	0	0	0	513	507	0	0	
3	0	0	0	0	513	508	0	0	
4	0	0	0	0	516	505	0	0	
5	0	0	0	0	510	507	0	0	
6	0	0	0	0	508	505	0	0	
7	0	0	0	0	508	507	0	0	
8	0	0	0	0	510	508	0	0	
9	0	0	0	0	512	508	0	0	
10	0	0	0	0	511	508	0	0	
11	0	0	0	0	510	506	0	0	
12	0	0	0	0	510	509	0	0	
13	0	0	0	0	510	510	0	0	
14	0	0	0	0	509	510	0	0	
15	0	0	0	0	510	508	0	0	
0	0	0	0	0	510	508	0	0	
1	0	0	0	0	509	511	0	0	
2	0	0	0	0	512	510	0	0	
3	0	0	0	0	511	510	0	0	
4	0	0	0	0	512	507	0	0	
5	0	0	0	0	514	508	0	0	
6	0	0	0	0	514	509	0	0	
7	0	0	0	0	511	506	0	0	
8	0	0	0	0	511	506	0	0	
9	0	0	0	0	511	507	0	0	
10	0	0	0	0	512	507	0	0	
11	0	0	0	0	511	507	0	0	
12	0	0	0	0	512	505	0	0	
13	0	0	0	0	511	505	0	0	
14	0	0	0	0	508	507	0	0	
15	0	0	0	0	508	506	0	0	
0	0	0	0	0	511	511	0	0	
1	0	0	0	0	512	509	0	0	
2	0	0	0	0	510	510	0	0	
3	0	0	0	0	511	510	0	0	
4	0	0	0	0	512	508	0	0	
5	0	0	0	0	514	510	0	0	
6	0	0	0	0	512	509	0	0	
7	0	0	0	0	508	510	0	0	
8	0	0	0	0	507	509	0	0	
9	0	0	0	0	509	508	0	0	
10	0	0	0	0	512	506	0	0	
11	0	0	0	0	511	508	0	0	
12	0	0	0	0	512	506	0	0	
13	0	0	0	0	509	508	0	0	
14	0	0	0	0	511	506	0	0	
15	0	0	0	0	510	507	0	0	
0	0	0	0	0	510	507	0	0	
1	0	0	0	0	512	509	0	0	
2	0	0	0	0	510	507	0	0	
3	0	0	0	0	511	508	0	0	
4	0	0	0	0	511	510	0	0	
5	0	0	0	0	512	510	0	0	
6	0	0	0	0	512	508	0	0	
7	0	0	0	0	509	509	0	0	
8	0	0	0	0	512	510	0	0	
9	0	0	0	0	514	510	0	0	
10	0	0	0	0	513	509	0	0	
11	0	0	0	0	509	507	0	0	
12	0	0	0	0	510	507	0	0	
13	0	0	0	0	513	507	0	0	
14	0	0	0	0	511	507	0	0	
15	0	0	0	0	509	508	0	0	
0	0	0	0	0	511	506	0	0	
1	0	0	0	0	512	508	0	0	
2	0	0	0	0	513	505	0	0	
3	0	0	0	0	514	508	0	0	
4	0	0	0	0	513	509	0	0	
5	0	0	0	0	513	506	0	0	
6	0	0	0	0	512	508	0	0	
7	0	0	0	0	510	509	0	0	
8	0	0	0	0	511	511	0	0	
9	0	0	0	0	509	509	0	0	
10	0	0	0	0	510	509	0	0	
11	0	0	0	0	511	508	0	0	
12	0	0	0	0	512	508	0	0	
13	0	0	0	0	515	509	0	0	
14	0	0	0	0	510	508	0	0	
15	0	0	0	0	510	508	0	0	
0	0	0	0	0	508	508	0	0	
1	0	0	0	0	509	509	0	0	
2	0	0	0	0	511	507	0	0	
3	0	0	0	0	511	507	0	0	
4	0	0	0	0	511	508	0	0	
5	0	0	0	0	511	507	0	0	
6	0	0	0	0	508	507	0	0	
7	0	0	0	0	511	508	0	0	
8	0	0	0	0	511	508	0	0	
9	0	0	0	0	510	505	0	0	
10	0	0	0	0	510	508	0	0	
11	0	0	0	0	511	509	0	0	
12	0	0	0	0	509	510	0	0	
13	0	0	0	0	511	509	0	0	
14	0	0	0	0	511	510	0	0	
15	0	0	0	0	512	511	0	0	
0	0	0	0	0	512	508	0	0	
1	0	0	0	0	512	509	0	0	
2	0	0	0	0	511	507	0	0	
3	0	0	0	0	510	508	0	0	
4	0	0	0	0	513	510	0	0	
5	0	0	0	0	512	508	0	0	
6	0	0	0	0	513	507	0	0	
7	0	0	0	0	512	508	0	0	
8	0	0	0	0	510	506	0	0	
9	0	0	0	0	511	505	0	0	
10	0	0	0	0	511	509	0	0	
11	0	0	0	0	510	507	0	0	
12	0	0	0	0	514	508	0	0	
13	0	0	0	0	511	508	0	0	
14	0	0	0	0	513	507	0	0	
15	0	0	0	0	509	510	0	0	
0	0	0	0	0	511	508	0	0	
1	0	0	0	0	508	509	0	0	
2	0	0	0	0	508	509	0	0	
3	0	0	0	0	511	509	0	0	
4	0	0	0	0	511	508	0	0	
5	0	0	0	0	512	509	0	0	
6	0	0	0	0	512	508	0	0	
7	0	0	0	0	510	508	0	0	
8	0	0	0	0	511	510	0	0	
9	0	0	0	0	512	510	0	0	
10	0	0	0	0	513	507	0	0	
11	0	0	0	0	512	507	0	0	
12	0	0	0	0	511	509	0	0	
13	0	0	0	0	511	509	0	0	
14	0	0	0	0	511	507	0	0	
15	0	0	0	0	511	507	0	0	
0	0	0	0	0	510	504	0	0	
1	0	0	0	0	511	508	0	0	
2	0	0	0	0	511	505	0	0	
3	0	0	0	0	510	508	0	0	
4	0	0	0	0	511	509	0	0	
5	0	0	0	0	511	511	0	0	
6	0	0	0	0	509	510	0	0	
7	0	0	0	0	508	508	0	0	
8	0	0	0	0	510	510	0	0	
9	0	0	0	0	509	507	0	0	
10	0	0	0	0	508	509	0	0	
11	0	0	0	0	509	510	0	0	
12	0	0	0	0	510	509	0	0	
13	0	0	0	0	514	509	0	0	
14	0	0	0	0	516	508	0	0	
15	0	0	0	0	512	507	0	0	
0	0	0	0	0	510	506	0	0	
1	0	0	0	0	511	505	0	0	
2	0	0	0	0	515	506	0	0	
3	0	0	0	0	511	508	0	0	
4	0	0	0	0	511	508	0	0	
5	0	0	0	0	511	507	0	0	
6	0	0	0	0	510	508	0	0	
7	0	0	0	0	510	509	0	0	
8	0	0	0	0	510	508	0	0	
9	0	0	0	0	508	510	0	0	
10	0	0	0	0	513	509	0	0	
11	0	0	0	0	512	512	0	0	
12	0	0	0	0	514	510	0	0	
13	0	0	0	0	513	509	0	0	
14	0	0	0	0	511	509	0	0	
15	0	0	0	0	508	508	0	0	
0	0	0	0	0	508	507	0	0	
1	0	0	0	0	510	506	0	0	
2	0	0	0	0	509	508	0	0	
3	0	0	0	0	511	507	0	0	
4	0	0	0	0	512	506	0	0	
5	0	0	0	0	511	508	0	0	
6	0	0	0	0	512	508	0	0	
7	0	0	0	0	512	507	0	0	
8	0	0	0	0	510	507	0	0	
9	0	0	0	0	508	507	0	0	
10	0	0	0	0	507	508	0	0	
11	0	0	0	0	509	507	0	0	
12	0	0	0	0	510	510	0	0	
13	0	0	0	0	510	508	0	0	
14	0	0	0	0	511	509	0	0	
15	0	0	0	0	512	510	0	0	
0	0	0	0	0	512	509	0	0	
1	0	0	0	0	512	509	0	0	
2	0	0	0	0	510	506	0	0	
3	0	0	0	0	509	509	0	0	
4	0	0	0	0	515	510	0	0	
5	0	0	0	0	512	509	0	0	
6	0	0	0	0	511	506	0	0	
7	0	0	0	0	510	507	0	0	
8	0	0	0	0	512	507	0	0	
9	0	0	0	0	514	508	0	0	
10	0	0	0	0	515	508	0	0	
11	0	0	0	0	517	507	0	0	
12	0	0	0	0	512	507	0	0	
13	0	0	0	0	511	508	0	0	
14	0	0	0	0	512	505	0	0	
15	0	0	0	0	510	507	0	0	
0	0	0	0	0	511	510	0	0	
1	0	0	0	0	511	509	0	0	
2	0	0	0	0	507	510	0	0	
3	0	0	0	0	507	507	0	0	
4	0	0	0	0	509	508	0	0	
5	0	0	0	0	510	508	0	0	
6	0	0	0	0	510	509	0	0	
7	0	0	0	0	512	507	0	0	
8	0	0	0	0	512	508	0	0	
9	0	0	0	0	511	508	0	0	
10	0	0	0	0	512	508	0	0	
11	0	0	0	0	512	507	0	0	
12	0	0	0	0	512	508	0	0	
13	0	0	0	0	512	508	0	0	
14	0	0	0	0	511	508	0	0	
15	0	0	0	0	508	509	0	0	
0	0	0	0	0	510	508	0	0	
1	0	0	0	0	509	506	0	0	
2	0	0	0	0	508	507	0	0	
3	0	0	0	0	510	507	0	0	
4	0	0	0	0	511	509	0	0	
5	0	0	0	0	508	509	0	0	
6	0	0	0	0	511	509	0	0	
7	0	0	0	0	512	509	0	0	
8	0	0	0	0	511	507	0	0	
9	0	0	0	0	515	508	0	0	
10	0	0	0	0	512	508	0	0	
11	0	0	0	0	510	509	0	0	
12	0	0	0	0	512	508	0	0	
13	0	0	0	0	513	509	0	0	
14	0	0	0	0	512	507	0	0	
15	0	0	0	0	515	507	0	0	
0	0	0	0	0	512	508	0	0	
1	0	0	0	0	510	508	0	0	
2	0	0	0	0	511	505	0	0	
3	0	0	0	0	512	507	0	0	
4	0	0	0	0	511	507	0	0	
5	0	0	0	0	512	508	0	0	
6	0	0	0	0	510	508	0	0	
7	0	0	0	0	509	508	0	0	
8	0	0	0	0	511	509	0	0	
9	0	0	0	0	508	508	0	0	
10	0	0	0	0	507	508	0	0	
11	0	0	0	0	507	511	0	0	
12	0	0	0	0	509	509	0	0	
13	0	0	0	0	512	510	0	0	
14	0	0	0	0	511	510	0	0	
15	0	0	0	0	511	508	0	0	
0	0	0	0	0	513	507	0	0	
1	0	0	0	0	516	507	0	0	
2	0	0	0	0	513	507	0	0	
3	0	0	0	0	515	508	0	0	
4	0	0	0	0	512	505	0	0	
5	0	0	0	0	513	506	0	0	
6	0	0	0	0	513	508	0	0	
7	0	0	0	0	511	507	0	0	
8	0	0	0	0	510	506	0	0	
9	0	0	0	0	510	508	0	0	
10	0	0	0	0	507	509	0	0	
11	0	0	0	0	508	508	0	0	
12	0	0	0	0	510	508	0	0	
13	0	0	0	0	511	509	0	0	
14	0	0	0	0	511	510	0	0	
15	0	0	0	0	513	510	0	0	
0	0	0	0	0	512	509	0	0	
1	0	0	0	0	515	511	0	0	
2	0	0	0	0	513	509	0	0	
3	0	0	0	0	511	510	0	0	
4	0	0	0	0	513	508	0	0	
5	0	0	0	0	511	507	0	0	
6	0	0	0	0	513	506	0	0	
7	0	0	0	0	511	507	0	0	
8	0	0	0	0	509	507	0	0	
9	0	0	0	0	510	508	0	0	
10	0	0	0	0	510	506	0	0	
11	0	0	0	0	510	507	0	0	
12	0	0	0	0	508	507	0	0	
13	0	0	0	0	508	509	0	0	
14	0	0	0	0	510	509	0	0	
15	0	0	0	0	508	509	0	0	
0	0	0	0	0	511	509	0	0	
1	0	0	0	0	512	508	0	0	
2	0	0	0	0	511	509	0	0	
3	0	0	0	0	514	509	0	0	
4	0	0	0	0	513	508	0	0	
5	0	0	0	0	516	507	0	0	
6	0	0	0	0	512	506	0	0	
7	0	0	0	0	511	509	0	0	
8	0	0	0	0	511	511	0	0	
9	0	0	0	0	511	508	0	0	
10	0	0	0	0	514	507	0	0	
11	0	0	0	0	509	508	0	0	
12	0	0	0	0	510	508	0	0	
13	0	0	0	0	512	506	0	0	
14	0	0	0	0	511	507	0	0	
15	0	0	0	0	510	506	0	0	
0	0	0	0	0	509	508	0	0	
1	0	0	0	0	511	506	0	0	
2	0	0	0	0	509	508	0	0	
3	0	0	0	0	508	509	0	0	
4	0	0	0	0	508	511	0	0	
5	0	0	0	0	508	510	0	0	
6	0	0	0	0	511	508	0	0	
7	0	0	0	0	512	510	0	0	
8	0	0	0	0	513	511	0	0	
9	0	0	0	0	511	507	0	0	
10	0	0	0	0	513	508	0	0	
11	0	0	0	0	510	508	0	0	
12	0	0	0	0	512	509	0	0	
13	0	0	0	0	516	509	0	0	
14	0	0	0	0	511	507	0	0	
15	0	0	0	0	511	508	0	0	
0	0	0	0	0	510	507	0	0	
1	0	0	0	0	510	508	0	0	
2	0	0	0	0	510	506	0	0	
3	0	0	0	0	510	507	0	0	
4	0	0	0	0	509	509	0	0	
5	0	0	0	0	510	507	0	0	
6	0	0	0	0	512	509	0	0	
7	0	0	0	0	512	509	0	0	
8	0	0	0	0	511	506	0	0	
9	0	0	0	0	510	508	0	0	
10	0	0	0	0	511	510	0	0	
11	0	0	0	0	502	508	0	0	
12	0	0	0	0	509	511	0	0	
13	0	0	0	0	513	508	0	0	
14	0	0	0	0	514	507	0	0	
15	0	0	0	0	513	508	0	0	
0	0	0	0	0	514	508	0	0	
1	0	0	0	0	513	508	0	0	
2	0	0	0	0	517	507	0	0	
3	0	0	0	0	512	508	0	0	
4	0	0	0	0	511	508	0	0	
5	0	0	0	0	511	507	0	0	
6	0	0	0	0	512	508	0	0	
7	0	0	0	0	513	506	0	0	
8	0	0	0	0	508	508	0	0	
9	0	0	0	0	511	509	0	0	
10	0	0	0	0	510	508	0	0	
11	0	0	0	0	511	507	0	0	
12	0	0	0	0	512	510	0	0	
13	0	0	0	0	511	509	0	0	
14	0	0	0	0	509	508	0	0	
15	0	0	0	0	508	508	0	0	
0	0	0	0	0	506	507	0	0	
1	0	0	0	0	510	509	0	0	
2	0	0	0	0	512	509	0	0	
3	0	0	0	0	509	508	0	0	
4	0	0	0	0	513	509	0	0	
5	0	0	0	0	512	508	0	0	
6	0	0	0	0	513	507	0	0	
7	0	0	0	0	511	505	0	0	
8	0	0	0	0	512	505	0	0	
9	0	0	0	0	510	508	0	0	
10	0	0	0	0	513	507	0	0	
11	0	0	0	0	510	508	0	0	
12	0	0	0	0	513	509	0	0	
13	0	0	0	0	515	508	0	0	
14	0	0	0	0	510	507	0	0	
15	0	0	0	0	509	507	0	0	
0	0	0	0	0	507	510	0	0	
1	0	0	0	0	509	510	0	0	
2	0	0	0	0	512	508	0	0	
3	0	0	0	0	511	510	0	0	
4	0	0	0	0	507	509	0	0	
5	0	0	0	0	508	508	0	0	
6	0	0	0	0	508	508	0	0	
7	0	0	0	0	511	509	0	0	
8	0	0	0	0	513	510	0	0	
9	0	0	0	0	512	508	0	0	
10	0	0	0	0	514	508	0	0	
11	0	0	0	0	511	508	0	0	
12	0	0	0	0	512	505	0	0	
13	0	0	0	0	513	507	0	0	
14	0	0	0	0	515	508	0	0	
15	0	0	0	0	514	507	0	0	
0	0	0	0	0	511	508	0	0	
1	0	0	0	0	512	507	0	0	
2	0	0	0	0	511	507	0	0	
3	0	0	0	0	511	508	0	0	
4	0	0	0	0	509	508	0	0	
5	0	0	0	0	509	508	0	0	
6	0	0	0	0	507	510	0	0	
7	0	0	0	0	509	510	0	0	
8	0	0	0	0	509	510	0	0	
9	0	0	0	0	509	509	0	0	
10	0	0	0	0	509	509	0	0	
11	0	0	0	0	507	508	0	0	
12	0	0	0	0	510	510	0	0	
13	0	0	0	0	515	507	0	0	
14	0	0	0	0	515	505	0	0	
15	0	0	0	0	511	506	0	0	
0	0	0	0	0	512	505	0	0	
1	0	0	0	0	511	507	0	0	
2	0	0	0	0	512	508	0	0	
3	0	0	0	0	511	508	0	0	
4	0	0	0	0	511	507	0	0	
5	0	0	0	0	511	508	0	0	
6	0	0	0	0	510	506	0	0	
7	0	0	0	0	508	508	0	0	
8	0	0	0	0	511	510	0	0	
9	0	0	0	0	511	509	0	0	
10	0	0	0	0	511	510	0	0	
11	0	0	0	0	511	509	0	0	
12	0	0	0	0	512	508	0	0	
13	0	0	0	0	514	508	0	0	
14	0	0	0	0	513	508	0	0	
15	0	0	0	0	511	510	0	0	
0	0	0	0	0	511	510	0	0	
1	0	0	0	0	512	506	0	0	
2	0	0	0	0	514	508	0	0	
3	0	0	0	0	512	509	0	0	
4	0	0	0	0	512	508	0	0	
5	0	0	0	0	512	506	0	0	
6	0	0	0	0	508	505	0	0	
7	0	0	0	0	510	507	0	0	
8	0	0	0	0	511	505	0	0	
9	0	0	0	0	509	507	0	0	
10	0	0	0	0	509	508	0	0	
11	0	0	0	0	511	507	0	0	
12	0	0	0	0	512	509	0	0	
13	0	0	0	0	509	509	0	0	
14	0	0	0	0	512	509	0	0	
15	0	0	0	0	511	511	0	0	
0	0	0	0	0	512	510	0	0	
1	0	0	0	0	512	510	0	0	
2	0	0	0	0	511	508	0	0	
3	0	0	0	0	510	508	0	0	
4	0	0	0	0	511	507	0	0	
5	0	0	0	0	510	507	0	0	
6	0	0	0	0	509	508	0	0	
7	0	0	0	0	511	508	0	0	
8	0	0	0	0	509	506	0	0	
9	0	0	0	0	511	510	0	0	
10	0	0	0	0	510	509	0	0	
11	0	0	0	0	511	510	0	0	
12	0	0	0	0	511	508	0	0	
13	0	0	0	0	510	507	0	0	
14	0	0	0	0	514	506	0	0	
15	0	0	0	0	512	508	0	0	
0	0	0	0	0	517	510	0	0	
1	0	0	0	0	514	508	0	0	
2	0	0	0	0	513	508	0	0	
3	0	0	0	0	513	508	0	0	
4	0	0	0	0	511	511	0	0	
5	0	0	0	0	511	509	0	0	
6	0	0	0	0	508	508	0	0	
7	0	0	0	0	507	507	0	0	
8	0	0	0	0	512	507	0	0	
9	0	0	0	0	511	506	0	0	
10	0	0	0	0	513	507	0	0	
11	0	0	0	0	514	509	0	0	
12	0	0	0	0	511	508	0	0	
13	0	0	0	0	510	508	0	0	
14	0	0	0	0	510	505	0	0	
15	0	0	0	0	509	506	0	0	
0	0	0	0	0	510	507	0	0	
1	0	0	0	0	511	507	0	0	
2	0	0	0	0	511	508	0	0	
3	0	0	0	0	509	510	0	0	
4	0	0	0	0	511	511	0	0	
5	0	0	0	0	512	509	0	0	
6	0	0	0	0	514	510	0	0	
7	0	0	0	0	511	510	0	0	
8	0	0	0	0	512	508	0	0	
9	0	0	0	0	510	509	0	0	
10	0	0	0	0	510	509	0	0	
11	0	0	0	0	510	509	0	0	
12	0	0	0	0	510	508	0	0	
13	0	0	0	0	511	509	0	0	
14	0	0	0	0	511	507	0	0	
15	0	0	0	0	511	506	0	0	
0	0	0	0	0	513	507	0	0	
1	0	0	0	0	510	507	0	0	
2	0	0	0	0	511	507	0	0	
3	0	0	0	0	512	508	0	0	
4	0	0	0	0	510	508	0	0	
5	0	0	0	0	511	508	0	0	
6	0	0	0	0	514	509	0	0	
7	0	0	0	0	509	508	0	0	
8	0	0	0	0	507	507	0	0	
9	0	0	0	0	508	508	0	0	
10	0	0	0	0	510	509	0	0	
11	0	0	0	0	511	509	0	0	
12	0	0	0	0	512	509	0	0	
13	0	0	0	0	511	509	0	0	
14	0	0	0	0	508	508	0	0	
15	0	0	0	0	508	510	0	0	
0	0	0	0	0	511	508	0	0	
1	0	0	0	0	514	507	0	0	
2	0	0	0	0	513	508	0	0	
3	0	0	0	0	510	507	0	0	
4	0	0	0	0	510	507	0	0	
5	0	0	0	0	511	507	0	0	
6	0	0	0	0	510	508	0	0	
7	0	0	0	0	508	508	0	0	
8	0	0	0	0	511	507	0	0	
9	0	0	0	0	512	506	0	0	
10	0	0	0	0	510	507	0	0	
11	0	0	0	0	512	508	0	0	
12	0	0	0	0	511	508	0	0	
13	0	0	0	0	511	510	0	0	
14	0	0	0	0	507	509	0	0	
15	0	0	0	0	510	510	0	0	
0	0	0	0	0	512	510	0	0	
1	0	0	0	0	515	508	0	0	
2	0	0	0	0	512	507	0	0	
3	0	0	0	0	509	509	0	0	
4	0	0	0	0	511	509	0	0	
5	0	0	0	0	511	507	0	0	
6	0	0	0	0	514	507	0	0	
7	0	0	0	0	514	507	0	0	
8	0	0	0	0	511	506	0	0	
9	0	0	0	0	512	508	0	0	
10	0	0	0	0	511	508	0	0	
11	0	0	0	0	510	506	0	0	
12	0	0	0	0	508	508	0	0	
13	0	0	0	0	511	507	0	0	
14	0	0	0	0	510	507	0	0	
15	0	0	0	0	511	509	0	0	
0	0	0	0	0	509	508	0	0	
1	0	0	0	0	511	510	0	0	
2	0	0	0	0	510	511	0	0	
3	0	0	0	0	514	507	0	0	
4	0	0	0	0	511	512	0	0	
5	0	0	0	0	511	510	0	0	
6	0	0	0	0	512	507	0	0	
7	0	0	0	0	512	507	0	0	
8	0	0	0	0	510	507	0	0	
9	0	0	0	0	510	505	0	0	
10	0	0	0	0	511	508	0	0	
11	0	0	0	0	511	506	0	0	
12	0	0	0	0	512	508	0	0	
13	0	0	0	0	509	507	0	0	
14	0	0	0	0	510	508	0	0	
15	0	0	0	0	512	506	0	0	
0	0	0	0	0	514	509	0	0	
1	0	0	0	0	516	507	0	0	
2	0	0	0	0	517	508	0	0	
3	0	0	0	0	514	510	0	0	
4	0	0	0	0	510	509	0	0	
5	0	0	0	0	508	508	0	0	
6	0	0	0	0	507	509	0	0	
7	0	0	0	0	510	510	0	0	
8	0	0	0	0	510	511	0	0	
9	0	0	0	0	510	510	0	0	
10	0	0	0	0	509	507	0	0	
11	0	0	0	0	509	507	0	0	
12	0	0	0	0	511	509	0	0	
13	0	0	0	0	510	509	0	0	
14	0	0	0	0	510	507	0	0	
15	0	0	0	0	512	505	0	0	
0	0	0	0	0	513	508	0	0	
1	0	0	0	0	514	506	0	0	
2	0	0	0	0	511	508	0	0	
3	0	0	0	0	510	507	0	0	
4	0	0	0	0	508	508	0	0	
5	0	0	0	0	510	507	0	0	
6	0	0	0	0	508	507	0	0	
7	0	0	0	0	507	510	0	0	
8	0	0	0	0	511	509	0	0	
9	0	0	0	0	514	508	0	0	
10	0	0	0	0	513	509	0	0	
11	0	0	0	0	515	508	0	0	
12	0	0	0	0	515	508	0	0	
13	0	0	0	0	512	508	0	0	
14	0	0	0	0	509	508	0	0	
15	0	0	0	0	509	510	0	0	
0	0	0	0	0	509	508	0	0	
1	0	0	0	0	510	508	0	0	
2	0	0	0	0	512	507	0	0	
3	0	0	0	0	509	507	0	0	
4	0	0	0	0	508	507	0	0	
5	0	0	0	0	509	506	0	0	
6	0	0	0	0	511	506	0	0	
7	0	0	0	0	514	508	0	0	
8	0	0	0	0	512	509	0	0	
9	0	0	0	0	513	505	0	0	
10	0	0	0	0	510	506	0	0	
11	0	0	0	0	508	509	0	0	
12	0	0	0	0	511	511	0	0	
13	0	0	0	0	508	512	0	0	
14	0	0	0	0	508	508	0	0	
15	0	0	0	0	510	508	0	0	
0	0	0	0	0	511	509	0	0	
1	0	0	0	0	513	509	0	0	
2	0	0	0	0	512	508	0	0	
3	0	0	0	0	512	508	0	0	
4	0	0	0	0	512	508	0	0	
5	0	0	0	0	512	508	0	0	
6	0	0	0	0	511	505	0	0	
7	0	0	0	0	511	506	0	0	
8	0	0	0	0	512	507	0	0	
9	0	0	0	0	512	507	0	0	
10	0	0	0	0	511	507	0	0	
11	0	0	0	0	514	508	0	0	
12	0	0	0	0	512	508	0	0	
13	0	0	0	0	510	508	0	0	
14	0	0	0	0	511	510	0	0	
15	0	0	0	0	510	510	0	0	
0	0	0	0	0	510	510	0	0	
1	0	0	0	0	511	508	0	0	
2	0	0	0	0	510	511	0	0	
3	0	0	0	0	511	509	0	0	
4	0	0	0	0	512	508	0	0	
5	0	0	0	0	511	508	0	0	
6	0	0	0	0	511	509	0	0	
7	0	0	0	0	509	509	0	0	
8	0	0	0	0	512	509	0	0	
9	0	0	0	0	512	505	0	0	
10	0	0	0	0	514	504	0	0	
11	0	0	0	0	512	507	0	0	
12	0	0	0	0	516	506	0	0	
13	0	0	0	0	511	508	0	0	
14	0	0	0	0	508	509	0	0	
15	0	0	0	0	510	505	0	0	
0	0	0	0	0	508	506	0	0	
1	0	0	0	0	509	506	0	0	
2	0	0	0	0	511	506	0	0	
3	0	0	0	0	512	508	0	0	
4	0	0	0	0	515	509	0	0	
5	0	0	0	0	513	510	0	0	
6	0	0	0	0	509	508	0	0	
7	0	0	0	0	505	510	0	0	
8	0	0	0	0	511	510	0	0	
9	0	0	0	0	510	508	0	0	
10	0	0	0	0	509	508	0	0	
11	0	0	0	0	511	509	0	0	
12	0	0	0	0	511	507	0	0	
13	0	0	0	0	510	508	0	0	
14	0	0	0	0	510	508	0	0	
15	0	0	0	0	509	508	0	0	
0	0	0	0	0	511	506	0	0	
1	0	0	0	0	515	508	0	0	
2	0	0	0	0	513	506	0	0	
3	0	0	0	0	512	507	0	0	
4	0	0	0	0	513	507	0	0	
5	0	0	0	0	509	507	0	0	
6	0	0	0	0	511	508	0	0	
7	0	0	0	0	513	508	0	0	
8	0	0	0	0	511	510	0	0	
9	0	0	0	0	508	508	0	0	
10	0	0	0	0	508	509	0	0	
11	0	0	0	0	515	509	0	0	
12	0	0	0	0	516	509	0	0	
13	0	0	0	0	513	510	0	0	
14	0	0	0	0	512	510	0	0	
15	0	0	0	0	509	510	0	0	
0	0	0	0	0	510	509	0	0	
1	0	0	0	0	512	506	0	0	
2	0	0	0	0	510	508	0	0	
3	0	0	0	0	508	505	0	0	
4	0	0	0	0	508	505	0	0	
5	0	0	0	0	510	506	0	0	
6	0	0	0	0	510	507	0	0	
7	0	0	0	0	511	508	0	0	
8	0	0	0	0	508	508	0	0	
9	0	0	0	0	513	506	0	0	
10	0	0	0	0	512	509	0	0	
11	0	0	0	0	509	508	0	0	
12	0	0	0	0	510	510	0	0	
13	0	0	0	0	508	509	0	0	
14	0	0	0	0	509	509	0	0	
15	0	0	0	0	510	510	0	0	
0	0	0	0	0	511	508	0	0	
1	0	0	0	0	512	510	0	0	
2	0	0	0	0	511	509	0	0	
3	0	0	0	0	512	509	0	0	
4	0	0	0	0	510	508	0	0	
5	0	0	0	0	511	507	0	0	
6	0	0	0	0	512	505	0	0	
7	0	0	0	0	513	507	0	0	
8	0	0	0	0	515	506	0	0	
9	0	0	0	0	511	507	0	0	
10	0	0	0	0	509	507	0	0	
11	0	0	0	0	511	507	0	0	
12	0	0	0	0	510	508	0	0	
13	0	0	0	0	510	507	0	0	
14	0	0	0	0	512	508	0	0	
15	0	0	0	0	510	508	0	0	
0	0	0	0	0	509	509	0	0	
1	0	0	0	0	513	508	0	0	
2	0	0	0	0	509	509	0	0	
3	0	0	0	0	512	511	0	0	
4	0	0	0	0	511	508	0	0	
5	0	0	0	0	511	509	0	0	
6	0	0	0	0	511	508	0	0	
7	0	0	0	0	511	509	0	0	
8	0	0	0	0	511	507	0	0	
9	0	0	0	0	510	510	0	0	
10	0	0	0	0	510	508	0	0	
11	0	0	0	0	511	508	0	0	
12	0	0	0	0	514	507	0	0	
13	0	0	0	0	513	504	0	0	
14	0	0	0	0	513	508	0	0	
15	0	0	0	0	516	509	0	0	
0	0	0	0	0	513	508	0	0	
1	0	0	0	0	510	507	0	0	
2	0	0	0	0	510	507	0	0	
3	0	0	0	0	507	510	0	0	
4	0	0	0	0	504	508	0	0	
5	0	0	0	0	509	509	0	0	
6	0	0	0	0	512	508	0	0	
7	0	0	0	0	513	508	0	0	
8	0	0	0	0	511	510	0	0	
9	0	0	0	0	511	509	0	0	
10	0	0	0	0	513	510	0	0	
11	0	0	0	0	508	509	0	0	
12	0	0	0	0	506	508	0	0	
13	0	0	0	0	513	508	0	0	
14	0	0	0	0	518	507	0	0	
15	0	0	0	0	517	506	0	0	
0	0	0	0	0	513	504	0	0	
1	0	0	0	0	511	507	0	0	
2	0	0	0	0	510	508	0	0	
3	0	0	0	0	512	508	0	0	
4	0	0	0	0	509	507	0	0	
5	0	0	0	0	511	507	0	0	
6	0	0	0	0	509	507	0	0	
7	0	0	0	0	509	511	0	0	
8	0	0	0	0	510	510	0	0	
9	0	0	0	0	511	509	0	0	
10	0	0	0	0	511	507	0	0	
11	0	0	0	0	510	509	0	0	
12	0	0	0	0	511	509	0	0	
13	0	0	0	0	513	510	0	0	
14	0	0	0	0	513	508	0	0	
15	0	0	0	0	512	507	0	0	
0	0	0	0	0	509	508	0	0	
1	0	0	0	0	508	510	0	0	
2	0	0	0	0	512	508	0	0	
3	0	0	0	0	512	507	0	0	
4	0	0	0	0	514	506	0	0	
5	0	0	0	0	512	509	0	0	
6	0	0	0	0	510	507	0	0	
7	0	0	0	0	508	507	0	0	
8	0	0	0	0	511	507	0	0	
9	0	0	0	0	511	507	0	0	
10	0	0	0	0	510	508	0	0	
11	0	0	0	0	511	509	0	0	
12	0	0	0	0	512	510	0	0	
13	0	0	0	0	509	509	0	0	
14	0	0	0	0	512	508	0	0	
15	0	0	0	0	512	510	0	0	
0	0	0	0	0	512	511	0	0	
1	0	0	0	0	509	510	0	0	
2	0	0	0	0	511	507	0	0	
3	0	0	0	0	512	511	0	0	
4	0	0	0	0	511	509	0	0	
5	0	0	0	0	512	508	0	0	
6	0	0	0	0	512	508	0	0	
7	0	0	0	0	511	507	0	0	
8	0	0	0	0	512	505	0	0	
9	0	0	0	0	512	508	0	0	
10	0	0	0	0	511	508	0	0	
11	0	0	0	0	511	506	0	0	
12	0	0	0	0	509	506	0	0	
13	0	0	0	0	512	507	0	0	
14	0	0	0	0	511	509	0	0	
15	0	0	0	0	510	508	0	0	
0	0	0	0	0	511	508	0	0	
1	0	0	0	0	511	508	0	0	
2	0	0	0	0	510	511	0	0	
3	0	0	0	0	509	509	0	0	
4	0	0	0	0	511	509	0	0	
5	0	0	0	0	513	507	0	0	
6	0	0	0	0	511	509	0	0	
7	0	0	0	0	513	513	0	0	
8	0	0	0	0	516	510	0	0	
9	0	0	0	0	513	508	0	0	
10	0	0	0	0	510	507	0	0	
11	0	0	0	0	508	507	0	0	
12	0	0	0	0	508	506	0	0	
13	0	0	0	0	509	506	0	0	
14	0	0	0	0	510	508	0	0	
15	0	0	0	0	509	507	0	0	
0	0	0	0	0	512	508	0	0	
1	0	0	0	0	513	507	0	0	
2	0	0	0	0	512	506	0	0	
3	0	0	0	0	514	508	0	0	
4	0	0	0	0	511	509	0	0	
5	0	0	0	0	511	508	0	0	
6	0	0	0	0	510	511	0	0	
7	0	0	0	0	507	511	0	0	
8	0	0	0	0	507	509	0	0	
9	0	0	0	0	506	509	0	0	
10	0	0	0	0	508	508	0	0	
11	0	0	0	0	507	508	0	0	
12	0	0	0	0	511	508	0	0	
13	0	0	0	0	515	508	0	0	
14	0	0	0	0	515	506	0	0	
15	0	0	0	0	509	509	0	0	
0	0	0	0	0	508	507	0	0	
1	0	0	0	0	510	507	0	0	
2	0	0	0	0	512	508	0	0	
3	0	0	0	0	510	509	0	0	
4	0	0	0	0	512	507	0	0	
5	0	0	0	0	515	506	0	0	
6	0	0	0	0	517	508	0	0	
7	0	0	0	0	513	508	0	0	
8	0	0	0	0	512	509	0	0	
9	0	0	0	0	509	510	0	0	
10	0	0	0	0	509	509	0	0	
11	0	0	0	0	511	510	0	0	
12	0	0	0	0	509	510	0	0	
13	0	0	0	0	512	510	0	0	
14	0	0	0	0	511	509	0	0	
15	0	0	0	0	511	510	0	0	
0	0	0	0	0	511	508	0	0	
1	0	0	0	0	512	508	0	0	
2	0	0	0	0	512	508	0	0	
3	0	0	0	0	508	508	0	0	
4	0	0	0	0	511	506	0	0	
5	0	0	0	0	511	505	0	0	
6	0	0	0	0	512	506	0	0	
7	0	0	0	0	511	507	0	0	
8	0	0	0	0	511	507	0	0	
9	0	0	0	0	512	506	0	0	
10	0	0	0	0	512	508	0	0	
11	0	0	0	0	510	509	0	0	
12	0	0	0	0	512	509	0	0	
13	0	0	0	0	510	509	0	0	
14	0	0	0	0	510	511	0	0	
15	0	0	0	0	510	509	0	0	
0	0	0	0	0	511	510	0	0	
1	0	0	0	0	512	508	0	0	
2	0	0	0	0	512	509	0	0	
3	0	0	0	0	513	508	0	0	
4	0	0	0	0	511	509	0	0	
5	0	0	0	0	511	508	0	0	
6	0	0	0	0	511	507	0	0	
7	0	0	0	0	511	507	0	0	
8	0	0	0	0	509	506	0	0	
9	0	0	0	0	511	508	0	0	
10	0	0	0	0	511	505	0	0	
11	0	0	0	0	512	505	0	0	
12	0	0	0	0	508	507	0	0	
13	0	0	0	0	511	508	0	0	
14	0	0	0	0	508	510	0	0	
15	0	0	0	0	510	508	0	0	
0	0	0	0	0	513	511	0	0	
1	0	0	0	0	512	508	0	0	
2	0	0	0	0	511	510	0	0	
3	0	0	0	0	511	508	0	0	
4	0	0	0	0	509	508	0	0	
5	0	0	0	0	508	509	0	0	
6	0	0	0	0	511	508	0	0	
7	0	0	0	0	513	510	0	0	
8	0	0	0	0	513	508	0	0	
9	0	0	0	0	515	508	0	0	
10	0	0	0	0	514	507	0	0	
11	0	0	0	0	511	506	0	0	
12	0	0	0	0	510	506	0	0	
13	0	0	0	0	511	508	0	0	
14	0	0	0	0	512	506	0	0	
15	0	0	0	0	512	507	0	0	
0	0	0	0	0	512	507	0	0	
1	0	0	0	0	510	507	0	0	
2	0	0	0	0	512	507	0	0	
3	0	0	0	0	511	509	0	0	
4	0	0	0	0	512	510	0	0	
5	0	0	0	0	511	507	0	0	
6	0	0	0	0	512	509	0	0	
7	0	0	0	0	511	511	0	0	
8	0	0	0	0	510	509	0	0	
9	0	0	0	0	509	508	0	0	
10	0	0	0	0	510	508	0	0	
11	0	0	0	0	506	508	0	0	
12	0	0	0	0	510	510	0	0	
13	0	0	0	0	511	508	0	0	
14	0	0	0	0	513	507	0	0	
15	0	0	0	0	513	509	0	0	
0	0	0	0	0	512	507	0	0	
1	0	0	0	0	511	507	0	0	
2	0	0	0	0	510	508	0	0	
3	0	0	0	0	509	507	0	0	
4	0	0	0	0	506	508	0	0	
5	0	0	0	0	507	507	0	0	
6	0	0	0	0	509	506	0	0	
7	0	0	0	0	507	509	0	0	
8	0	0	0	0	508	511	0	0	
9	0	0	0	0	510	508	0	0	
10	0	0	0	0	510	510	0	0	
11	0	0	0	0	512	508	0	0	
12	0	0	0	0	516	509	0	0	
13	0	0	0	0	514	509	0	0	
14	0	0	0	0	515	509	0	0	
15	0	0	0	0	514	507	0	0	
0	0	0	0	0	512	509	0	0	
1	0	0	0	0	513	508	0	0	
2	0	0	0	0	513	508	0	0	
3	0	0	0	0	511	507	0	0	
4	0	0	0	0	512	506	0	0	
5	0	0	0	0	510	504	0	0	
6	0	0	0	0	511	508	0	0	
7	0	0	0	0	510	506	0	0	
8	0	0	0	0	511	508	0	0	
9	0	0	0	0	510	505	0	0	
10	0	0	0	0	510	508	0	0	
11	0	0	0	0	510	511	0	0	
12	0	0	0	0	513	509	0	0	
13	0	0	0	0	510	509	0	0	
14	0	0	0	0	510	509	0	0	
15	0	0	0	0	511	510	0	0	
0	0	0	0	0	512	511	0	0	
1	0	0	0	0	512	510	0	0	
2	0	0	0	0	514	508	0	0	
3	0	0	0	0	512	508	0	0	
4	0	0	0	0	511	507	0	0	
5	0	0	0	0	512	506	0	0	
6	0	0	0	0	513	506	0	0	
7	0	0	0	0	511	508	0	0	
8	0	0	0	0	510	507	0	0	
9	0	0	0	0	512	508	0	0	
10	0	0	0	0	512	507	0	0	
11	0	0	0	0	511	508	0	0	
12	0	0	0	0	507	509	0	0	
13	0	0	0	0	510	507	0	0	
14	0	0	0	0	510	507	0	0	
15	0	0	0	0	510	508	0	0	
0	0	0	0	0	513	509	0	0	
1	0	0	0	0	511	509	0	0	
2	0	0	0	0	509	509	0	0	
3	0	0	0	0	508	510	0	0	
4	0	0	0	0	511	509	0	0	
5	0	0	0	0	510	510	0	0	
6	0	0	0	0	512	508	0	0	
7	0	0	0	0	512	506	0	0	
8	0	0	0	0	512	509	0	0	
9	0	0	0	0	513	510	0	0	
10	0	0	0	0	512	506	0	0	
11	0	0	0	0	512	506	0	0	
12	0	0	0	0	510	506	0	0	
13	0	0	0	0	509	507	0	0	
14	0	0	0	0	510	507	0	0	
15	0	0	0	0	510	507	0	0	
0	0	0	0	0	510	511	0	0	
1	0	0	0	0	513	506	0	0	
2	0	0	0	0	511	509	0	0	
3	0	0	0	0	512	507	0	0	
4	0	0	0	0	512	509	0	0	
5	0	0	0	0	511	510	0	0	
6	0	0	0	0	515	510	0	0	
7	0	0	0	0	511	510	0	0	
8	0	0	0	0	508	508	0	0	
9	0	0	0	0	511	507	0	0	
10	0	0	0	0	511	510	0	0	
11	0	0	0	0	511	509	0	0	
12	0	0	0	0	511	508	0	0	
13	0	0	0	0	513	509	0	0	
14	0	0	0	0	510	508	0	0	
15	0	0	0	0	507	507	0	0	
0	0	0	0	0	510	506	0	0	
1	0	0	0	0	512	507	0	0	
2	0	0	0	0	512	508	0	0	
3	0	0	0	0	511	507	0	0	
4	0	0	0	0	510	505	0	0	
5	0	0	0	0	511	507	0	0	
6	0	0	0	0	513	508	0	0	
7	0	0	0	0	511	509	0	0	
8	0	0	0	0	509	509	0	0	
9	0	0	0	0	512	508	0	0	
10	0	0	0	0	513	509	0	0	
11	0	0	0	0	511	508	0	0	
12	0	0	0	0	511	510	0	0	
13	0	0	0	0	508	511	0	0	
14	0	0	0	0	508	509	0	0	
15	0	0	0	0	510	508	0	0	
0	0	0	0	0	510	507	0	0	
1	0	0	0	0	512	510	0	0	
2	0	0	0	0	514	508	0	0	
3	0	0	0	0	511	506	0	0	
4	0	0	0	0	514	507	0	0	
5	0	0	0	0	511	508	0	0	
6	0	0	0	0	509	506	0	0	
7	0	0	0	0	511	509	0	0	
8	0	0	0	0	510	509	0	0	
9	0	0	0	0	514	507	0	0	
10	0	0	0	0	513	509	0	0	
11	0	0	0	0	509	509	0	0	
12	0	0	0	0	511	509	0	0	
13	0	0	0	0	511	508	0	0	
14	0	0	0	0	511	509	0	0	
15	0	0	0	0	511	511	0	0	
0	0	0	0	0	509	509	0	0	
1	0	0	0	0	508	510	0	0	
2	0	0	0	0	507	508	0	0	
3	0	0	0	0	508	509	0	0	
4	0	0	0	0	511	509	0	0	
5	0	0	0	0	513	506	0	0	
6	0	0	0	0	517	507	0	0	
7	0	0	0	0	518	508	0	0	
8	0	0	0	0	519	505	0	0	
9	0	0	0	0	512	507	0	0	
10	0	0	0	0	513	507	0	0	
11	0	0	0	0	509	509	0	0	
12	0	0	0	0	510	508	0	0	
13	0	0	0	0	509	507	0	0	
14	0	0	0	0	509	510	0	0	
15	0	0	0	0	508	508	0	0	
0	0	0	0	0	508	508	0	0	
1	0	0	0	0	510	509	0	0	
2	0	0	0	0	510	510	0	0	
3	0	0	0	0	511	508	0	0	
4	0	0	0	0	511	510	0	0	
5	0	0	0	0	511	508	0	0	
6	0	0	0	0	511	508	0	0	
7	0	0	0	0	509	508	0	0	
8	0	0	0	0	512	511	0	0	
9	0	0	0	0	511	507	0	0	
10	0	0	0	0	516	508	0	0	
11	0	0	0	0	512	509	0	0	
12	0	0	0	0	512	505	0	0	
13	0	0	0	0	511	507	0	0	
14	0	0	0	0	509	509	0	0	
15	0	0	0	0	506	509	0	0	
0	0	0	0	0	507	507	0	0	
1	0	0	0	0	508	507	0	0	
2	0	0	0	0	510	507	0	0	
3	0	0	0	0	514	508	0	0	
4	0	0	0	0	510	510	0	0	
5	0	0	0	0	511	508	0	0	
6	0	0	0	0	512	508	0	0	
7	0	0	0	0	511	512	0	0	
8	0	0	0	0	511	510	0	0	
9	0	0	0	0	513	509	0	0	
10	0	0	0	0	511	509	0	0	
11	0	0	0	0	513	510	0	0	
12	0	0	0	0	511	510	0	0	
13	0	0	0	0	512	508	0	0	
14	0	0	0	0	509	508	0	0	
15	0	0	0	0	511	506	0	0	
0	0	0	0	0	511	506	0	0	
1	0	0	0	0	511	506	0	0	
2	0	0	0	0	513	509	0	0	
3	0	0	0	0	512	507	0	0	
4	0	0	0	0	512	508	0	0	
5	0	0	0	0	512	509	0	0	
6	0	0	0	0	508	508	0	0	
7	0	0	0	0	509	509	0	0	
8	0	0	0	0	509	510	0	0	
9	0	0	0	0	510	510	0	0	
10	0	0	0	0	511	509	0	0	
11	0	0	0	0	512	509	0	0	
12	0	0	0	0	511	508	0	0	
13	0	0	0	0	511	506	0	0	
14	0	0	0	0	513	509	0	0	
15	0	0	0	0	511	509	0	0	
0	0	0	0	0	511	509	0	0	
1	0	0	0	0	510	507	0	0	
2	0	0	0	0	509	507	0	0	
3	0	0	0	0	510	508	0	0	
4	0	0	0	0	513	507	0	0	
5	0	0	0	0	513	507	0	0	
6	0	0	0	0	512	508	0	0	
7	0	0	0	0	511	509	0	0	
8	0	0	0	0	511	507	0	0	
9	0	0	0	0	510	506	0	0	
10	0	0	0	0	511	508	0	0	
11	0	0	0	0	509	509	0	0	
12	0	0	0	0	508	508	0	0	
13	0	0	0	0	509	509	0	0	
14	0	0	0	0	512	508	0	0	
15	0	0	0	0	513	507	0	0	
0	0	0	0	0	513	507	0	0	
1	0	0	0	0	513	510	0	0	
2	0	0	0	0	512	508	0	0	
3	0	0	0	0	513	508	0	0	
4	0	0	0	0	510	509	0	0	
5	0	0	0	0	510	508	0	0	
6	0	0	0	0	515	508	0	0	
7	0	0	0	0	510	507	0	0	
8	0	0	0	0	510	507	0	0	
9	0	0	0	0	511	509	0	0	
10	0	0	0	0	511	507	0	0	
11	0	0	0	0	510	506	0	0	
12	0	0	0	0	512	508	0	0	
13	0	0	0	0	511	506	0	0	
14	0	0	0	0	511	504	0	0	
15	0	0	0	0	507	507	0	0	
0	0	0	0	0	509	510	0	0	
1	0	0	0	0	508	510	0	0	
2	0	0	0	0	509	510	0	0	
3	0	0	0	0	508	510	0	0	
4	0	0	0	0	510	508	0	0	
5	0	0	0	0	510	508	0	0	
6	0	0	0	0	510	508	0	0	
7	0	0	0	0	511	508	0	0	
8	0	0	0	0	515	511	0	0	
9	0	0	0	0	519	508	0	0	
10	0	0	0	0	517	506	0	0	
11	0	0	0	0	515	508	0	0	
12	0	0	0	0	512	507	0	0	
13	0	0	0	0	514	507	0	0	
14	0	0	0	0	509	507	0	0	
15	0	0	0	0	508	506	0	0	
0	0	0	0	0	510	506	0	0	
1	0	0	0	0	511	507	0	0	
2	0	0	0	0	508	508	0	0	
3	0	0	0	0	507	508	0	0	
4	0	0	0	0	509	510	0	0	
5	0	0	0	0	508	510	0	0	
6	0	0	0	0	511	509	0	0	
7	0	0	0	0	513	509	0	0	
8	0	0	0	0	512	508	0	0	
9	0	0	0	0	513	512	0	0	
10	0	0	0	0	511	509	0	0	
11	0	0	0	0	508	509	0	0	
12	0	0	0	0	509	508	0	0	
13	0	0	0	0	512	508	0	0	
14	0	0	0	0	510	506	0	0	
15	0	0	0	0	512	508	0	0	
0	0	0	0	0	513	507	0	0	
1	0	0	0	0	513	506	0	0	
2	0	0	0	0	511	508	0	0	
3	0	0	0	0	511	509	0	0	
4	0	0	0	0	509	506	0	0	
5	0	0	0	0	509	506	0	0	
6	0	0	0	0	508	507	0	0	
7	0	0	0	0	510	508	0	0	
8	0	0	0	0	510	510	0	0	
9	0	0	0	0	511	508	0	0	
10	0	0	0	0	516	511	0	0	
11	0	0	0	0	515	510	0	0	
12	0	0	0	0	511	510	0	0	
13	0	0	0	0	510	509	0	0	
14	0	0	0	0	508	508	0	0	
15	0	0	0	0	508	508	0	0	
0	0	0	0	0	509	507	0	0	
1	0	0	0	0	512	508	0	0	
2	0	0	0	0	512	507	0	0	
3	0	0	0	0	511	507	0	0	
4	0	0	0	0	513	506	0	0	
5	0	0	0	0	514	507	0	0	
6	0	0	0	0	512	505	0	0	
7	0	0	0	0	509	508	0	0	
8	0	0	0	0	509	509	0	0	
9	0	0	0	0	509	506	0	0	
10	0	0	0	0	508	506	0	0	
11	0	0	0	0	508	509	0	0	
12	0	0	0	0	506	510	0	0	
13	0	0	0	0	506	510	0	0	
14	0	0	0	0	509	510	0	0	
15	0	0	0	0	513	508	0	0	
0	0	0	0	0	513	507	0	0	
1	0	0	0	0	513	509	0	0	
2	0	0	0	0	513	509	0	0	
3	0	0	0	0	514	509	0	0	
4	0	0	0	0	512	508	0	0	
5	0	0	0	0	510	509	0	0	
6	0	0	0	0	511	506	0	0	
7	0	0	0	0	513	508	0	0	
8	0	0	0	0	512	507	0	0	
9	0	0	0	0	508	510	0	0	
10	0	0	0	0	509	507	0	0	
11	0	0	0	0	511	508	0	0	
12	0	0	0	0	511	505	0	0	
13	0	0	0	0	511	506	0	0	
14	0	0	0	0	511	507	0	0	
15	0	0	0	0	507	507	0	0	
0	0	0	0	0	511	508	0	0	
1	0	0	0	0	513	510	0	0	
2	0	0	0	0	512	510	0	0	
3	0	0	0	0	515	509	0	0	
4	0	0	0	0	511	510	0	0	
5	0	0	0	0	511	509	0	0	
6	0	0	0	0	511	507	0	0	
7	0	0	0	0	509	507	0	0	
8	0	0	0	0	508	510	0	0	
9	0	0	0	0	509	508	0	0	
10	0	0	0	0	513	507	0	0	
11	0	0	0	0	512	507	0	0	
12	0	0	0	0	514	506	0	0	
13	0	0	0	0	511	507	0	0	
14	0	0	0	0	511	507	0	0	
15	0	0	0	0	508	509	0	0	
0	0	0	0	0	509	505	0	0	
1	0	0	0	0	510	506	0	0	
2	0	0	0	0	510	508	0	0	
3	0	0	0	0	507	509	0	0	
4	0	0	0	0	512	508	0	0	
5	0	0	0	0	513	510	0	0	
6	0	0	0	0	513	511	0	0	
7	0	0	0	0	513	510	0	0	
8	0	0	0	0	515	508	0	0	
9	0	0	0	0	514	510	0	0	
10	0	0	0	0	512	509	0	0	
11	0	0	0	0	512	510	0	0	
12	0	0	0	0	509	507	0	0	
13	0	0	0	0	510	507	0	0	
14	0	0	0	0	513	507	0	0	
15	0	0	0	0	513	508	0	0	
0	0	0	0	0	512	507	0	0	
1	0	0	0	0	510	506	0	0	
2	0	0	0	0	512	506	0	0	
3	0	0	0	0	510	505	0	0	
4	0	0	0	0	511	507	0	0	
5	0	0	0	0	511	508	0	0	
6	0	0	0	0	509	507	0	0	
7	0	0	0	0	508	510	0	0	
8	0	0	0	0	510	509	0	0	
9	0	0	0	0	510	509	0	0	
10	0	0	0	0	509	508	0	0	
11	0	0	0	0	511	509	0	0	
12	0	0	0	0	515	510	0	0	
13	0	0	0	0	514	510	0	0	
14	0	0	0	0	509	508	0	0	
15	0	0	0	0	506	510	0	0	
0	0	0	0	0	506	508	0	0	
1	0	0	0	0	509	509	0	0	
2	0	0	0	0	512	508	0	0	
3	0	0	0	0	511	506	0	0	
4	0	0	0	0	512	507	0	0	
5	0	0	0	0	511	507	0	0	
6	0	0	0	0	512	507	0	0	
7	0	0	0	0	514	506	0	0	
8	0	0	0	0	511	507	0	0	
9	0	0	0	0	510	506	0	0	
10	0	0	0	0	511	508	0	0	
11	0	0	0	0	511	510	0	0	
12	0	0	0	0	512	508	0	0	
13	0	0	0	0	511	510	0	0	
14	0	0	0	0	511	508	0	0	
15	0	0	0	0	511	510	0	0	
0	0	0	0	0	508	509	0	0	
1	0	0	0	0	511	508	0	0	
2	0	0	0	0	511	508	0	0	
3	0	0	0	0	511	511	0	0	
4	0	0	0	0	513	510	0	0	
5	0	0	0	0	515	506	0	0	
6	0	0	0	0	512	506	0	0	
7	0	0	0	0	513	507	0	0	
8	0	0	0	0	512	507	0	0	
9	0	0	0	0	509	508	0	0	
10	0	0	0	0	508	507	0	0	
11	0	0	0	0	509	508	0	0	
12	0	0	0	0	513	506	0	0	
13	0	0	0	0	511	508	0	0	
14	0	0	0	0	508	508	0	0	
15	0	0	0	0	508	508	0	0	
0	0	0	0	0	511	508	0	0	
1	0	0	0	0	506	509	0	0	
2	0	0	0	0	507	508	0	0	
3	0	0	0	0	511	510	0	0	
4	0	0	0	0	512	508	0	0	
5	0	0	0	0	514	509	0	0	
6	0	0	0	0	515	509	0	0	
7	0	0	0	0	512	508	0	0	
8	0	0	0	0	510	510	0	0	
9	0	0	0	0	514	508	0	0	
10	0	0	0	0	510	507	0	0	
11	0	0	0	0	512	505	0	0	
12	0	0	0	0	513	507	0	0	
13	0	0	0	0	511	510	0	0	
14	0	0	0	0	511	510	0	0	
15	0	0	0	0	513	507	0	0	
0	0	0	0	0	511	506	0	0	
1	0	0	0	0	509	505	0	0	
2	0	0	0	0	508	508	0	0	
3	0	0	0	0	511	509	0	0	
4	0	0	0	0	508	509	0	0	
5	0	0	0	0	508	508	0	0	
6	0	0	0	0	509	510	0	0	
7	0	0	0	0	511	510	0	0	
8	0	0	0	0	513	508	0	0	
9	0	0	0	0	514	508	0	0	
10	0	0	0	0	514	508	0	0	
11	0	0	0	0	511	509	0	0	
12	0	0	0	0	512	508	0	0	
13	0	0	0	0	513	509	0	0	
14	0	0	0	0	514	508	0	0	
15	0	0	0	0	512	507	0	0	
0	0	0	0	0	508	508	0	0	
1	0	0	0	0	509	507	0	0	
2	0	0	0	0	510	507	0	0	
3	0	0	0	0	512	509	0	0	
4	0	0	0	0	510	508	0	0	
5	0	0	0	0	512	506	0	0	
6	0	0	0	0	509	506	0	0	
7	0	0	0	0	509	507	0	0	
8	0	0	0	0	510	510	0	0	
9	0	0	0	0	511	508	0	0	
10	0	0	0	0	511	511	0	0	
11	0	0	0	0	512	511	0	0	
12	0	0	0	0	511	509	0	0	
13	0	0	0	0	511	508	0	0	
14	0	0	0	0	512	508	0	0	
15	0	0	0	0	512	507	0	0	
0	0	0	0	0	514	509	0	0	
1	0	0	0	0	511	508	0	0	
2	0	0	0	0	509	508	0	0	
3	0	0	0	0	507	506	0	0	
4	0	0	0	0	510	507	0	0	
5	0	0	0	0	508	508	0	0	
6	0	0	0	0	512	506	0	0	
7	0	0	0	0	513	508	0	0	
8	0	0	0	0	516	506	0	0	
9	0	0	0	0	514	508	0	0	
10	0	0	0	0	515	508	0	0	
11	0	0	0	0	510	508	0	0	
12	0	0	0	0	507	511	0	0	
13	0	0	0	0	507	508	0	0	
14	0	0	0	0	510	508	0	0	
15	0	0	0	0	509	509	0	0	
0	0	0	0	0	511	509	0	0	
1	0	0	0	0	512	512	0	0	
2	0	0	0	0	512	510	0	0	
3	0	0	0	0	511	512	0	0	
4	0	0	0	0	512	508	0	0	
5	0	0	0	0	508	506	0	0	
6	0	0	0	0	511	507	0	0	
7	0	0	0	0	511	507	0	0	
8	0	0	0	0	511	507	0	0	
9	0	0	0	0	513	506	0	0	
10	0	0	0	0	511	508	0	0	
11	0	0	0	0	511	507	0	0	
12	0	0	0	0	511	508	0	0	
13	0	0	0	0	511	507	0	0	
14	0	0	0	0	508	508	0	0	
15	0	0	0	0	509	509	0	0	
0	0	0	0	0	511	512	0	0	
1	0	0	0	0	510	510	0	0	
2	0	0	0	0	511	508	0	0	
3	0	0	0	0	512	509	0	0	
4	0	0	0	0	512	508	0	0	
5	0	0	0	0	511	508	0	0	
6	0	0	0	0	510	508	0	0	
7	0	0	0	0	512	510	0	0	
8	0	0	0	0	512	508	0	0	
9	0	0	0	0	511	508	0	0	
10	0	0	0	0	511	505	0	0	
11	0	0	0	0	514	508	0	0	
12	0	0	0	0	515	504	0	0	
13	0	0	0	0	516	508	0	0	
14	0	0	0	0	512	509	0	0	
15	0	0	0	0	508	507	0	0	
0	0	0	0	0	505	508	0	0	
1	0	0	0	0	509	506	0	0	
2	0	0	0	0	511	507	0	0	
3	0	0	0	0	511	510	0	0	
4	0	0	0	0	511	509	0	0	
5	0	0	0	0	507	507	0	0	
6	0	0	0	0	508	509	0	0	
7	0	0	0	0	511	512	0	0	
8	0	0	0	0	512	508	0	0	
9	0	0	0	0	510	507	0	0	
10	0	0	0	0	510	508	0	0	
11	0	0	0	0	510	509	0	0	
12	0	0	0	0	511	509	0	0	
13	0	0	0	0	512	509	0	0	
14	0	0	0	0	512	505	0	0	
15	0	0	0	0	512	509	0	0	
0	0	0	0	0	516	507	0	0	
1	0	0	0	0	516	508	0	0	
2	0	0	0	0	510	508	0	0	
3	0	0	0	0	511	509	0	0	
4	0	0	0	0	510	508	0	0	
5	0	0	0	0	509	507	0	0	
6	0	0	0	0	508	508	0	0	
7	0	0	0	0	508	508	0	0	
8	0	0	0	0	509	509	0	0	
9	0	0	0	0	511	509	0	0	
10	0	0	0	0	511	510	0	0	
11	0	0	0	0	508	508	0	0	
12	0	0	0	0	513	509	0	0	
13	0	0	0	0	511	509	0	0	
14	0	0	0	0	510	508	0	0	
15	0	0	0	0	512	509	0	0	
0	0	0	0	0	512	509	0	0	
1	0	0	0	0	512	507	0	0	
2	0	0	0	0	513	508	0	0	
3	0	0	0	0	514	507	0	0	
4	0	0	0	0	515	508	0	0	
5	0	0	0	0	512	509	0	0	
6	0	0	0	0	508	507	0	0	
7	0	0	0	0	504	508	0	0	
8	0	0	0	0	506	507	0	0	
9	0	0	0	0	507	506	0	0	
10	0	0	0	0	510	506	0	0	
11	0	0	0	0	511	509	0	0	
12	0	0	0	0	511	510	0	0	
13	0	0	0	0	512	511	0	0	
14	0	0	0	0	511	510	0	0	
15	0	0	0	0	510	509	0	0	
0	0	0	0	0	511	508	0	0	
1	0	0	0	0	513	509	0	0	
2	0	0	0	0	510	508	0	0	
3	0	0	0	0	514	510	0	0	
4	0	0	0	0	516	508	0	0	
5	0	0	0	0	519	506	0	0	
6	0	0	0	0	519	508	0	0	
7	0	0	0	0	513	507	0	0	
8	0	0	0	0	511	506	0	0	
9	0	0	0	0	508	505	0	0	
10	0	0	0	0	510	507	0	0	
11	0	0	0	0	511	507	0	0	
12	0	0	0	0	507	507	0	0	
13	0	0	0	0	508	508	0	0	
14	0	0	0	0	511	508	0	0	
15	0	0	0	0	509	506	0	0	
0	0	0	0	0	511	509	0	0	
1	0	0	0	0	511	509	0	0	
2	0	0	0	0	512	509	0	0	
3	0	0	0	0	513	511	0	0	
4	0	0	0	0	512	511	0	0	
5	0	0	0	0	511	507	0	0	
6	0	0	0	0	507	508	0	0	
7	0	0	0	0	512	510	0	0	
8	0	0	0	0	510	508	0	0	
9	0	0	0	0	512	509	0	0	
10	0	0	0	0	511	508	0	0	
11	0	0	0	0	509	506	0	0	
12	0	0	0	0	511	508	0	0	
13	0	0	0	0	512	507	0	0	
14	0	0	0	0	511	508	0	0	
15	0	0	0	0	511	507	0	0	
0	0	0	0	0	513	507	0	0	
1	0	0	0	0	511	508	0	0	
2	0	0	0	0	510	509	0	0	
3	0	0	0	0	509	507	0	0	
4	0	0	0	0	508	510	0	0	
5	0	0	0	0	509	510	0	0	
6	0	0	0	0	512	509	0	0	
7	0	0	0	0	511	511	0	0	
8	0	0	0	0	515	509	0	0	
9	0	0	0	0	511	508	0	0	
10	0	0	0	0	513	508	0	0	
11	0	0	0	0	510	507	0	0	
12	0	0	0	0	511	508	0	0	
13	0	0	0	0	511	509	0	0	
14	0	0	0	0	511	509	0	0	
15	0	0	0	0	512	508	0	0	
0	0	0	0	0	514	507	0	0	
1	0	0	0	0	513	510	0	0	
2	0	0	0	0	513	507	0	0	
3	0	0	0	0	511	507	0	0	
4	0	0	0	0	511	507	0	0	
5	0	0	0	0	508	505	0	0	
6	0	0	0	0	510	509	0	0	
7	0	0	0	0	511	509	0	0	
8	0	0	0	0	512	507	0	0	
9	0	0	0	0	511	508	0	0	
10	0	0	0	0	508	508	0	0	
11	0	0	0	0	511	510	0	0	
12	0	0	0	0	507	508	0	0	
13	0	0	0	0	511	508	0	0	
14	0	0	0	0	510	507	0	0	
15	0	0	0	0	511	510	0	0	
0	0	0	0	0	510	512	0	0	
1	0	0	0	0	511	508	0	0	
2	0	0	0	0	511	508	0	0	
3	0	0	0	0	511	507	0	0	
4	0	0	0	0	513	507	0	0	
5	0	0	0	0	515	506	0	0	
6	0	0	0	0	510	508	0	0	
7	0	0	0	0	511	507	0	0	
8	0	0	0	0	511	509	0	0	
9	0	0	0	0	514	509	0	0	
10	0	0	0	0	511	505	0	0	
11	0	0	0	0	507	508	0	0	
12	0	0	0	0	503	509	0	0	
13	0	0	0	0	506	508	0	0	
14	0	0	0	0	511	510	0	0	
15	0	0	0	0	511	509	0	0	
0	0	0	0	0	512	508	0	0	
1	0	0	0	0	512	509	0	0	
2	0	0	0	0	513	507	0	0	
3	0	0	0	0	511	509	0	0	
4	0	0	0	0	514	509	0	0	
5	0	0	0	0	513	507	0	0	
6	0	0	0	0	511	508	0	0	
7	0	0	0	0	513	504	0	0	
8	0	0	0	0	513	507	0	0	
9	0	0	0	0	511	507	0	0	
10	0	0	0	0	509	508	0	0	
11	0	0	0	0	512	508	0	0	
12	0	0	0	0	511	507	0	0	
13	0	0	0	0	510	510	0	0	
14	0	0	0	0	510	509	0	0	
15	0	0	0	0	510	508	0	0	
0	0	0	0	0	506	508	0	0	
1	0	0	0	0	506	508	0	0	
2	0	0	0	0	508	511	0	0	
3	0	0	0	0	508	508	0	0	
4	0	0	0	0	509	511	0	0	
5	0	0	0	0	512	510	0	0	
6	0	0	0	0	516	507	0	0	
7	0	0	0	0	519	509	0	0	
8	0	0	0	0	521	510	0	0	
9	0	0	0	0	517	507	0	0	
10	0	0	0	0	513	508	0	0	
11	0	0	0	0	517	508	0	0	
12	0	0	0	0	514	505	0	0	
13	0	0	0	0	513	507	0	0	
14	0	0	0	0	510	508	0	0	
15	0	0	0	0	511	506	0	0	
0	0	0	0	0	508	510	0	0	
1	0	0	0	0	505	508	0	0	
2	0	0	0	0	506	507	0	0	
3	0	0	0	0	506	508	0	0	
4	0	0	0	0	509	510	0	0	
5	0	0	0	0	510	508	0	0	
6	0	0	0	0	511	508	0	0	
7	0	0	0	0	511	510	0	0	
8	0	0	0	0	509	510	0	0	
9	0	0	0	0	511	508	0	0	
10	0	0	0	0	512	508	0	0	
11	0	0	0	0	512	509	0	0	
12	0	0	0	0	511	508	0	0	
13	0	0	0	0	511	508	0	0	
14	0	0	0	0	511	508	0	0	
15	0	0	0	0	509	507	0	0	
0	0	0	0	0	510	505	0	0	
1	0	0	0	0	511	510	0	0	
2	0	0	0	0	510	508	0	0	
3	0	0	0	0	511	510	0	0	
4	0	0	0	0	513	505	0	0	
5	0	0	0	0	512	506	0	0	
6	0	0	0	0	512	506	0	0	
7	0	0	0	0	509	508	0	0	
8	0	0	0	0	512	509	0	0	
9	0	0	0	0	510	509	0	0	
10	0	0	0	0	507	509	0	0	
11	0	0	0	0	511	508	0	0	
12	0	0	0	0	513	508	0	0	
13	0	0	0	0	511	508	0	0	
14	0	0	0	0	513	510	0	0	
15	0	0	0	0	512	506	0	0	
0	0	0	0	0	510	509	0	0	
1	0	0	0	0	513	510	0	0	
2	0	0	0	0	514	508	0	0	
3	0	0	0	0	515	507	0	0	
4	0	0	0	0	513	507	0	0	
5	0	0	0	0	514	508	0	0	
6	0	0	0	0	513	508	0	0	
7	0	0	0	0	510	507	0	0	
8	0	0	0	0	506	507	0	0	
9	0	0	0	0	508	508	0	0	
10	0	0	0	0	508	508	0	0	
11	0	0	0	0	508	508	0	0	
12	0	0	0	0	510	507	0	0	
13	0	0	0	0	511	509	0	0	
14	0	0	0	0	512	509	0	0	
15	0	0	0	0	510	508	0	0	
0	0	0	0	0	511	508	0	0	
1	0	0	0	0	514	510	0	0	
2	0	0	0	0	516	509	0	0	
3	0	0	0	0	515	509	0	0	
4	0	0	0	0	510	509	0	0	
5	0	0	0	0	511	509	0	0	
6	0	0	0	0	515	507	0	0	
7	0	0	0	0	513	507	0	0	
8	0	0	0	0	507	507	0	0	
9	0	0	0	0	493	507	0	0	
10	0	0	0	0	503	509	0	0	
11	0	0	0	0	511	507	0	0	
12	0	0	0	0	515	507	0	0	
13	0	0	0	0	517	507	0	0	
14	0	0	0	0	518	505	0	0	
15	0	0	0	0	514	508	0	0	
0	0	0	0	0	512	510	0	0	
1	0	0	0	0	508	508	0	0	
2	0	0	0	0	509	508	0	0	
3	0	0	0	0	500	511	0	0	
4	0	0	0	0	506	510	0	0	
5	0	0	0	0	516	507	0	0	
6	0	0	0	0	510	507	0	0	
7	0	0	0	0	508	508	0	0	
8	0	0	0	0	505	508	0	0	
9	0	0	0	0	513	509	0	0	
10	0	0	0	0	515	511	0	0	
11	0	0	0	0	513	508	0	0	
12	0	0	0	0	512	508	0	0	
13	0	0	0	0	514	508	0	0	
14	0	0	0	0	523	506	0	0	
15	0	0	0	0	530	508	0	0	
0	0	0	0	0	502	506	0	0	
1	0	0	0	0	493	508	0	0	
2	0	0	0	0	508	509	0	0	
3	0	0	0	0	526	508	0	0	
4	0	0	0	0	533	511	0	0	
5	0	0	0	0	526	509	0	0	
6	0	0	0	0	530	513	0	0	
7	0	0	0	0	523	514	0	0	
8	0	0	0	0	515	517	0	0	
9	0	0	0	0	515	512	0	0	
10	0	0	0	0	514	508	0	0	
11	0	0	0	0	508	510	0	0	
12	0	0	0	0	425	513	0	0	
13	0	0	0	0	426	511	0	0	
14	0	0	0	0	487	508	0	0	
15	0	0	0	0	553	497	0	0	
0	0	0	0	0	590	500	0	0	
1	0	0	0	0	555	510	0	0	
2	0	0	0	0	517	510	0	0	
3	0	0	0	0	542	504	0	0	
4	0	0	0	0	553	489	0	0	
5	0	0	0	0	507	497	0	0	
6	0	0	0	0	375	512	0	0	
7	0	0	0	0	428	517	0	0	
8	0	0	0	0	483	526	0	0	
9	0	0	0	0	553	527	0	0	
10	0	0	0	0	575	512	0	0	
11	0	0	0	0	592	491	0	0	
12	0	0	0	0	596	496	0	0	
13	0	0	0	0	523	504	0	0	
14	0	0	0	0	394	492	0	0	
15	0	0	0	0	392	484	0	0	
0	0	0	0	0	405	504	0	0	
1	0	0	0	0	558	528	0	0	
2	0	0	0	0	663	548	0	0	
3	0	0	0	0	588	538	0	0	
4	0	0	0	0	504	525	0	0	
5	0	0	0	0	515	523	0	0	
6	0	0	0	0	574	511	0	0	
7	0	0	0	0	493	505	0	0	
8	0	0	0	0	435	480	0	0	
9	0	0	0	0	284	446	0	0	
10	0	0	0	0	284	448	0	0	
11	0	0	0	0	492	479	0	0	
12	0	0	0	0	598	505	0	0	
13	0	0	0	0	543	526	0	0	
14	0	0	0	0	575	520	0	0	
15	0	0	0	0	772	506	0	0	
0	0	0	0	0	796	506	0	0	
1	0	0	0	0	540	526	0	0	
2	0	0	0	0	479	537	0	0	
3	0	0	0	0	431	527	0	0	
4	0	0	0	0	407	517	0	0	
5	0	0	0	0	496	523	0	0	
6	0	0	0	0	621	537	0	0	
7	0	0	0	0	594	540	0	0	
8	0	0	0	0	517	523	0	0	
9	0	0	0	0	367	499	0	0	
10	0	0	0	0	379	495	0	0	
11	0	0	0	0	331	499	0	0	
12	0	0	0	0	393	487	0	0	
13	0	0	0	0	476	441	0	0	
14	0	0	0	0	463	448	0	0	
15	0	0	0	0	606	487	0	0	
0	0	0	0	0	642	511	0	0	
1	0	0	0	0	579	507	0	0	
2	0	0	0	0	428	500	0	0	
3	0	0	0	0	319	511	0	0	
4	0	0	0	0	568	531	0	0	
5	0	0	0	0	636	547	0	0	
6	0	0	0	0	645	548	0	0	
7	0	0	0	0	817	538	0	0	
8	0	0	0	0	660	519	0	0	
9	0	0	0	0	393	508	0	0	
10	0	0	0	0	394	503	0	0	
11	0	0	0	0	441	519	0	0	
12	0	0	0	0	447	516	0	0	
13	0	0	0	0	427	505	0	0	
14	0	0	0	0	448	505	0	0	
15	0	0	0	0	372	509	0	0	
0	0	0	0	0	182	508	0	0	
1	0	0	0	0	326	482	0	0	
2	0	0	0	0	567	468	0	0	
3	0	0	0	0	759	491	0	0	
4	0	0	0	0	765	530	0	0	
5	0	0	0	0	735	539	0	0	
6	0	0	0	0	759	531	0	0	
7	0	0	0	0	607	529	0	0	
8	0	0	0	0	335	514	0	0	
9	0	0	0	0	343	517	0	0	
10	0	0	0	0	449	514	0	0	
11	0	0	0	0	617	500	0	0	
12	0	0	0	0	615	488	0	0	
13	0	0	0	0	411	483	0	0	
14	0	0	0	0	451	503	0	0	
15	0	0	0	0	487	504	0	0	
0	0	0	0	0	541	506	0	0	
1	0	0	0	0	446	504	0	0	
2	0	0	0	0	525	493	0	0	
3	0	0	0	0	645	496	0	0	
4	0	0	0	0	622	532	0	0	
5	0	0	0	0	396	547	0	0	
6	0	0	0	0	214	519	0	0	
7	0	0	0	0	478	500	0	0	
8	0	0	0	0	606	491	0	0	
9	0	0	0	0	568	484	0	0	
10	0	0	0	0	497	488	0	0	
11	0	0	0	0	448	510	0	0	
12	0	0	0	0	564	515	0	0	
13	0	0	0	0	579	512	0	0	
14	0	0	0	0	611	509	0	0	
15	0	0	0	0	519	512	0	0	
0	0	0	0	0	580	520	0	0	
1	0	0	0	0	500	524	0	0	
2	0	0	0	0	467	512	0	0	
3	0	0	0	0	523	489	0	0	
4	0	0	0	0	476	483	0	0	
5	0	0	0	0	347	516	0	0	
6	0	0	0	0	330	522	0	0	
7	0	0	0	0	512	515	0	0	
8	0	0	0	0	564	509	0	0	
9	0	0	0	0	484	503	0	0	
10	0	0	0	0	570	505	0	0	
11	0	0	0	0	661	523	0	0	
12	0	0	0	0	592	532	0	0	
13	0	0	0	0	526	521	0	0	
14	0	0	0	0	283	499	0	0	
15	0	0	0	0	223	506	0	0	
0	0	0	0	0	393	496	0	0	
1	0	0	0	0	778	484	0	0	
2	0	0	0	0	790	482	0	0	
3	0	0	0	0	597	519	0	0	
4	0	0	0	0	747	525	0	0	
5	0	0	0	0	671	519	0	0	
6	0	0	0	0	444	526	0	0	
7	0	0	0	0	459	526	0	0	
8	0	0	0	0	549	509	0	0	
9	0	0	0	0	319	510	0	0	
10	0	0	0	0	141	487	0	0	
11	0	0	0	0	259	479	0	0	
12	0	0	0	0	465	489	0	0	
13	0	0	0	0	618	492	0	0	
14	0	0	0	0	580	499	0	0	
15	0	0	0	0	465	505	0	0	
0	0	0	0	0	449	515	0	0	
1	0	0	0	0	558	519	0	0	
2	0	0	0	0	583	517	0	0	
3	0	0	0	0	584	523	0	0	
4	0	0	0	0	628	522	0	0	
5	0	0	0	0	619	518	0	0	
6	0	0	0	0	643	517	0	0	
7	0	0	0	0	394	517	3	0	
8	0	0	0	0	240	513	8	0	
9	0	0	0	0	388	485	10	0	
10	0	0	0	0	653	479	11	0	
11	0	0	0	0	609	497	22	0	
12	0	0	0	0	473	502	27	0	
13	0	0	0	0	443	501	28	0	
14	0	0	0	0	520	519	31	0	
15	0	0	0	0	719	539	32	0	
0	0	0	0	0	734	534	33	0	
1	0	0	0	0	519	520	32	0	
2	0	0	0	0	453	529	32	0	
3	0	0	0	0	428	527	32	0	
4	0	0	0	0	482	496	34	0	
5	0	0	0	0	551	487	35	0	
6	0	0	0	0	656	487	37	0	
7	0	0	0	0	634	486	39	0	
8	0	0	0	0	606	490	40	0	
9	0	0	0	0	499	504	39	0	
10	0	0	0	0	306	530	45	0	
11	0	0	0	0	241	527	44	0	
12	0	0	0	0	220	524	47	0	
13	0	0	0	0	429	483	56	0	
14	0	0	0	0	565	475	57	0	
15	0	0	0	0	590	489	57	0	
0	0	0	0	0	550	498	60	0	
1	0	0	0	0	381	502	61	0	
2	0	0	0	0	354	514	63	0	
3	0	0	0	0	577	524	66	0	
4	0	0	0	0	870	531	76	0	
5	0	0	0	0	736	537	80	0	
6	0	0	0	0	655	544	80	0	
7	0	0	0	0	562	540	84	0	
8	0	0	0	0	424	521	85	0	
9	0	0	0	0	392	499	89	0	
10	0	0	0	0	449	493	90	0	
11	0	0	0	0	408	486	93	0	
12	0	0	0	0	452	454	95	0	
13	0	0	0	0	451	483	96	0	
14	0	0	0	0	570	511	98	0	
15	0	0	0	0	443	530	103	0	
0	0	0	0	0	419	518	102	0	
1	0	0	0	0	475	518	104	0	
2	0	0	0	0	504	524	106	0	
3	0	0	0	0	549	503	111	0	
4	0	0	0	0	530	502	115	0	
5	0	0	0	0	616	511	117	0	
6	0	0	0	0	754	518	120	0	
7	0	0	0	0	654	513	122	0	
8	0	0	0	0	630	501	130	0	
9	0	0	0	0	626	503	131	0	
10	0	0	0	0	347	505	129	0	
11	0	0	0	0	259	493	137	0	
12	0	0	0	0	353	464	143	0	
13	0	0	0	0	409	454	142	0	
14	0	0	0	0	554	487	146	0	
15	0	0	0	0	594	498	148	0	
0	0	0	0	0	454	513	148	0	
1	0	0	0	0	464	527	151	0	
2	0	0	0	0	530	531	155	0	
3	0	0	0	0	510	529	152	0	
4	0	0	0	0	476	540	154	0	
5	0	0	0	0	554	527	156	0	
6	0	0	0	0	492	514	161	0	
7	0	0	0	0	422	516	162	0	
8	0	0	0	0	591	515	163	0	
9	0	0	0	0	745	507	163	0	
10	0	0	0	0	536	510	166	0	
11	0	0	0	0	205	507	168	0	
12	0	0	0	0	433	504	171	0	
13	0	0	0	0	559	509	172	0	
14	0	0	0	0	669	510	176	0	
15	0	0	0	0	656	508	176	0	
0	0	0	0	0	219	519	176	0	
1	0	0	0	0	466	510	179	0	
2	0	0	0	0	509	486	178	0	
3	0	0	0	0	586	492	182	0	
4	0	0	0	0	579	511	183	0	
5	0	0	0	0	668	518	183	0	
6	0	0	0	0	568	525	185	0	
7	0	0	0	0	570	535	188	0	
8	0	0	0	0	529	529	187	0	
9	0	0	0	0	424	525	192	0	
10	0	0	0	0	338	521	193	0	
11	0	0	0	0	462	491	192	0	
12	0	0	0	0	576	475	191	0	
13	0	0	0	0	635	484	192	0	
14	0	0	0	0	582	497	196	0	
15	0	0	0	0	590	504	196	0	
0	0	0	0	0	384	489	195	0	
1	0	0	0	0	367	479	198	0	
2	0	0	0	0	467	476	199	0	
3	0	0	0	0	473	499	201	0	
4	0	0	0	0	574	499	202	0	
5	0	0	0	0	507	512	202	0	
6	0	0	0	0	423	526	204	0	
7	0	0	0	0	513	536	203	0	
8	0	0	0	0	524	520	203	0	
9	0	0	0	0	514	517	204	0	
10	0	0	0	0	528	519	203	0	
11	0	0	0	0	562	517	205	0	
12	0	0	0	0	502	528	203	0	
13	0	0	0	0	394	511	203	0	
14	0	0	0	0	565	503	204	0	
15	0	0	0	0	668	505	203	0	
0	0	0	0	0	631	519	204	0	
1	0	0	0	0	376	516	204	0	
2	0	0	0	0	288	510	205	0	
3	0	0	0	0	414	500	206	0	
4	0	0	0	0	613	496	207	0	
5	0	0	0	0	655	503	214	0	
6	0	0	0	0	591	508	216	0	
7	0	0	0	0	562	494	217	0	
8	0	0	0	0	553	493	221	0	
9	0	0	0	0	585	509	222	0	
10	0	0	0	0	437	526	223	0	
11	0	0	0	0	523	505	222	0	
12	0	0	0	0	606	504	227	0	
13	0	0	0	0	552	526	230	0	
14	0	0	0	0	510	504	229	0	
15	0	0	0	0	355	504	230	0	
0	0	0	0	0	325	503	229	0	
1	0	0	0	0	480	505	229	0	
2	0	0	0	0	573	513	228	0	
3	0	0	0	0	648	520	230	0	
4	0	0	0	0	405	518	231	0	
5	0	0	0	0	384	499	231	0	
6	0	0	0	0	427	495	231	0	
7	0	0	0	0	478	507	232	0	
8	0	0	0	0	530	514	233	0	
9	0	0	0	0	608	504	233	0	
10	0	0	0	0	506	508	233	0	
11	0	0	0	0	586	519	235	0	
12	0	0	0	0	644	516	236	0	
13	0	0	0	0	561	512	236	0	
14	0	0	0	0	509	509	238	0	
15	0	0	0	0	494	511	239	0	
0	0	0	0	0	533	513	241	0	
1	0	0	0	0	601	535	242	0	
2	0	0	0	0	572	536	243	0	
3	0	0	0	0	381	504	243	0	
4	0	0	0	0	351	486	243	0	
5	0	0	0	0	425	480	246	0	
6	0	0	0	0	486	488	246	0	
7	0	0	0	0	566	511	247	0	
8	0	0	0	0	623	503	248	0	
9	0	0	0	0	439	531	249	0	
10	0	0	0	0	443	534	251	0	
11	0	0	0	0	491	517	250	0	
12	0	0	0	0	553	485	253	0	
13	0	0	0	0	569	474	254	0	
14	0	0	0	0	545	490	257	0	
15	0	0	0	0	616	532	257	0	
0	0	0	0	0	483	560	259	0	
1	0	0	0	0	541	545	258	0	
2	0	0	0	0	458	515	256	0	
3	0	0	0	0	419	468	255	0	
4	0	0	0	0	432	469	257	0	
5	0	0	0	0	512	472	257	0	
6	0	0	0	0	537	434	259	0	
7	0	0	0	0	554	425	260	0	
8	0	0	0	0	473	494	259	0	
9	0	0	0	0	432	535	258	0	
10	0	0	0	0	501	554	259	0	
11	0	0	0	0	536	550	260	0	
12	0	0	0	0	506	535	261	0	
13	0	0	0	0	482	530	263	0	
14	0	0	0	0	552	524	266	0	
15	0	0	0	0	627	516	268	0	
0	0	0	0	0	603	511	270	0	
1	0	0	0	0	471	508	270	0	
2	0	0	0	0	485	499	271	0	
3	0	0	0	0	528	503	273	0	
4	0	0	0	0	470	495	273	0	
5	0	0	0	0	428	502	275	0	
6	0	0	0	0	471	513	279	0	
7	0	0	0	0	475	511	278	0	
8	0	0	0	0	562	510	281	0	
9	0	0	0	0	450	516	282	0	
10	0	0	0	0	463	519	283	0	
11	0	0	0	0	667	513	283	0	
12	0	0	0	0	640	508	283	0	
13	0	0	0	0	532	512	284	0	
14	0	0	0	0	537	514	285	0	
15	0	0	0	0	531	520	287	0	
0	0	0	0	0	478	507	287	0	
1	0	0	0	0	513	503	288	0	
2	0	0	0	0	490	500	290	0	
3	0	0	0	0	513	505	291	0	
4	0	0	0	0	596	512	295	0	
5	0	0	0	0	620	510	294	0	
6	0	0	0	0	407	504	295	0	
7	0	0	0	0	301	500	297	0	
8	0	0	0	0	453	510	300	0	
9	0	0	0	0	562	508	301	0	
10	0	0	0	0	529	511	302	0	
11	0	0	0	0	390	502	303	0	
12	0	0	0	0	584	502	304	0	
13	0	0	0	0	535	516	305	0	
14	0	0	0	0	601	522	305	0	
15	0	0	0	0	505	511	308	0	
0	0	0	0	0	560	499	310	0	
1	0	0	0	0	505	505	311	0	
2	0	0	0	0	435	511	311	0	
3	0	0	0	0	376	517	313	0	
4	0	0	0	0	485	518	313	0	
5	0	0	0	0	504	502	313	0	
6	0	0	0	0	496	498	313	0	
7	0	0	0	0	455	508	312	0	
8	0	0	0	0	475	509	314	0	
9	0	0	0	0	547	505	315	0	
10	0	0	0	0	457	506	315	0	
11	0	0	0	0	494	497	315	0	
12	0	0	0	0	608	495	315	0	
13	0	0	0	0	563	500	315	0	
14	0	0	0	0	662	513	316	0	
15	0	0	0	0	654	535	316	0	
0	0	0	0	0	598	534	317	0	
1	0	0	0	0	495	526	318	0	
2	0	0	0	0	506	523	317	0	
3	0	0	0	0	494	517	317	0	
4	0	0	0	0	479	508	317	0	
5	0	0	0	0	544	492	318	0	
6	0	0	0	0	516	497	321	0	
7	0	0	0	0	451	486	320	0	
8	0	0	0	0	432	460	320	0	
9	0	0	0	0	415	479	321	0	
10	0	0	0	0	480	494	320	0	
11	0	0	0	0	460	507	320	0	
12	0	0	0	0	495	516	320	0	
13	0	0	0	0	575	529	321	0	
14	0	0	0	0	521	524	322	0	
15	0	0	0	0	514	516	323	0	
0	0	0	0	0	604	528	323	0	
1	0	0	0	0	524	537	324	0	
2	0	0	0	0	463	536	326	0	
3	0	0	0	0	412	524	326	0	
4	0	0	0	0	493	497	327	0	
5	0	0	0	0	625	468	330	0	
6	0	0	0	0	572	456	332	0	
7	0	0	0	0	434	477	331	0	
8	0	0	0	0	424	499	330	0	
9	0	0	0	0	496	515	332	0	
10	0	0	0	0	555	525	333	0	
11	0	0	0	0	560	515	334	0	
12	0	0	0	0	529	510	335	0	
13	0	0	0	0	565	515	337	0	
14	0	0	0	0	485	518	338	0	
15	0	0	0	0	461	514	339	0	
0	0	0	0	0	446	512	339	0	
1	0	0	0	0	504	502	339	0	
2	0	0	0	0	620	508	341	0	
3	0	0	0	0	586	523	342	0	
4	0	0	0	0	573	529	343	0	
5	0	0	0	0	450	528	343	0	
6	0	0	0	0	425	519	343	0	
7	0	0	0	0	538	496	343	0	
8	0	0	0	0	444	496	344	0	
9	0	0	0	0	437	495	342	0	
10	0	0	0	0	511	498	342	0	
11	0	0	0	0	555	503	340	0	
12	0	0	0	0	557	507	341	0	
13	0	0	0	0	467	509	341	0	
14	0	0	0	0	499	506	339	0	
15	0	0	0	0	556	513	340	0	
0	0	0	0	0	538	510	335	0	
1	0	0	0	0	497	505	335	0	
2	0	0	0	0	442	511	330	0	
3	0	0	0	0	529	498	330	0	
4	0	0	0	0	568	507	329	0	
5	0	0	0	0	493	508	329	0	
6	0	0	0	0	432	506	327	0	
7	0	0	0	0	430	509	328	0	
8	0	0	0	0	503	511	328	0	
9	0	0	0	0	618	508	329	0	
10	0	0	0	0	672	509	329	0	
11	0	0	0	0	659	510	328	0	
12	0	0	0	0	427	508	330	0	
13	0	0	0	0	414	513	329	0	
14	0	0	0	0	471	521	330	0	
15	0	0	0	0	569	520	330	0	
0	0	0	0	0	406	506	331	0	
1	0	0	0	0	497	508	330	0	
2	0	0	0	0	613	500	331	0	
3	0	0	0	0	624	503	331	0	
4	0	0	0	0	391	507	331	0	
5	0	0	0	0	446	505	331	0	
6	0	0	0	0	443	503	332	0	
7	0	0	0	0	488	500	332	0	
8	0	0	0	0	579	498	331	0	
9	0	0	0	0	547	504	332	0	
10	0	0	0	0	515	515	331	0	
11	0	0	0	0	515	526	331	0	
12	0	0	0	0	491	518	330	0	
13	0	0	0	0	452	497	331	0	
14	0	0	0	0	482	509	331	0	
15	0	0	0	0	530	513	331	0	
0	0	0	0	0	526	515	330	0	
1	0	0	0	0	583	511	331	0	
2	0	0	0	0	558	511	332	0	
3	0	0	0	0	502	511	332	0	
4	0	0	0	0	408	501	331	0	
5	0	0	0	0	475	483	332	0	
6	0	0	0	0	576	488	332	0	
7	0	0	0	0	615	505	333	0	
8	0	0	0	0	622	515	333	0	
9	0	0	0	0	539	517	333	0	
10	0	0	0	0	375	514	332	0	
11	0	0	0	0	410	512	333	0	
12	0	0	0	0	452	511	332	0	
13	0	0	0	0	511	497	333	0	
14	0	0	0	0	484	517	334	0	
15	0	0	0	0	499	512	334	0	
0	0	0	0	0	532	504	334	0	
1	0	0	0	0	540	508	334	0	
2	0	0	0	0	590	509	334	0	
3	0	0	0	0	624	513	335	0	
4	0	0	0	0	510	512	335	0	
5	0	0	0	0	460	502	335	0	
6	0	0	0	0	381	509	335	0	
7	0	0	0	0	461	516	335	0	
8	0	0	0	0	518	512	336	0	
9	0	0	0	0	599	516	337	0	
10	0	0	0	0	652	504	337	0	
11	0	0	0	0	516	504	338	0	
12	0	0	0	0	485	503	337	0	
13	0	0	0	0	506	497	339	0	
14	0	0	0	0	407	491	339	0	
15	0	0	0	0	355	499	339	0	
0	0	0	0	0	505	498	339	0	
1	0	0	0	0	583	511	338	0	
2	0	0	0	0	596	519	339	0	
3	0	0	0	0	541	521	340	0	
4	0	0	0	0	439	516	341	0	
5	0	0	0	0	511	517	342	0	
6	0	0	0	0	561	509	343	0	
7	0	0	0	0	596	520	342	0	
8	0	0	0	0	589	515	341	0	
9	0	0	0	0	500	516	341	0	
10	0	0	0	0	491	506	340	0	
11	0	0	0	0	518	503	342	0	
12	0	0	0	0	543	499	342	0	
13	0	0	0	0	434	490	342	0	
14	0	0	0	0	357	494	343	0	
15	0	0	0	0	446	514	342	0	
0	0	0	0	0	534	518	342	0	
1	0	0	0	0	512	514	343	0	
2	0	0	0	0	479	516	342	0	
3	0	0	0	0	541	499	342	0	
4	0	0	0	0	619	505	343	0	
5	0	0	0	0	523	509	342	0	
6	0	0	0	0	453	496	343	0	
7	0	0	0	0	448	502	343	0	
8	0	0	0	0	497	506	343	0	
9	0	0	0	0	576	501	344	0	
10	0	0	0	0	534	508	344	0	
11	0	0	0	0	519	511	344	0	
12	0	0	0	0	491	526	344	0	
13	0	0	0	0	577	526	344	0	
14	0	0	0	0	466	521	345	0	
15	0	0	0	0	358	512	344	0	
0	0	0	0	0	499	504	345	0	
1	0	0	0	0	600	506	345	0	
2	0	0	0	0	542	501	345	0	
3	0	0	0	0	572	491	345	0	
4	0	0	0	0	590	499	346	0	
5	0	0	0	0	566	512	346	0	
6	0	0	0	0	514	514	346	0	
7	0	0	0	0	539	514	346	0	
8	0	0	0	0	549	515	346	0	
9	0	0	0	0	489	510	344	0	
10	0	0	0	0	541	499	344	0	
11	0	0	0	0	485	493	343	0	
12	0	0	0	0	484	499	341	0	
13	0	0	0	0	487	508	339	0	
14	0	0	0	0	503	511	338	0	
15	0	0	0	0	513	506	338	0	
0	0	0	0	0	505	509	338	0	
1	0	0	0	0	495	511	337	0	
2	0	0	0	0	510	511	335	0	
3	0	0	0	0	580	512	333	0	
4	0	0	0	0	617	504	334	0	
5	0	0	0	0	466	514	333	0	
6	0	0	0	0	358	511	333	0	
7	0	0	0	0	431	501	334	0	
8	0	0	0	0	514	506	335	0	
9	0	0	0	0	583	512	335	0	
10	0	0	0	0	535	512	334	0	
11	0	0	0	0	444	509	333	0	
12	0	0	0	0	403	510	333	0	
13	0	0	0	0	460	508	334	0	
14	0	0	0	0	580	505	334	0	
15	0	0	0	0	600	509	333	0	
0	0	0	0	0	547	511	334	0	
1	0	0	0	0	485	513	333	0	
2	0	0	0	0	463	509	333	0	
3	0	0	0	0	492	513	333	0	
4	0	0	0	0	536	506	334	0	
5	0	0	0	0	559	505	333	0	
6	0	0	0	0	599	512	333	0	
7	0	0	0	0	552	510	333	0	
8	0	0	0	0	519	509	334	0	
9	0	0	0	0	515	503	335	0	
10	0	0	0	0	396	492	336	0	
11	0	0	0	0	458	496	336	0	
12	0	0	0	0	516	509	335	0	
13	0	0	0	0	505	517	334	0	
14	0	0	0	0	489	513	334	0	
15	0	0	0	0	434	511	334	0	
0	0	0	0	0	454	512	335	0	
1	0	0	0	0	560	506	335	0	
2	0	0	0	0	573	505	334	0	
3	0	0	0	0	419	508	334	0	
4	0	0	0	0	420	523	334	0	
5	0	0	0	0	540	518	334	0	
6	0	0	0	0	575	505	334	0	
7	0	0	0	0	612	499	334	0	
8	0	0	0	0	639	508	334	0	
9	0	0	0	0	567	505	335	0	
10	0	0	0	0	392	504	335	0	
11	0	0	0	0	476	513	335	0	
12	0	0	0	0	558	510	335	0	
13	0	0	0	0	580	496	335	0	
14	0	0	0	0	653	499	335	0	
15	0	0	0	0	518	505	336	0	
0	0	0	0	0	452	520	336	0	
1	0	0	0	0	327	529	336	0	
2	0	0	0	0	417	515	336	0	
3	0	0	0	0	416	515	338	0	
4	0	0	0	0	479	507	337	0	
5	0	0	0	0	539	500	337	0	
6	0	0	0	0	646	500	337	0	
7	0	0	0	0	568	508	337	0	
8	0	0	0	0	521	510	337	0	
9	0	0	0	0	567	499	337	0	
10	0	0	0	0	504	472	336	0	
11	0	0	0	0	293	506	337	0	
12	0	0	0	0	451	515	337	0	
13	0	0	0	0	609	499	337	0	
14	0	0	0	0	569	497	337	0	
15	0	0	0	0	516	503	336	0	
0	0	0	0	0	360	513	337	0	
1	0	0	0	0	463	512	337	0	
2	0	0	0	0	536	508	336	0	
3	0	0	0	0	558	509	335	0	
4	0	0	0	0	587	519	336	0	
5	0	0	0	0	574	512	337	0	
6	0	0	0	0	567	514	337	0	
7	0	0	0	0	576	507	336	0	
8	0	0	0	0	516	504	337	0	
9	0	0	0	0	455	509	336	0	
10	0	0	0	0	458	515	336	0	
11	0	0	0	0	492	520	336	0	
12	0	0	0	0	560	513	336	0	
13	0	0	0	0	577	505	337	0	
14	0	0	0	0	480	508	336	0	
15	0	0	0	0	536	514	336	0	
0	0	0	0	0	481	513	336	0	
1	0	0	0	0	498	514	337	0	
2	0	0	0	0	470	508	337	0	
3	0	0	0	0	495	506	338	0	
4	0	0	0	0	545	507	337	0	
5	0	0	0	0	583	504	337	0	
6	0	0	0	0	579	508	338	0	
7	0	0	0	0	547	510	338	0	
8	0	0	0	0	504	514	339	0	
9	0	0	0	0	505	509	339	0	
10	0	0	0	0	540	508	339	0	
11	0	0	0	0	513	517	339	0	
12	0	0	0	0	541	514	340	0	
13	0	0	0	0	393	495	341	0	
14	0	0	0	0	334	494	341	0	
15	0	0	0	0	428	500	341	0	
0	0	0	0	0	540	503	342	0	
1	0	0	0	0	573	499	343	0	
2	0	0	0	0	521	494	344	0	
3	0	0	0	0	502	513	344	0	
4	0	0	0	0	448	514	344	0	
5	0	0	0	0	521	506	345	0	
6	0	0	0	0	475	506	345	0	
7	0	0	0	0	566	512	344	0	
8	0	0	0	0	551	511	344	0	
9	0	0	0	0	534	517	344	0	
10	0	0	0	0	493	520	345	0	
11	0	0	0	0	477	520	345	0	
12	0	0	0	0	522	507	345	0	
13	0	0	0	0	548	508	344	0	
14	0	0	0	0	569	519	344	0	
15	0	0	0	0	499	519	345	0	
0	0	0	0	0	416	496	345	0	
1	0	0	0	0	419	485	344	0	
2	0	0	0	0	478	489	345	0	
3	0	0	0	0	547	498	344	0	
4	0	0	0	0	532	500	344	0	
5	0	0	0	0	515	509	344	0	
6	0	0	0	0	530	519	344	0	
7	0	0	0	0	556	520	344	0	
8	0	0	0	0	593	512	344	0	
9	0	0	0	0	576	511	344	0	
10	0	0	0	0	507	516	344	0	
11	0	0	0	0	445	499	343	0	
12	0	0	0	0	494	486	343	0	
13	0	0	0	0	534	511	343	0	
14	0	0	0	0	540	513	344	0	
15	0	0	0	0	555	508	344	0	
0	0	0	0	0	431	509	344	0	
1	0	0	0	0	489	520	344	0	
2	0	0	0	0	408	522	344	0	
3	0	0	0	0	520	519	343	0	
4	0	0	0	0	613	510	343	0	
5	0	0	0	0	535	508	343	0	
6	0	0	0	0	484	495	344	0	
7	0	0	0	0	525	491	344	0	
8	0	0	0	0	503	503	345	0	
9	0	0	0	0	417	520	345	0	
10	0	0	0	0	487	523	344	0	
11	0	0	0	0	518	530	344	0	
12	0	0	0	0	496	505	342	0	
13	0	0	0	0	568	491	343	0	
14	0	0	0	0	473	498	344	0	
15	0	0	0	0	543	501	344	0	
0	0	0	0	0	571	500	343	0	
1	0	0	0	0	486	508	342	0	
2	0	0	0	0	484	508	342	0	
3	0	0	0	0	444	510	342	0	
4	0	0	0	0	477	506	341	0	
5	0	0	0	0	566	508	340	0	
6	0	0	0	0	539	511	341	0	
7	0	0	0	0	638	513	340	0	
8	0	0	0	0	543	504	339	0	
9	0	0	0	0	525	501	338	0	
10	0	0	0	0	498	510	337	0	
11	0	0	0	0	590	527	337	0	
12	0	0	0	0	512	519	335	0	
13	0	0	0	0	352	504	334	0	
14	0	0	0	0	463	508	334	0	
15	0	0	0	0	577	508	334	0	
0	0	0	0	0	526	502	333	0	
1	0	0	0	0	524	504	333	0	
2	0	0	0	0	411	505	333	0	
3	0	0	0	0	416	515	332	0	
4	0	0	0	0	510	512	334	0	
5	0	0	0	0	583	513	332	0	
6	0	0	0	0	579	512	331	0	
7	0	0	0	0	616	513	332	0	
8	0	0	0	0	597	504	332	0	
9	0	0	0	0	551	506	332	0	
10	0	0	0	0	429	504	332	0	
11	0	0	0	0	366	499	332	0	
12	0	0	0	0	417	499	333	0	
13	0	0	0	0	405	516	333	0	
14	0	0	0	0	506	526	334	0	
15	0	0	0	0	521	505	335	0	
0	0	0	0	0	524	499	335	0	
1	0	0	0	0	570	498	335	0	
2	0	0	0	0	509	506	336	0	
3	0	0	0	0	565	508	335	0	
4	0	0	0	0	590	505	335	0	
5	0	0	0	0	530	500	336	0	
6	0	0	0	0	399	512	337	0	
7	0	0	0	0	467	518	337	0	
8	0	0	0	0	507	506	339	0	
9	0	0	0	0	529	506	337	0	
10	0	0	0	0	540	500	338	0	
11	0	0	0	0	544	502	339	0	
12	0	0	0	0	535	502	339	0	
13	0	0	0	0	516	494	340	0	
14	0	0	0	0	498	505	341	0	
15	0	0	0	0	514	508	340	0	
0	0	0	0	0	540	514	341	0	
1	0	0	0	0	563	518	341	0	
2	0	0	0	0	536	521	342	0	
3	0	0	0	0	467	515	343	0	
4	0	0	0	0	497	517	344	0	
5	0	0	0	0	417	512	344	0	
6	0	0	0	0	399	497	345	0	
7	0	0	0	0	553	498	345	0	
8	0	0	0	0	579	511	345	0	
9	0	0	0	0	581	507	345	0	
10	0	0	0	0	524	500	344	0	
11	0	0	0	0	482	503	344	0	
12	0	0	0	0	552	511	345	0	
13	0	0	0	0	563	512	346	0	
14	0	0	0	0	564	504	346	0	
15	0	0	0	0	523	503	344	0	
0	0	0	0	0	434	518	344	0	
1	0	0	0	0	392	519	345	0	
2	0	0	0	0	483	513	345	0	
3	0	0	0	0	519	506	345	0	
4	0	0	0	0	501	506	345	0	
5	0	0	0	0	495	506	345	0	
6	0	0	0	0	494	517	345	0	
7	0	0	0	0	578	515	347	0	
8	0	0	0	0	545	516	348	0	
9	0	0	0	0	467	512	348	0	
10	0	0	0	0	479	503	347	0	
11	0	0	0	0	523	497	347	0	
12	0	0	0	0	557	499	345	0	
13	0	0	0	0	495	508	346	0	
14	0	0	0	0	460	513	345	0	
15	0	0	0	0	527	501	344	0	
0	0	0	0	0	510	504	346	0	
1	0	0	0	0	532	514	344	0	
2	0	0	0	0	558	515	343	0	
3	0	0	0	0	496	507	344	0	
4	0	0	0	0	590	490	344	0	
5	0	0	0	0	546	497	343	0	
6	0	0	0	0	527	515	342	0	
7	0	0	0	0	515	519	340	0	
8	0	0	0	0	541	509	340	0	
9	0	0	0	0	493	496	340	0	
10	0	0	0	0	434	498	340	0	
11	0	0	0	0	429	510	339	0	
12	0	0	0	0	520	511	339	0	
13	0	0	0	0	511	517	337	0	
14	0	0	0	0	476	516	336	0	
15	0	0	0	0	536	515	336	0	
0	0	0	0	0	520	510	334	0	
1	0	0	0	0	501	504	334	0	
2	0	0	0	0	502	512	334	0	
3	0	0	0	0	546	519	335	0	
4	0	0	0	0	601	515	334	0	
5	0	0	0	0	595	516	334	0	
6	0	0	0	0	556	519	335	0	
7	0	0	0	0	489	508	335	0	
8	0	0	0	0	396	497	334	0	
9	0	0	0	0	440	489	335	0	
10	0	0	0	0	478	495	335	0	
11	0	0	0	0	518	508	335	0	
12	0	0	0	0	469	506	335	0	
13	0	0	0	0	509	508	335	0	
14	0	0	0	0	518	510	336	0	
15	0	0	0	0	487	503	334	0	
0	0	0	0	0	489	504	334	0	
1	0	0	0	0	531	504	334	0	
2	0	0	0	0	551	516	334	0	
3	0	0	0	0	512	510	334	0	
4	0	0	0	0	491	499	335	0	
5	0	0	0	0	464	499	335	0	
6	0	0	0	0	497	509	336	0	
7	0	0	0	0	530	508	337	0	
8	0	0	0	0	502	513	336	0	
9	0	0	0	0	504	513	336	0	
10	0	0	0	0	513	512	337	0	
11	0	0	0	0	605	508	337	0	
12	0	0	0	0	568	510	338	0	
13	0	0	0	0	562	510	338	0	
14	0	0	0	0	551	513	338	0	
15	0	0	0	0	436	521	337	0	
0	0	0	0	0	453	516	338	0	
1	0	0	0	0	532	508	338	0	
2	0	0	0	0	532	508	338	0	
3	0	0	0	0	492	505	337	0	
4	0	0	0	0	495	495	338	0	
5	0	0	0	0	499	496	339	0	
6	0	0	0	0	500	506	337	0	
7	0	0	0	0	543	501	337	0	
8	0	0	0	0	589	499	337	0	
9	0	0	0	0	496	518	337	0	
10	0	0	0	0	423	526	338	0	
11	0	0	0	0	460	513	337	0	
12	0	0	0	0	528	499	337	0	
13	0	0	0	0	572	499	337	0	
14	0	0	0	0	476	504	336	0	
15	0	0	0	0	415	519	336	0	
0	0	0	0	0	465	512	335	0	
1	0	0	0	0	481	514	336	0	
2	0	0	0	0	515	517	336	0	
3	0	0	0	0	552	516	335	0	
4	0	0	0	0	611	512	336	0	
5	0	0	0	0	606	499	336	0	
6	0	0	0	0	570	495	336	0	
7	0	0	0	0	508	497	336	0	
8	0	0	0	0	496	499	337	0	
9	0	0	0	0	516	515	337	0	
10	0	0	0	0	503	514	338	0	
11	0	0	0	0	501	511	337	0	
12	0	0	0	0	426	510	337	0	
13	0	0	0	0	463	515	335	0	
14	0	0	0	0	478	516	335	0	
15	0	0	0	0	549	518	335	0	
0	0	0	0	0	616	505	334	0	
1	0	0	0	0	479	499	333	0	
2	0	0	0	0	495	505	333	0	
3	0	0	0	0	436	510	332	0	
4	0	0	0	0	566	502	331	0	
5	0	0	0	0	576	496	330	0	
6	0	0	0	0	549	505	330	0	
7	0	0	0	0	551	518	329	0	
8	0	0	0	0	529	512	329	0	
9	0	0	0	0	458	500	327	0	
10	0	0	0	0	465	507	326	0	
11	0	0	0	0	491	512	326	0	
12	0	0	0	0	467	519	326	0	
13	0	0	0	0	524	518	325	0	
14	0	0	0	0	539	514	323	0	
15	0	0	0	0	556	502	321	0	
0	0	0	0	0	508	497	320	0	
1	0	0	0	0	432	502	320	0	
2	0	0	0	0	472	504	318	0	
3	0	0	0	0	512	504	318	0	
4	0	0	0	0	529	504	318	0	
5	0	0	0	0	530	508	316	0	
6	0	0	0	0	526	519	316	0	
7	0	0	0	0	566	516	316	0	
8	0	0	0	0	520	509	316	0	
9	0	0	0	0	405	508	317	0	
10	0	0	0	0	451	505	317	0	
11	0	0	0	0	489	513	318	0	
12	0	0	0	0	563	512	319	0	
13	0	0	0	0	616	498	319	0	
14	0	0	0	0	590	503	320	0	
15	0	0	0	0	439	506	319	0	
0	0	0	0	0	389	503	319	0	
1	0	0	0	0	515	504	319	0	
2	0	0	0	0	586	508	319	0	
3	0	0	0	0	599	512	319	0	
4	0	0	0	0	529	516	320	0	
5	0	0	0	0	511	512	319	0	
6	0	0	0	0	450	513	320	0	
7	0	0	0	0	413	513	319	0	
8	0	0	0	0	444	506	321	0	
9	0	0	0	0	530	505	321	0	
10	0	0	0	0	546	507	322	0	
11	0	0	0	0	575	503	322	0	
12	0	0	0	0	531	504	323	0	
13	0	0	0	0	500	504	324	0	
14	0	0	0	0	513	507	324	0	
15	0	0	0	0	553	513	325	0	
0	0	0	0	0	536	512	325	0	
1	0	0	0	0	535	517	327	0	
2	0	0	0	0	474	521	327	0	
3	0	0	0	0	487	501	331	0	
4	0	0	0	0	444	492	333	0	
5	0	0	0	0	494	500	332	0	
6	0	0	0	0	519	508	333	0	
7	0	0	0	0	537	515	334	0	
8	0	0	0	0	537	513	333	0	
9	0	0	0	0	474	521	333	0	
10	0	0	0	0	510	518	334	0	
11	0	0	0	0	546	508	335	0	
12	0	0	0	0	551	497	335	0	
13	0	0	0	0	471	499	335	0	
14	0	0	0	0	451	504	335	0	
15	0	0	0	0	507	502	334	0	
0	0	0	0	0	485	497	335	0	
1	0	0	0	0	516	505	335	0	
2	0	0	0	0	529	512	335	0	
3	0	0	0	0	544	520	336	0	
4	0	0	0	0	404	512	336	0	
5	0	0	0	0	433	509	337	0	
6	0	0	0	0	540	512	338	0	
7	0	0	0	0	665	509	337	0	
8	0	0	0	0	611	509	338	0	
9	0	0	0	0	539	503	339	0	
10	0	0	0	0	543	500	339	0	
11	0	0	0	0	531	507	339	0	
12	0	0	0	0	471	512	340	0	
13	0	0	0	0	422	514	339	0	
14	0	0	0	0	430	508	339	0	
15	0	0	0	0	483	503	339	0	
0	0	0	0	0	530	507	340	0	
1	0	0	0	0	579	515	342	0	
2	0	0	0	0	596	507	343	0	
3	0	0	0	0	471	511	343	0	
4	0	0	0	0	472	514	343	0	
5	0	0	0	0	435	510	344	0	
6	0	0	0	0	467	507	344	0	
7	0	0	0	0	548	499	344	0	
8	0	0	0	0	564	501	344	0	
9	0	0	0	0	551	507	345	0	
10	0	0	0	0	523	503	345	0	
11	0	0	0	0	503	496	344	0	
12	0	0	0	0	522	503	344	0	
13	0	0	0	0	548	517	346	0	
14	0	0	0	0	566	516	346	0	
15	0	0	0	0	509	517	345	0	
0	0	0	0	0	467	515	345	0	
1	0	0	0	0	499	513	345	0	
2	0	0	0	0	476	516	344	0	
3	0	0	0	0	457	512	344	0	
4	0	0	0	0	535	491	344	0	
5	0	0	0	0	548	494	343	0	
6	0	0	0	0	514	510	343	0	
7	0	0	0	0	522	508	342	0	
8	0	0	0	0	430	511	342	0	
9	0	0	0	0	455	507	341	0	
10	0	0	0	0	492	508	341	0	
11	0	0	0	0	554	507	341	0	
12	0	0	0	0	639	512	341	0	
13	0	0	0	0	594	510	341	0	
14	0	0	0	0	496	510	340	0	
15	0	0	0	0	444	512	339	0	
0	0	0	0	0	494	498	341	0	
1	0	0	0	0	530	491	339	0	
2	0	0	0	0	472	497	342	0	
3	0	0	0	0	491	511	341	0	
4	0	0	0	0	451	522	341	0	
5	0	0	0	0	518	520	343	0	
6	0	0	0	0	516	511	343	0	
7	0	0	0	0	540	519	343	0	
8	0	0	0	0	499	528	343	0	
9	0	0	0	0	562	504	345	0	
10	0	0	0	0	510	494	344	0	
11	0	0	0	0	467	500	345	0	
12	0	0	0	0	478	507	345	0	
13	0	0	0	0	490	506	345	0	
14	0	0	0	0	450	504	347	0	
15	0	0	0	0	499	496	347	0	
0	0	0	0	0	516	497	347	0	
1	0	0	0	0	495	506	348	0	
2	0	0	0	0	513	507	348	0	
3	0	0	0	0	543	510	348	0	
4	0	0	0	0	538	516	350	0	
5	0	0	0	0	588	504	350	0	
6	0	0	0	0	600	496	350	0	
7	0	0	0	0	611	505	350	0	
8	0	0	0	0	424	519	352	0	
9	0	0	0	0	375	518	351	0	
10	0	0	0	0	521	512	350	0	
11	0	0	0	0	564	510	349	0	
12	0	0	0	0	571	513	351	0	
13	0	0	0	0	522	516	351	0	
14	0	0	0	0	482	513	351	0	
15	0	0	0	0	498	513	350	0	
0	0	0	0	0	512	517	351	0	
1	0	0	0	0	500	518	352	0	
2	0	0	0	0	507	509	352	0	
3	0	0	0	0	499	502	352	0	
4	0	0	0	0	425	501	352	0	
5	0	0	0	0	480	492	352	0	
6	0	0	0	0	513	494	351	0	
7	0	0	0	0	562	496	349	0	
8	0	0	0	0	556	504	352	0	
9	0	0	0	0	552	515	351	0	
10	0	0	0	0	488	525	350	0	
11	0	0	0	0	454	518	351	0	
12	0	0	0	0	428	507	351	0	
13	0	0	0	0	507	513	352	0	
14	0	0	0	0	601	514	352	0	
15	0	0	0	0	624	505	353	0	
0	0	0	0	0	599	500	353	0	
1	0	0	0	0	452	504	353	0	
2	0	0	0	0	472	504	354	0	
3	0	0	0	0	463	510	352	0	
4	0	0	0	0	454	511	353	0	
5	0	0	0	0	514	506	353	0	
6	0	0	0	0	579	507	353	0	
7	0	0	0	0	538	519	354	0	
8	0	0	0	0	504	519	355	0	
9	0	0	0	0	428	508	352	0	
10	0	0	0	0	482	494	354	0	
11	0	0	0	0	496	499	355	0	
12	0	0	0	0	511	508	354	0	
13	0	0	0	0	503	506	353	0	
14	0	0	0	0	512	508	353	0	
15	0	0	0	0	552	509	353	0	
0	0	0	0	0	512	514	352	0	
1	0	0	0	0	535	512	352	0	
2	0	0	0	0	523	506	353	0	
3	0	0	0	0	504	512	353	0	
4	0	0	0	0	540	510	354	0	
5	0	0	0	0	531	506	354	0	
6	0	0	0	0	535	506	352	0	
7	0	0	0	0	467	507	352	0	
8	0	0	0	0	405	504	353	0	
9	0	0	0	0	448	504	352	0	
10	0	0	0	0	519	506	353	0	
11	0	0	0	0	551	510	353	0	
12	0	0	0	0	515	507	353	0	
13	0	0	0	0	527	507	352	0	
14	0	0	0	0	524	507	353	0	
15	0	0	0	0	526	510	354	0	
0	0	0	0	0	527	515	353	0	
1	0	0	0	0	478	516	354	0	
2	0	0	0	0	440	507	354	0	
3	0	0	0	0	417	500	354	0	
4	0	0	0	0	459	505	354	0	
5	0	0	0	0	576	512	355	0	
6	0	0	0	0	648	520	355	0	
7	0	0	0	0	886	507	356	0	
8	0	0	0	0	955	509	355	0	
9	0	0	0	0	552	523	356	0	
10	0	0	0	0	241	532	355	0	
11	0	0	0	0	282	504	356	0	
12	0	0	0	0	410	492	355	0	
13	0	0	0	0	437	495	356	0	
14	0	0	0	0	374	503	356	0	
15	0	0	0	0	399	501	355	0	
0	0	0	0	0	461	508	356	0	
1	0	0	0	0	491	507	356	0	
2	0	0	0	0	533	495	356	0	
3	0	0	0	0	544	494	356	0	
4	0	0	0	0	501	505	355	0	
5	0	0	0	0	540	501	356	0	
6	0	0	0	0	563	497	357	0	
7	0	0	0	0	531	506	356	0	
8	0	0	0	0	531	519	356	0	
9	0	0	0	0	504	520	356	0	
10	0	0	0	0	492	515	356	0	
11	0	0	0	0	530	515	356	0	
12	0	0	0	0	534	510	356	0	
13	0	0	0	0	508	511	356	0	
14	0	0	0	0	463	516	356	0	
15	0	0	0	0	446	508	354	0	
0	0	0	0	0	448	509	356	0	
1	0	0	0	0	480	510	356	0	
2	0	0	0	0	518	512	355	0	
3	0	0	0	0	564	512	355	0	
4	0	0	0	0	600	509	355	0	
5	0	0	0	0	584	496	355	0	
6	0	0	0	0	558	494	356	0	
7	0	0	0	0	572	502	358	0	
8	0	0	0	0	615	515	358	0	
9	0	0	0	0	539	520	357	0	
10	0	0	0	0	569	513	357	0	
11	0	0	0	0	522	508	358	0	
12	0	0	0	0	437	511	357	0	
13	0	0	0	0	432	521	357	0	
14	0	0	0	0	554	507	358	0	
15	0	0	0	0	523	504	358	0	
0	0	0	0	0	510	505	359	0	
1	0	0	0	0	516	512	359	0	
2	0	0	0	0	449	511	358	0	
3	0	0	0	0	395	502	357	0	
4	0	0	0	0	444	502	357	0	
5	0	0	0	0	482	510	357	0	
6	0	0	0	0	503	511	356	0	
7	0	0	0	0	486	496	352	0	
8	0	0	0	0	454	490	356	0	
9	0	0	0	0	479	500	356	0	
10	0	0	0	0	513	511	357	0	
11	0	0	0	0	527	515	357	0	
12	0	0	0	0	533	510	357	0	
13	0	0	0	0	526	508	357	0	
14	0	0	0	0	510	510	358	0	
15	0	0	0	0	499	515	357	0	
0	0	0	0	0	496	514	357	0	
1	0	0	0	0	503	512	357	0	
2	0	0	0	0	509	513	357	0	
3	0	0	0	0	523	509	356	0	
4	0	0	0	0	546	504	357	0	
5	0	0	0	0	555	506	356	0	
6	0	0	0	0	548	507	357	0	
7	0	0	0	0	545	506	357	0	
8	0	0	0	0	537	504	357	0	
9	0	0	0	0	539	504	356	0	
10	0	0	0	0	537	510	356	0	
11	0	0	0	0	526	510	356	0	
12	0	0	0	0	550	505	356	0	
13	0	0	0	0	523	508	357	0	
14	0	0	0	0	491	510	356	0	
15	0	0	0	0	489	512	357	0	
0	0	0	0	0	498	512	358	0	
1	0	0	0	0	497	508	356	0	
2	0	0	0	0	496	508	355	0	
3	0	0	0	0	495	506	355	0	
4	0	0	0	0	499	509	355	0	
5	0	0	0	0	505	511	353	0	
6	0	0	0	0	506	511	353	0	
7	0	0	0	0	508	509	353	0	
8	0	0	0	0	508	506	353	0	
9	0	0	0	0	506	505	352	0	
10	0	0	0	0	506	506	352	0	
11	0	0	0	0	507	507	350	0	
12	0	0	0	0	507	507	348	0	
13	0	0	0	0	508	507	346	0	
14	0	0	0	0	508	508	344	0	
15	0	0	0	0	508	507	342	0	
0	0	0	0	0	507	508	341	0	
1	0	0	0	0	508	508	339	0	
2	0	0	0	0	510	508	337	0	
3	0	0	0	0	508	508	329	0	
4	0	0	0	0	506	508	327	0	
5	0	0	0	0	509	509	327	0	
6	0	0	0	0	510	508	324	0	
7	0	0	0	0	509	512	322	0	
8	0	0	0	0	510	508	319	0	
9	0	0	0	0	507	510	317	0	
10	0	0	0	0	511	507	313	0	
11	0	0	0	0	518	511	312	0	
12	0	0	0	0	529	508	311	0	
13	0	0	0	0	531	507	310	0	
14	0	0	0	0	527	507	313	0	
15	0	0	0	0	519	507	313	0	
0	0	0	0	0	507	507	313	0	
1	0	0	0	0	507	508	314	0	
2	0	0	0	0	508	508	315	0	
3	0	0	0	0	507	507	316	0	
4	0	0	0	0	507	506	317	0	
5	0	0	0	0	508	506	316	0	
6	0	0	0	0	507	509	317	0	
7	0	0	0	0	507	509	319	0	
8	0	0	0	0	508	508	319	0	
9	0	0	0	0	509	510	319	0	
10	0	0	0	0	512	508	319	0	
11	0	0	0	0	511	509	321	0	
12	0	0	0	0	510	512	319	0	
13	0	0	0	0	510	508	323	0	
14	0	0	0	0	510	507	324	0	
15	0	0	0	0	510	510	325	0	
0	0	0	0	0	512	507	324	0	
1	0	0	0	0	514	508	318	0	
2	0	0	0	0	512	508	319	0	
3	0	0	0	0	511	507	318	0	
4	0	0	0	0	512	505	318	0	
5	0	0	0	0	511	507	319	0	
6	0	0	0	0	510	505	319	0	
7	0	0	0	0	508	508	321	0	
8	0	0	0	0	510	507	318	0	
9	0	0	0	0	511	507	319	0	
10	0	0	0	0	511	508	320	0	
11	0	0	0	0	510	508	321	0	
12	0	0	0	0	509	511	322	0	
13	0	0	0	0	511	510	321	0	
14	0	0	0	0	513	511	322	0	
15	0	0	0	0	512	509	323	0	
0	0	0	0	0	512	510	322	0	
1	0	0	0	0	512	509	320	0	
2	0	0	0	0	511	507	319	0	
3	0	0	0	0	511	507	319	0	
4	0	0	0	0	511	508	318	0	
5	0	0	0	0	512	507	319	0	
6	0	0	0	0	512	510	318	0	
7	0	0	0	0	512	506	320	0	
8	0	0	0	0	513	507	322	0	
9	0	0	0	0	513	506	325	0	
10	0	0	0	0	511	508	325	0	
11	0	0	0	0	511	507	324	0	
12	0	0	0	0	511	507	325	0	
13	0	0	0	0	510	508	324	0	
14	0	0	0	0	508	509	320	0	
15	0	0	0	0	509	509	320	0	
0	0	0	0	0	510	510	320	0	
1	0	0	0	0	507	507	321	0	
2	0	0	0	0	509	510	319	0	
3	0	0	0	0	511	507	315	0	
4	0	0	0	0	511	506	312	0	
5	0	0	0	0	512	509	313	0	
6	0	0	0	0	511	508	310	0	
7	0	0	0	0	511	510	308	0	
8	0	0	0	0	511	511	307	0	
9	0	0	0	0	510	507	303	0	
10	0	0	0	0	511	507	303	0	
11	0	0	0	0	508	508	297	0	
12	0	0	0	0	512	510	299	0	
13	0	0	0	0	512	508	299	0	
14	0	0	0	0	513	506	299	0	
15	0	0	0	0	511	507	297	0	
0	0	0	0	0	511	507	298	0	
1	0	0	0	0	512	505	296	0	
2	0	0	0	0	512	507	293	0	
3	0	0	0	0	510	507	294	0	
4	0	0	0	0	508	507	292	0	
5	0	0	0	0	510	507	292	0	
6	0	0	0	0	513	510	288	0	
7	0	0	0	0	512	510	285	0	
8	0	0	0	0	514	508	286	0	
9	0	0	0	0	513	511	288	0	
10	0	0	0	0	510	511	283	0	
11	0	0	0	0	510	512	280	0	
12	0	0	0	0	513	511	273	0	
13	0	0	0	0	512	510	272	0	
14	0	0	0	0	512	509	275	0	
15	0	0	0	0	512	510	270	0	
0	0	0	0	0	512	510	267	0	
1	0	0	0	0	512	511	264	0	
2	0	0	0	0	511	509	263	0	
3	0	0	0	0	511	509	263	0	
4	0	0	0	0	509	508	262	0	
5	0	0	0	0	510	506	263	0	
6	0	0	0	0	508	506	264	0	
7	0	0	0	0	509	500	259	0	
8	0	0	0	0	512	495	259	0	
9	0	0	0	0	512	490	256	0	
10	0	0	0	0	513	497	253	0	
11	0	0	0	0	511	511	249	0	
12	0	0	0	0	511	519	247	0	
13	0	0	0	0	512	523	245	0	
14	0	0	0	0	508	519	242	0	
15	0	0	0	0	509	516	241	0	
0	0	0	0	0	509	516	238	0	
1	0	0	0	0	512	508	236	0	
2	0	0	0	0	516	504	230	0	
3	0	0	0	0	516	507	225	0	
4	0	0	0	0	513	508	222	0	
5	0	0	0	0	511	511	216	0	
6	0	0	0	0	510	501	213	0	
7	0	0	0	0	507	489	212	0	
8	0	0	0	0	509	490	208	0	
9	0	0	0	0	507	494	202	0	
10	0	0	0	0	506	503	203	0	
11	0	0	0	0	510	510	195	0	
12	0	0	0	0	512	510	190	0	
13	0	0	0	0	511	512	183	0	
14	0	0	0	0	511	518	181	0	
15	0	0	0	0	510	517	179	0	
0	0	0	0	0	512	513	178	0	
1	0	0	0	0	512	512	175	0	
2	0	0	0	0	510	510	176	0	
3	0	0	0	0	512	508	174	0	
4	0	0	0	0	512	508	174	0	
5	0	0	0	0	511	509	168	0	
6	0	0	0	0	512	510	166	0	
7	0	0	0	0	511	507	167	0	
8	0	0	0	0	513	508	162	0	
9	0	0	0	0	512	507	158	0	
10	0	0	0	0	510	511	156	0	
11	0	0	0	0	511	509	156	0	
12	0	0	0	0	511	510	150	0	
13	0	0	0	0	510	508	149	0	
14	0	0	0	0	508	507	148	0	
15	0	0	0	0	510	507	147	0	
0	0	0	0	0	511	508	146	0	
1	0	0	0	0	511	511	146	0	
2	0	0	0	0	511	509	146	0	
3	0	0	0	0	513	508	147	0	
4	0	0	0	0	510	510	140	0	
5	0	0	0	0	514	509	139	0	
6	0	0	0	0	512	510	140	0	
7	0	0	0	0	511	509	138	0	
8	0	0	0	0	511	506	137	0	
9	0	0	0	0	513	506	135	0	
10	0	0	0	0	514	507	135	0	
11	0	0	0	0	513	508	135	0	
12	0	0	0	0	512	508	131	0	
13	0	0	0	0	512	508	128	0	
14	0	0	0	0	514	509	131	0	
15	0	0	0	0	511	506	128	0	
0	0	0	0	0	511	508	126	0	
1	0	0	0	0	512	507	121	0	
2	0	0	0	0	511	507	124	0	
3	0	0	0	0	510	509	123	0	
4	0	0	0	0	509	510	121	0	
5	0	0	0	0	511	508	122	0	
6	0	0	0	0	509	508	122	0	
7	0	0	0	0	511	509	113	0	
8	0	0	0	0	510	508	113	0	
9	0	0	0	0	512	509	106	0	
10	0	0	0	0	512	509	105	0	
11	0	0	0	0	512	509	101	0	
12	0	0	0	0	512	510	102	0	
13	0	0	0	0	511	508	98	0	
14	0	0	0	0	510	507	96	0	
15	0	0	0	0	514	507	85	0	
0	0	0	0	0	512	513	95	0	
1	0	0	0	0	512	509	93	0	
2	0	0	0	0	511	512	80	0	
3	0	0	0	0	509	511	78	0	
4	0	0	0	0	512	502	75	0	
5	0	0	0	0	511	498	73	0	
6	0	0	0	0	511	502	73	0	
7	0	0	0	0	511	500	70	0	
8	0	0	0	0	511	504	66	0	
9	0	0	0	0	511	508	65	0	
10	0	0	0	0	509	512	63	0	
11	0	0	0	0	510	511	65	0	
12	0	0	0	0	512	511	49	0	
13	0	0	0	0	510	514	50	0	
14	0	0	0	0	509	516	54	0	
15	0	0	0	0	508	511	49	0	
0	0	0	0	0	514	509	52	0	
1	0	0	0	0	511	508	49	0	
2	0	0	0	0	510	508	47	0	
3	0	0	0	0	510	505	53	0	
4	0	0	0	0	508	506	51	0	
5	0	0	0	0	509	506	49	0	
6	0	0	0	0	512	508	47	0	
7	0	0	0	0	511	510	40	0	
8	0	0	0	0	511	505	48	0	
9	0	0	0	0	513	507	48	0	
10	0	0	0	0	512	506	47	0	
11	0	0	0	0	510	507	44	0	
12	0	0	0	0	513	508	45	0	
13	0	0	0	0	511	507	36	0	
14	0	0	0	0	507	508	2	0	
15	0	0	0	0	508	513	0	0	
0	0	0	0	0	511	510	0	0	
1	0	0	0	0	510	507	0	0	
2	0	0	0	0	508	506	0	0	
3	0	0	0	0	505	506	0	0	
4	0	0	0	0	508	505	0	0	
5	0	0	0	0	509	508	0	0	
6	0	0	0	0	512	506	0	0	
7	0	0	0	0	513	508	0	0	
8	0	0	0	0	511	509	0	0	
9	0	0	0	0	513	512	0	0	
10	0	0	0	0	514	511	0	0	
11	0	0	0	0	513	507	0	0	
12	0	0	0	0	511	507	0	0	
13	0	0	0	0	510	507	0	0	
14	0	0	0	0	510	509	0	0	
15	0	0	0	0	511	509	0	0	
0	0	0	0	0	512	513	0	0	
1	0	0	0	0	513	511	0	0	
2	0	0	0	0	513	510	0	0	
3	0	0	0	0	511	510	0	0	
4	0	0	0	0	512	510	0	0	
5	0	0	0	0	515	509	0	0	
6	0	0	0	0	515	507	0	0	
7	0	0	0	0	513	506	0	0	
8	0	0	0	0	510	504	0	0	
9	0	0	0	0	512	505	0	0	
10	0	0	0	0	511	505	0	0	
11	0	0	0	0	508	504	0	0	
12	0	0	0	0	511	500	0	0	
13	0	0	0	0	511	502	0	0	
14	0	0	0	0	508	509	0	0	
15	0	0	0	0	508	511	0	0	
0	0	0	0	0	511	512	0	0	
1	0	0	0	0	510	509	0	0	
2	0	0	0	0	513	511	0	0	
3	0	0	0	0	511	510	0	0	
4	0	0	0	0	511	510	0	0	
5	0	0	0	0	511	509	0	0	
6	0	0	0	0	509	511	0	0	
7	0	0	0	0	511	511	0	0	
8	0	0	0	0	508	508	0	0	
9	0	0	0	0	510	509	0	0	
10	0	0	0	0	507	508	0	0	
11	0	0	0	0	509	509	0	0	
12	0	0	0	0	514	508	0	0	
13	0	0	0	0	514	507	0	0	
14	0	0	0	0	511	508	0	0	
15	0	0	0	0	510	505	0	0	
0	0	0	0	0	510	508	0	0	
1	0	0	0	0	512	505	0	0	
2	0	0	0	0	512	505	0	0	
3	0	0	0	0	513	509	0	0	
4	0	0	0	0	513	507	0	0	
5	0	0	0	0	511	506	0	0	
6	0	0	0	0	511	509	0	0	
7	0	0	0	0	510	509	0	0	
8	0	0	0	0	512	509	0	0	
9	0	0	0	0	511	509	0	0	
10	0	0	0	0	514	512	0	0	
11	0	0	0	0	512	509	0	0	
12	0	0	0	0	509	512	0	0	
13	0	0	0	0	510	510	0	0	
14	0	0	0	0	511	513	0	0	
15	0	0	0	0	513	512	0	0	
0	0	0	0	0	512	510	0	0	
1	0	0	0	0	511	502	0	0	
2	0	0	0	0	515	504	0	0	
3	0	0	0	0	511	500	0	0	
4	0	0	0	0	508	502	0	0	
5	0	0	0	0	508	505	0	0	
6	0	0	0	0	512	510	0	0	
7	0	0	0	0	513	511	0	0	
8	0	0	0	0	510	508	0	0	
9	0	0	0	0	511	508	0	0	
10	0	0	0	0	509	510	0	0	
11	0	0	0	0	508	512	0	0	
12	0	0	0	0	511	515	0	0	
13	0	0	0	0	512	511	0	0	
14	0	0	0	0	511	508	0	0	
15	0	0	0	0	512	503	0	0	
0	0	0	0	0	511	504	0	0	
1	0	0	0	0	512	502	0	0	
2	0	0	0	0	513	502	0	0	
3	0	0	0	0	513	500	0	0	
4	0	0	0	0	509	501	0	0	
5	0	0	0	0	512	505	0	0	
6	0	0	0	0	512	506	0	0	
7	0	0	0	0	513	505	0	0	
8	0	0	0	0	513	510	0	0	
9	0	0	0	0	510	514	0	0	
10	0	0	0	0	512	513	0	0	
11	0	0	0	0	510	511	0	0	
12	0	0	0	0	505	510	0	0	
13	0	0	0	0	505	511	0	0	
14	0	0	0	0	512	509	0	0	
15	0	0	0	0	511	509	0	0	
0	0	0	0	0	511	510	0	0	
1	0	0	0	0	508	509	0	0	
2	0	0	0	0	510	509	0	0	
3	0	0	0	0	510	508	0	0	
4	0	0	0	0	511	511	0	0	
5	0	0	0	0	513	507	0	0	
6	0	0	0	0	510	511	0	0	
7	0	0	0	0	508	508	0	0	
8	0	0	0	0	509	509	0	0	
9	0	0	0	0	513	507	0	0	
10	0	0	0	0	512	505	0	0	
11	0	0	0	0	511	505	0	0	
12	0	0	0	0	514	508	0	0	
13	0	0	0	0	513	507	0	0	
14	0	0	0	0	512	508	0	0	
15	0	0	0	0	511	508	0	0	
0	0	0	0	0	511	506	0	0	
1	0	0	0	0	510	507	0	0	
2	0	0	0	0	512	509	0	0	
3	0	0	0	0	509	508	0	0	
4	0	0	0	0	508	508	0	0	
5	0	0	0	0	508	509	0	0	
6	0	0	0	0	511	510	0	0	
7	0	0	0	0	511	510	0	0	
8	0	0	0	0	511	511	0	0	
9	0	0	0	0	512	510	0	0	
10	0	0	0	0	515	507	0	0	
11	0	0	0	0	513	509	0	0	
12	0	0	0	0	512	509	0	0	
13	0	0	0	0	513	507	0	0	
14	0	0	0	0	513	505	0	0	
15	0	0	0	0	514	507	0	0	
0	0	0	0	0	513	508	0	0	
1	0	0	0	0	510	510	0	0	
2	0	0	0	0	509	508	0	0	
3	0	0	0	0	510	508	0	0	
4	0	0	0	0	511	507	0	0	
5	0	0	0	0	511	507	0	0	
6	0	0	0	0	509	506	0	0	
7	0	0	0	0	509	508	0	0	
8	0	0	0	0	512	510	0	0	
9	0	0	0	0	512	509	0	0	
10	0	0	0	0	512	509	0	0	
11	0	0	0	0	513	509	0	0	
12	0	0	0	0	515	508	0	0	
13	0	0	0	0	513	510	0	0	
14	0	0	0	0	511	510	0	0	
15	0	0	0	0	511	511	0	0	
0	0	0	0	0	510	507	0	0	
1	0	0	0	0	512	508	0	0	
2	0	0	0	0	511	507	0	0	
3	0	0	0	0	512	507	0	0	
4	0	0	0	0	510	506	0	0	
5	0	0	0	0	507	505	0	0	
6	0	0	0	0	510	509	0	0	
7	0	0	0	0	510	509	0	0	
8	0	0	0	0	511	508	0	0	
9	0	0	0	0	511	507	0	0	
10	0	0	0	0	511	507	0	0	
11	0	0	0	0	509	508	0	0	
12	0	0	0	0	511	510	0	0	
13	0	0	0	0	510	508	0	0	
14	0	0	0	0	512	507	0	0	
15	0	0	0	0	511	508	0	0	
0	0	0	0	0	512	510	0	0	
1	0	0	0	0	514	508	0	0	
2	0	0	0	0	511	511	0	0	
3	0	0	0	0	512	510	0	0	
4	0	0	0	0	511	510	0	0	
5	0	0	0	0	513	508	0	0	
6	0	0	0	0	512	508	0	0	
7	0	0	0	0	512	505	0	0	
8	0	0	0	0	513	506	0	0	
9	0	0	0	0	509	506	0	0	
10	0	0	0	0	509	508	0	0	
11	0	0	0	0	511	506	0	0	
12	0	0	0	0	507	506	0	0	
13	0	0	0	0	506	507	0	0	
14	0	0	0	0	509	509	0	0	
15	0	0	0	0	511	509	0	0	
0	0	0	0	0	512	510	0	0	
1	0	0	0	0	515	510	0	0	
2	0	0	0	0	512	509	0	0	
3	0	0	0	0	511	511	0	0	
4	0	0	0	0	506	510	0	0	
5	0	0	0	0	508	510	0	0	
6	0	0	0	0	509	508	0	0	
7	0	0	0	0	509	509	0	0	
8	0	0	0	0	510	508	0	0	
9	0	0	0	0	511	507	0	0	
10	0	0	0	0	515	508	0	0	
11	0	0	0	0	513	504	0	0	
12	0	0	0	0	509	507	0	0	
13	0	0	0	0	510	507	0	0	
14	0	0	0	0	513	507	0	0	
15	0	0	0	0	511	508	0	0	
0	0	0	0	0	511	508	0	0	
1	0	0	0	0	511	506	0	0	
2	0	0	0	0	511	509	0	0	
3	0	0	0	0	511	510	0	0	
4	0	0	0	0	510	509	0	0	
5	0	0	0	0	508	507	0	0	
6	0	0	0	0	512	510	0	0	
7	0	0	0	0	512	508	0	0	
8	0	0	0	0	512	510	0	0	
9	0	0	0	0	511	508	0	0	
10	0	0	0	0	508	511	0	0	
11	0	0	0	0	511	509	0	0	
12	0	0	0	0	515	508	0	0	
13	0	0	0	0	515	508	0	0	
14	0	0	0	0	515	505	0	0	
15	0	0	0	0	514	505	0	0	
0	0	0	0	0	514	507	0	0	
1	0	0	0	0	509	508	0	0	
2	0	0	0	0	505	506	0	0	
3	0	0	0	0	507	509	0	0	
4	0	0	0	0	508	507	0	0	
5	0	0	0	0	509	505	0	0	
6	0	0	0	0	511	509	0	0	
7	0	0	0	0	509	510	0	0	
8	0	0	0	0	509	510	0	0	
9	0	0	0	0	511	508	0	0	
10	0	0	0	0	511	509	0	0	
11	0	0	0	0	512	510	0	0	
12	0	0	0	0	512	510	0	0	
13	0	0	0	0	510	508	0	0	
14	0	0	0	0	513	507	0	0	
15	0	0	0	0	515	508	0	0	
0	0	0	0	0	514	507	0	0	
1	0	0	0	0	511	508	0	0	
2	0	0	0	0	508	508	0	0	
3	0	0	0	0	511	505	0	0	
4	0	0	0	0	508	508	0	0	
5	0	0	0	0	509	508	0	0	
6	0	0	0	0	512	507	0	0	
7	0	0	0	0	514	507	0	0	
8	0	0	0	0	511	508	0	0	
9	0	0	0	0	512	509	0	0	
10	0	0	0	0	509	507	0	0	
11	0	0	0	0	511	510	0	0	
12	0	0	0	0	512	508	0	0	
13	0	0	0	0	511	509	0	0	
14	0	0	0	0	509	510	0	0	
15	0	0	0	0	511	511	0	0	
0	0	0	0	0	512	508	0	0	
1	0	0	0	0	513	508	0	0	
2	0	0	0	0	511	508	0	0	
3	0	0	0	0	510	507	0	0	
4	0	0	0	0	511	507	0	0	
5	0	0	0	0	512	508	0	0	
6	0	0	0	0	514	507	0	0	
7	0	0	0	0	511	506	0	0	
8	0	0	0	0	512	507	0	0	
9	0	0	0	0	513	506	0	0	
10	0	0	0	0	510	508	0	0	
11	0	0	0	0	511	507	0	0	
12	0	0	0	0	512	508	0	0	
13	0	0	0	0	509	506	0	0	
14	0	0	0	0	512	508	0	0	
15	0	0	0	0	510	509	0	0	
