# OpenSignals Text File Format. Version 1
# {"20:18:06:13:21:78": {"position": 0, "device": "bitalino_rev", "device name": "20:18:06:13:21:78", "device connection": "BTH20:18:06:13:21:78", "sampling rate": 1000, "resolution": [4, 1, 1, 1, 1, 10, 10, 10, 10], "firmware version": 1281, "comments": "", "keywords": "", "mode": 0, "sync interval": 2, "date": "2023-5-30", "time": "18:41:59.964", "channels": [1, 2, 3, 4], "sensor": ["EMGBITREV", "EMGBITREV", "RAW", "RAW"], "label": ["A1", "A2", "A3", "A4"], "column": ["nSeq", "I1", "I2", "O1", "O2", "A1", "A2", "A3", "A4"], "special": [{}, {}, {}, {}], "digital IO": [0, 0, 1, 1]}}
# EndOfHeader
0	0	0	0	0	514	505	0	0	
1	0	0	0	0	512	507	0	0	
2	0	0	0	0	515	504	0	0	
3	0	0	0	0	516	505	0	0	
4	0	0	0	0	517	504	0	0	
5	0	0	0	0	514	505	0	0	
6	0	0	0	0	513	507	0	0	
7	0	0	0	0	509	508	0	0	
8	0	0	0	0	511	511	0	0	
9	0	0	0	0	511	510	0	0	
10	0	0	0	0	510	512	0	0	
11	0	0	0	0	508	509	0	0	
12	0	0	0	0	506	510	0	0	
13	0	0	0	0	508	510	0	0	
14	0	0	0	0	505	510	0	0	
15	0	0	0	0	508	508	0	0	
0	0	0	0	0	511	509	0	0	
1	0	0	0	0	507	508	0	0	
2	0	0	0	0	506	508	0	0	
3	0	0	0	0	512	504	0	0	
4	0	0	0	0	514	504	0	0	
5	0	0	0	0	514	505	0	0	
6	0	0	0	0	512	505	0	0	
7	0	0	0	0	513	506	0	0	
8	0	0	0	0	517	506	0	0	
9	0	0	0	0	514	506	0	0	
10	0	0	0	0	511	510	0	0	
11	0	0	0	0	511	510	0	0	
12	0	0	0	0	514	508	0	0	
13	0	0	0	0	511	509	0	0	
14	0	0	0	0	507	510	0	0	
15	0	0	0	0	507	510	0	0	
0	0	0	0	0	506	512	0	0	
1	0	0	0	0	506	509	0	0	
2	0	0	0	0	506	512	0	0	
3	0	0	0	0	505	509	0	0	
4	0	0	0	0	511	506	0	0	
5	0	0	0	0	510	506	0	0	
6	0	0	0	0	513	505	0	0	
7	0	0	0	0	515	507	0	0	
8	0	0	0	0	512	505	0	0	
9	0	0	0	0	513	505	0	0	
10	0	0	0	0	518	507	0	0	
11	0	0	0	0	519	506	0	0	
12	0	0	0	0	515	506	0	0	
13	0	0	0	0	515	507	0	0	
14	0	0	0	0	511	508	0	0	
15	0	0	0	0	515	508	0	0	
0	0	0	0	0	511	510	0	0	
1	0	0	0	0	509	511	0	0	
2	0	0	0	0	507	509	0	0	
3	0	0	0	0	509	511	0	0	
4	0	0	0	0	506	509	0	0	
5	0	0	0	0	507	511	0	0	
6	0	0	0	0	507	510	0	0	
7	0	0	0	0	508	509	0	0	
8	0	0	0	0	508	510	0	0	
9	0	0	0	0	511	508	0	0	
10	0	0	0	0	514	505	0	0	
11	0	0	0	0	515	507	0	0	
12	0	0	0	0	512	504	0	0	
13	0	0	0	0	512	506	0	0	
14	0	0	0	0	514	506	0	0	
15	0	0	0	0	516	505	0	0	
0	0	0	0	0	516	505	0	0	
1	0	0	0	0	519	506	0	0	
2	0	0	0	0	514	508	0	0	
3	0	0	0	0	508	508	0	0	
4	0	0	0	0	508	510	0	0	
5	0	0	0	0	509	511	0	0	
6	0	0	0	0	510	511	0	0	
7	0	0	0	0	508	511	0	0	
8	0	0	0	0	506	511	0	0	
9	0	0	0	0	507	511	0	0	
10	0	0	0	0	507	509	0	0	
11	0	0	0	0	509	509	0	0	
12	0	0	0	0	509	507	0	0	
13	0	0	0	0	510	507	0	0	
14	0	0	0	0	512	508	0	0	
15	0	0	0	0	511	505	0	0	
0	0	0	0	0	514	505	0	0	
1	0	0	0	0	514	509	0	0	
2	0	0	0	0	515	506	0	0	
3	0	0	0	0	514	506	0	0	
4	0	0	0	0	517	505	0	0	
5	0	0	0	0	514	506	0	0	
6	0	0	0	0	515	509	0	0	
7	0	0	0	0	512	508	0	0	
8	0	0	0	0	511	510	0	0	
9	0	0	0	0	509	509	0	0	
10	0	0	0	0	508	511	0	0	
11	0	0	0	0	507	510	0	0	
12	0	0	0	0	509	511	0	0	
13	0	0	0	0	504	510	0	0	
14	0	0	0	0	506	509	0	0	
15	0	0	0	0	507	507	0	0	
0	0	0	0	0	510	509	0	0	
1	0	0	0	0	509	508	0	0	
2	0	0	0	0	512	506	0	0	
3	0	0	0	0	513	508	0	0	
4	0	0	0	0	512	507	0	0	
5	0	0	0	0	514	505	0	0	
6	0	0	0	0	516	506	0	0	
7	0	0	0	0	516	504	0	0	
8	0	0	0	0	518	508	0	0	
9	0	0	0	0	517	507	0	0	
10	0	0	0	0	513	506	0	0	
11	0	0	0	0	512	509	0	0	
12	0	0	0	0	511	509	0	0	
13	0	0	0	0	509	510	0	0	
14	0	0	0	0	509	510	0	0	
15	0	0	0	0	506	510	0	0	
0	0	0	0	0	507	509	0	0	
1	0	0	0	0	507	511	0	0	
2	0	0	0	0	506	510	0	0	
3	0	0	0	0	508	509	0	0	
4	0	0	0	0	509	507	0	0	
5	0	0	0	0	509	508	0	0	
6	0	0	0	0	510	505	0	0	
7	0	0	0	0	512	506	0	0	
8	0	0	0	0	515	506	0	0	
9	0	0	0	0	514	507	0	0	
10	0	0	0	0	513	507	0	0	
11	0	0	0	0	513	506	0	0	
12	0	0	0	0	515	505	0	0	
13	0	0	0	0	516	505	0	0	
14	0	0	0	0	513	509	0	0	
15	0	0	0	0	512	508	0	0	
0	0	0	0	0	513	509	0	0	
1	0	0	0	0	512	511	0	0	
2	0	0	0	0	509	510	0	0	
3	0	0	0	0	508	510	0	0	
4	0	0	0	0	507	511	0	0	
5	0	0	0	0	510	509	0	0	
6	0	0	0	0	508	510	0	0	
7	0	0	0	0	505	510	0	0	
8	0	0	0	0	507	509	0	0	
9	0	0	0	0	511	507	0	0	
10	0	0	0	0	512	507	0	0	
11	0	0	0	0	511	504	0	0	
12	0	0	0	0	514	505	0	0	
13	0	0	0	0	513	505	0	0	
14	0	0	0	0	516	506	0	0	
15	0	0	0	0	515	507	0	0	
0	0	0	0	0	514	508	0	0	
1	0	0	0	0	512	505	0	0	
2	0	0	0	0	512	507	0	0	
3	0	0	0	0	510	509	0	0	
4	0	0	0	0	509	510	0	0	
5	0	0	0	0	508	511	0	0	
6	0	0	0	0	509	511	0	0	
7	0	0	0	0	507	510	0	0	
8	0	0	0	0	508	510	0	0	
9	0	0	0	0	506	508	0	0	
10	0	0	0	0	505	511	0	0	
11	0	0	0	0	509	511	0	0	
12	0	0	0	0	509	508	0	0	
13	0	0	0	0	509	509	0	0	
14	0	0	0	0	511	507	0	0	
15	0	0	0	0	513	507	0	0	
0	0	0	0	0	513	506	0	0	
1	0	0	0	0	514	505	0	0	
2	0	0	0	0	513	507	0	0	
3	0	0	0	0	515	506	0	0	
4	0	0	0	0	516	507	0	0	
5	0	0	0	0	516	506	0	0	
6	0	0	0	0	515	507	0	0	
7	0	0	0	0	514	506	0	0	
8	0	0	0	0	512	509	0	0	
9	0	0	0	0	509	510	0	0	
10	0	0	0	0	507	510	0	0	
11	0	0	0	0	506	511	0	0	
12	0	0	0	0	508	509	0	0	
13	0	0	0	0	507	510	0	0	
14	0	0	0	0	506	512	0	0	
15	0	0	0	0	506	510	0	0	
0	0	0	0	0	507	507	0	0	
1	0	0	0	0	511	509	0	0	
2	0	0	0	0	514	507	0	0	
3	0	0	0	0	513	507	0	0	
4	0	0	0	0	512	506	0	0	
5	0	0	0	0	515	506	0	0	
6	0	0	0	0	513	506	0	0	
7	0	0	0	0	514	504	0	0	
8	0	0	0	0	516	506	0	0	
9	0	0	0	0	515	506	0	0	
10	0	0	0	0	513	508	0	0	
11	0	0	0	0	513	508	0	0	
12	0	0	0	0	510	508	0	0	
13	0	0	0	0	505	511	0	0	
14	0	0	0	0	507	510	0	0	
15	0	0	0	0	506	508	0	0	
0	0	0	0	0	509	509	0	0	
1	0	0	0	0	506	508	0	0	
2	0	0	0	0	507	509	0	0	
3	0	0	0	0	508	510	0	0	
4	0	0	0	0	508	510	0	0	
5	0	0	0	0	507	510	0	0	
6	0	0	0	0	509	508	0	0	
7	0	0	0	0	513	506	0	0	
8	0	0	0	0	513	505	0	0	
9	0	0	0	0	513	508	0	0	
10	0	0	0	0	515	507	0	0	
11	0	0	0	0	515	508	0	0	
12	0	0	0	0	519	505	0	0	
13	0	0	0	0	517	505	0	0	
14	0	0	0	0	515	508	0	0	
15	0	0	0	0	513	509	0	0	
0	0	0	0	0	514	508	0	0	
1	0	0	0	0	508	511	0	0	
2	0	0	0	0	506	509	0	0	
3	0	0	0	0	509	510	0	0	
4	0	0	0	0	509	509	0	0	
5	0	0	0	0	510	510	0	0	
6	0	0	0	0	507	511	0	0	
7	0	0	0	0	507	508	0	0	
8	0	0	0	0	510	509	0	0	
9	0	0	0	0	510	507	0	0	
10	0	0	0	0	513	507	0	0	
11	0	0	0	0	513	508	0	0	
12	0	0	0	0	515	505	0	0	
13	0	0	0	0	516	508	0	0	
14	0	0	0	0	514	505	0	0	
15	0	0	0	0	516	505	0	0	
0	0	0	0	0	516	506	0	0	
1	0	0	0	0	517	507	0	0	
2	0	0	0	0	516	508	0	0	
3	0	0	0	0	512	509	0	0	
4	0	0	0	0	510	507	0	0	
5	0	0	0	0	510	509	0	0	
6	0	0	0	0	510	511	0	0	
7	0	0	0	0	506	510	0	0	
8	0	0	0	0	506	511	0	0	
9	0	0	0	0	507	510	0	0	
10	0	0	0	0	503	510	0	0	
11	0	0	0	0	506	511	0	0	
12	0	0	0	0	509	510	0	0	
13	0	0	0	0	511	506	0	0	
14	0	0	0	0	511	506	0	0	
15	0	0	0	0	513	507	0	0	
0	0	0	0	0	512	505	0	0	
1	0	0	0	0	514	506	0	0	
2	0	0	0	0	512	507	0	0	
3	0	0	0	0	516	507	0	0	
4	0	0	0	0	515	507	0	0	
5	0	0	0	0	515	507	0	0	
6	0	0	0	0	513	508	0	0	
7	0	0	0	0	510	507	0	0	
8	0	0	0	0	508	509	0	0	
9	0	0	0	0	508	508	0	0	
10	0	0	0	0	508	510	0	0	
11	0	0	0	0	504	509	0	0	
12	0	0	0	0	507	511	0	0	
13	0	0	0	0	506	510	0	0	
14	0	0	0	0	507	509	0	0	
15	0	0	0	0	505	510	0	0	
0	0	0	0	0	505	509	0	0	
1	0	0	0	0	506	507	0	0	
2	0	0	0	0	509	504	0	0	
3	0	0	0	0	516	505	0	0	
4	0	0	0	0	514	504	0	0	
5	0	0	0	0	514	504	0	0	
6	0	0	0	0	515	506	0	0	
7	0	0	0	0	514	507	0	0	
8	0	0	0	0	516	506	0	0	
9	0	0	0	0	517	508	0	0	
10	0	0	0	0	518	507	0	0	
11	0	0	0	0	515	508	0	0	
12	0	0	0	0	510	510	0	0	
13	0	0	0	0	511	510	0	0	
14	0	0	0	0	508	511	0	0	
15	0	0	0	0	504	511	0	0	
0	0	0	0	0	508	509	0	0	
1	0	0	0	0	507	509	0	0	
2	0	0	0	0	505	511	0	0	
3	0	0	0	0	508	510	0	0	
4	0	0	0	0	511	509	0	0	
5	0	0	0	0	511	510	0	0	
6	0	0	0	0	511	507	0	0	
7	0	0	0	0	514	508	0	0	
8	0	0	0	0	512	507	0	0	
9	0	0	0	0	515	507	0	0	
10	0	0	0	0	518	505	0	0	
11	0	0	0	0	513	505	0	0	
12	0	0	0	0	515	505	0	0	
13	0	0	0	0	517	504	0	0	
14	0	0	0	0	514	507	0	0	
15	0	0	0	0	512	510	0	0	
0	0	0	0	0	512	510	0	0	
1	0	0	0	0	509	508	0	0	
2	0	0	0	0	508	510	0	0	
3	0	0	0	0	508	512	0	0	
4	0	0	0	0	507	511	0	0	
5	0	0	0	0	507	511	0	0	
6	0	0	0	0	506	510	0	0	
7	0	0	0	0	508	508	0	0	
8	0	0	0	0	510	509	0	0	
9	0	0	0	0	510	507	0	0	
10	0	0	0	0	510	507	0	0	
11	0	0	0	0	514	507	0	0	
12	0	0	0	0	512	508	0	0	
13	0	0	0	0	511	506	0	0	
14	0	0	0	0	515	503	0	0	
15	0	0	0	0	515	507	0	0	
0	0	0	0	0	516	505	0	0	
1	0	0	0	0	516	508	0	0	
2	0	0	0	0	514	509	0	0	
3	0	0	0	0	510	510	0	0	
4	0	0	0	0	510	510	0	0	
5	0	0	0	0	510	510	0	0	
6	0	0	0	0	508	508	0	0	
7	0	0	0	0	509	510	0	0	
8	0	0	0	0	509	509	0	0	
9	0	0	0	0	508	509	0	0	
10	0	0	0	0	504	512	0	0	
11	0	0	0	0	506	510	0	0	
12	0	0	0	0	508	507	0	0	
13	0	0	0	0	511	507	0	0	
14	0	0	0	0	510	508	0	0	
15	0	0	0	0	510	506	0	0	
0	0	0	0	0	512	508	0	0	
1	0	0	0	0	514	507	0	0	
2	0	0	0	0	514	506	0	0	
3	0	0	0	0	518	506	0	0	
4	0	0	0	0	518	505	0	0	
5	0	0	0	0	517	508	0	0	
6	0	0	0	0	515	509	0	0	
7	0	0	0	0	512	509	0	0	
8	0	0	0	0	511	508	0	0	
9	0	0	0	0	510	510	0	0	
10	0	0	0	0	509	509	0	0	
11	0	0	0	0	507	511	0	0	
12	0	0	0	0	505	511	0	0	
13	0	0	0	0	507	510	0	0	
14	0	0	0	0	508	508	0	0	
15	0	0	0	0	507	509	0	0	
0	0	0	0	0	504	508	0	0	
1	0	0	0	0	508	508	0	0	
2	0	0	0	0	511	505	0	0	
3	0	0	0	0	513	506	0	0	
4	0	0	0	0	515	504	0	0	
5	0	0	0	0	517	506	0	0	
6	0	0	0	0	513	505	0	0	
7	0	0	0	0	513	506	0	0	
8	0	0	0	0	516	507	0	0	
9	0	0	0	0	515	507	0	0	
10	0	0	0	0	511	506	0	0	
11	0	0	0	0	512	508	0	0	
12	0	0	0	0	511	510	0	0	
13	0	0	0	0	508	510	0	0	
14	0	0	0	0	509	509	0	0	
15	0	0	0	0	508	510	0	0	
0	0	0	0	0	508	508	0	0	
1	0	0	0	0	505	510	0	0	
2	0	0	0	0	502	512	0	0	
3	0	0	0	0	504	511	0	0	
4	0	0	0	0	507	508	0	0	
5	0	0	0	0	511	508	0	0	
6	0	0	0	0	510	507	0	0	
7	0	0	0	0	511	506	0	0	
8	0	0	0	0	513	505	0	0	
9	0	0	0	0	515	508	0	0	
10	0	0	0	0	516	506	0	0	
11	0	0	0	0	515	505	0	0	
12	0	0	0	0	515	505	0	0	
13	0	0	0	0	517	505	0	0	
14	0	0	0	0	517	506	0	0	
15	0	0	0	0	513	509	0	0	
0	0	0	0	0	509	510	0	0	
1	0	0	0	0	509	510	0	0	
2	0	0	0	0	511	510	0	0	
3	0	0	0	0	510	511	0	0	
4	0	0	0	0	508	509	0	0	
5	0	0	0	0	504	510	0	0	
6	0	0	0	0	507	511	0	0	
7	0	0	0	0	507	509	0	0	
8	0	0	0	0	509	510	0	0	
9	0	0	0	0	509	508	0	0	
10	0	0	0	0	512	507	0	0	
11	0	0	0	0	514	508	0	0	
12	0	0	0	0	512	507	0	0	
13	0	0	0	0	513	505	0	0	
14	0	0	0	0	516	507	0	0	
15	0	0	0	0	516	505	0	0	
0	0	0	0	0	515	507	0	0	
1	0	0	0	0	514	506	0	0	
2	0	0	0	0	511	508	0	0	
3	0	0	0	0	515	507	0	0	
4	0	0	0	0	513	507	0	0	
5	0	0	0	0	510	510	0	0	
6	0	0	0	0	504	510	0	0	
7	0	0	0	0	505	510	0	0	
8	0	0	0	0	506	509	0	0	
9	0	0	0	0	510	508	0	0	
10	0	0	0	0	507	510	0	0	
11	0	0	0	0	508	512	0	0	
12	0	0	0	0	511	510	0	0	
13	0	0	0	0	511	509	0	0	
14	0	0	0	0	511	507	0	0	
15	0	0	0	0	509	506	0	0	
0	0	0	0	0	512	508	0	0	
1	0	0	0	0	514	505	0	0	
2	0	0	0	0	515	507	0	0	
3	0	0	0	0	515	505	0	0	
4	0	0	0	0	513	508	0	0	
5	0	0	0	0	516	503	0	0	
6	0	0	0	0	518	508	0	0	
7	0	0	0	0	514	508	0	0	
8	0	0	0	0	512	507	0	0	
9	0	0	0	0	508	510	0	0	
10	0	0	0	0	508	511	0	0	
11	0	0	0	0	509	509	0	0	
12	0	0	0	0	503	509	0	0	
13	0	0	0	0	503	510	0	0	
14	0	0	0	0	504	508	0	0	
15	0	0	0	0	507	509	0	0	
0	0	0	0	0	509	509	0	0	
1	0	0	0	0	508	509	0	0	
2	0	0	0	0	508	508	0	0	
3	0	0	0	0	511	506	0	0	
4	0	0	0	0	511	507	0	0	
5	0	0	0	0	513	505	0	0	
6	0	0	0	0	517	505	0	0	
7	0	0	0	0	513	505	0	0	
8	0	0	0	0	515	507	0	0	
9	0	0	0	0	517	506	0	0	
10	0	0	0	0	515	507	0	0	
11	0	0	0	0	513	507	0	0	
12	0	0	0	0	513	509	0	0	
13	0	0	0	0	514	509	0	0	
14	0	0	0	0	508	510	0	0	
15	0	0	0	0	508	509	0	0	
0	0	0	0	0	509	512	0	0	
1	0	0	0	0	507	510	0	0	
2	0	0	0	0	507	511	0	0	
3	0	0	0	0	509	509	0	0	
4	0	0	0	0	509	508	0	0	
5	0	0	0	0	510	507	0	0	
6	0	0	0	0	510	508	0	0	
7	0	0	0	0	515	507	0	0	
8	0	0	0	0	513	508	0	0	
9	0	0	0	0	514	508	0	0	
10	0	0	0	0	511	506	0	0	
11	0	0	0	0	513	506	0	0	
12	0	0	0	0	518	506	0	0	
13	0	0	0	0	515	505	0	0	
14	0	0	0	0	513	507	0	0	
15	0	0	0	0	514	508	0	0	
0	0	0	0	0	515	507	0	0	
1	0	0	0	0	510	510	0	0	
2	0	0	0	0	507	511	0	0	
3	0	0	0	0	509	509	0	0	
4	0	0	0	0	507	510	0	0	
5	0	0	0	0	505	512	0	0	
6	0	0	0	0	502	511	0	0	
7	0	0	0	0	507	508	0	0	
8	0	0	0	0	511	507	0	0	
9	0	0	0	0	511	507	0	0	
10	0	0	0	0	512	507	0	0	
11	0	0	0	0	511	505	0	0	
12	0	0	0	0	511	510	0	0	
13	0	0	0	0	513	508	0	0	
14	0	0	0	0	516	508	0	0	
15	0	0	0	0	516	507	0	0	
0	0	0	0	0	516	505	0	0	
1	0	0	0	0	516	506	0	0	
2	0	0	0	0	518	507	0	0	
3	0	0	0	0	515	509	0	0	
4	0	0	0	0	513	508	0	0	
5	0	0	0	0	509	510	0	0	
6	0	0	0	0	505	510	0	0	
7	0	0	0	0	506	509	0	0	
8	0	0	0	0	508	508	0	0	
9	0	0	0	0	509	508	0	0	
10	0	0	0	0	507	510	0	0	
11	0	0	0	0	505	510	0	0	
12	0	0	0	0	506	509	0	0	
13	0	0	0	0	507	508	0	0	
14	0	0	0	0	511	507	0	0	
15	0	0	0	0	514	507	0	0	
0	0	0	0	0	513	506	0	0	
1	0	0	0	0	516	505	0	0	
2	0	0	0	0	514	506	0	0	
3	0	0	0	0	512	507	0	0	
4	0	0	0	0	517	504	0	0	
5	0	0	0	0	515	505	0	0	
6	0	0	0	0	516	505	0	0	
7	0	0	0	0	515	508	0	0	
8	0	0	0	0	513	508	0	0	
9	0	0	0	0	508	510	0	0	
10	0	0	0	0	508	510	0	0	
11	0	0	0	0	507	509	0	0	
12	0	0	0	0	506	510	0	0	
13	0	0	0	0	505	510	0	0	
14	0	0	0	0	508	509	0	0	
15	0	0	0	0	508	510	0	0	
0	0	0	0	0	507	509	0	0	
1	0	0	0	0	508	508	0	0	
2	0	0	0	0	509	509	0	0	
3	0	0	0	0	509	507	0	0	
4	0	0	0	0	514	507	0	0	
5	0	0	0	0	511	505	0	0	
6	0	0	0	0	514	506	0	0	
7	0	0	0	0	515	505	0	0	
8	0	0	0	0	517	507	0	0	
9	0	0	0	0	516	507	0	0	
10	0	0	0	0	516	507	0	0	
11	0	0	0	0	511	507	0	0	
12	0	0	0	0	510	509	0	0	
13	0	0	0	0	512	510	0	0	
14	0	0	0	0	510	508	0	0	
15	0	0	0	0	509	512	0	0	
0	0	0	0	0	508	513	0	0	
1	0	0	0	0	505	509	0	0	
2	0	0	0	0	505	510	0	0	
3	0	0	0	0	507	510	0	0	
4	0	0	0	0	508	511	0	0	
5	0	0	0	0	508	507	0	0	
6	0	0	0	0	511	505	0	0	
7	0	0	0	0	512	507	0	0	
8	0	0	0	0	513	507	0	0	
9	0	0	0	0	513	505	0	0	
10	0	0	0	0	515	506	0	0	
11	0	0	0	0	518	504	0	0	
12	0	0	0	0	515	506	0	0	
13	0	0	0	0	515	507	0	0	
14	0	0	0	0	514	507	0	0	
15	0	0	0	0	515	510	0	0	
0	0	0	0	0	513	510	0	0	
1	0	0	0	0	512	508	0	0	
2	0	0	0	0	508	509	0	0	
3	0	0	0	0	509	509	0	0	
4	0	0	0	0	507	510	0	0	
5	0	0	0	0	506	508	0	0	
6	0	0	0	0	503	508	0	0	
7	0	0	0	0	507	509	0	0	
8	0	0	0	0	507	510	0	0	
9	0	0	0	0	509	508	0	0	
10	0	0	0	0	510	511	0	0	
11	0	0	0	0	513	505	0	0	
12	0	0	0	0	513	506	0	0	
13	0	0	0	0	516	507	0	0	
14	0	0	0	0	513	505	0	0	
15	0	0	0	0	514	507	0	0	
0	0	0	0	0	514	505	0	0	
1	0	0	0	0	515	507	0	0	
2	0	0	0	0	515	507	0	0	
3	0	0	0	0	515	508	0	0	
4	0	0	0	0	510	508	0	0	
5	0	0	0	0	510	508	0	0	
6	0	0	0	0	508	509	0	0	
7	0	0	0	0	508	510	0	0	
8	0	0	0	0	509	511	0	0	
9	0	0	0	0	508	511	0	0	
10	0	0	0	0	506	511	0	0	
11	0	0	0	0	506	508	0	0	
12	0	0	0	0	506	509	0	0	
13	0	0	0	0	509	508	0	0	
14	0	0	0	0	507	509	0	0	
15	0	0	0	0	511	508	0	0	
0	0	0	0	0	513	507	0	0	
1	0	0	0	0	514	505	0	0	
2	0	0	0	0	514	507	0	0	
3	0	0	0	0	514	505	0	0	
4	0	0	0	0	514	507	0	0	
5	0	0	0	0	516	506	0	0	
6	0	0	0	0	520	507	0	0	
7	0	0	0	0	517	506	0	0	
8	0	0	0	0	513	508	0	0	
9	0	0	0	0	510	509	0	0	
10	0	0	0	0	509	511	0	0	
11	0	0	0	0	506	509	0	0	
12	0	0	0	0	504	511	0	0	
13	0	0	0	0	511	510	0	0	
14	0	0	0	0	505	512	0	0	
15	0	0	0	0	504	508	0	0	
0	0	0	0	0	507	512	0	0	
1	0	0	0	0	508	508	0	0	
2	0	0	0	0	510	508	0	0	
3	0	0	0	0	516	507	0	0	
4	0	0	0	0	516	507	0	0	
5	0	0	0	0	514	506	0	0	
6	0	0	0	0	514	508	0	0	
7	0	0	0	0	516	506	0	0	
8	0	0	0	0	516	506	0	0	
9	0	0	0	0	515	505	0	0	
10	0	0	0	0	512	505	0	0	
11	0	0	0	0	509	507	0	0	
12	0	0	0	0	504	508	0	0	
13	0	0	0	0	505	508	0	0	
14	0	0	0	0	508	510	0	0	
15	0	0	0	0	506	511	0	0	
0	0	0	0	0	503	511	0	0	
1	0	0	0	0	501	510	0	0	
2	0	0	0	0	501	511	0	0	
3	0	0	0	0	510	511	0	0	
4	0	0	0	0	517	508	0	0	
5	0	0	0	0	515	508	0	0	
6	0	0	0	0	522	506	0	0	
7	0	0	0	0	528	505	0	0	
8	0	0	0	0	533	505	0	0	
9	0	0	0	0	528	505	0	0	
10	0	0	0	0	522	507	0	0	
11	0	0	0	0	515	508	0	0	
12	0	0	0	0	512	507	0	0	
13	0	0	0	0	513	508	0	0	
14	0	0	0	0	511	508	0	0	
15	0	0	0	0	509	507	0	0	
0	0	0	0	0	507	509	0	0	
1	0	0	0	0	508	510	0	0	
2	0	0	0	0	507	508	0	0	
3	0	0	0	0	504	508	0	0	
4	0	0	0	0	503	511	0	0	
5	0	0	0	0	504	510	0	0	
6	0	0	0	0	502	510	0	0	
7	0	0	0	0	506	510	0	0	
8	0	0	0	0	508	507	0	0	
9	0	0	0	0	507	506	0	0	
10	0	0	0	0	511	507	0	0	
11	0	0	0	0	513	509	0	0	
12	0	0	0	0	511	505	0	0	
13	0	0	0	0	511	504	0	0	
14	0	0	0	0	513	506	0	0	
15	0	0	0	0	515	507	0	0	
0	0	0	0	0	518	507	0	0	
1	0	0	0	0	515	505	0	0	
2	0	0	0	0	511	507	0	0	
3	0	0	0	0	511	508	0	0	
4	0	0	0	0	513	507	0	0	
5	0	0	0	0	511	507	0	0	
6	0	0	0	0	509	510	0	0	
7	0	0	0	0	507	511	0	0	
8	0	0	0	0	508	510	0	0	
9	0	0	0	0	507	511	0	0	
10	0	0	0	0	506	509	0	0	
11	0	0	0	0	508	511	0	0	
12	0	0	0	0	510	508	0	0	
13	0	0	0	0	512	511	0	0	
14	0	0	0	0	511	507	0	0	
15	0	0	0	0	511	507	0	0	
0	0	0	0	0	511	506	0	0	
1	0	0	0	0	514	504	0	0	
2	0	0	0	0	515	505	0	0	
3	0	0	0	0	514	508	0	0	
4	0	0	0	0	516	507	0	0	
5	0	0	0	0	519	505	0	0	
6	0	0	0	0	515	507	0	0	
7	0	0	0	0	515	508	0	0	
8	0	0	0	0	513	509	0	0	
9	0	0	0	0	512	507	0	0	
10	0	0	0	0	508	509	0	0	
11	0	0	0	0	506	511	0	0	
12	0	0	0	0	505	511	0	0	
13	0	0	0	0	507	511	0	0	
14	0	0	0	0	506	509	0	0	
15	0	0	0	0	508	508	0	0	
0	0	0	0	0	508	507	0	0	
1	0	0	0	0	510	510	0	0	
2	0	0	0	0	511	506	0	0	
3	0	0	0	0	512	507	0	0	
4	0	0	0	0	512	505	0	0	
5	0	0	0	0	512	507	0	0	
6	0	0	0	0	514	505	0	0	
7	0	0	0	0	515	505	0	0	
8	0	0	0	0	519	507	0	0	
9	0	0	0	0	515	506	0	0	
10	0	0	0	0	512	508	0	0	
11	0	0	0	0	512	508	0	0	
12	0	0	0	0	513	511	0	0	
13	0	0	0	0	509	510	0	0	
14	0	0	0	0	508	509	0	0	
15	0	0	0	0	509	509	0	0	
0	0	0	0	0	511	510	0	0	
1	0	0	0	0	505	511	0	0	
2	0	0	0	0	506	510	0	0	
3	0	0	0	0	509	510	0	0	
4	0	0	0	0	512	508	0	0	
5	0	0	0	0	509	510	0	0	
6	0	0	0	0	507	508	0	0	
7	0	0	0	0	511	505	0	0	
8	0	0	0	0	510	507	0	0	
9	0	0	0	0	510	505	0	0	
10	0	0	0	0	513	508	0	0	
11	0	0	0	0	512	506	0	0	
12	0	0	0	0	513	506	0	0	
13	0	0	0	0	517	504	0	0	
14	0	0	0	0	518	509	0	0	
15	0	0	0	0	512	508	0	0	
0	0	0	0	0	508	508	0	0	
1	0	0	0	0	512	510	0	0	
2	0	0	0	0	511	508	0	0	
3	0	0	0	0	511	508	0	0	
4	0	0	0	0	510	511	0	0	
5	0	0	0	0	508	510	0	0	
6	0	0	0	0	509	509	0	0	
7	0	0	0	0	505	510	0	0	
8	0	0	0	0	509	509	0	0	
9	0	0	0	0	510	507	0	0	
10	0	0	0	0	508	508	0	0	
11	0	0	0	0	511	508	0	0	
12	0	0	0	0	511	505	0	0	
13	0	0	0	0	512	506	0	0	
14	0	0	0	0	515	505	0	0	
15	0	0	0	0	515	507	0	0	
0	0	0	0	0	516	506	0	0	
1	0	0	0	0	518	506	0	0	
2	0	0	0	0	515	506	0	0	
3	0	0	0	0	514	507	0	0	
4	0	0	0	0	512	507	0	0	
5	0	0	0	0	509	510	0	0	
6	0	0	0	0	505	510	0	0	
7	0	0	0	0	507	510	0	0	
8	0	0	0	0	508	508	0	0	
9	0	0	0	0	509	507	0	0	
10	0	0	0	0	509	509	0	0	
11	0	0	0	0	507	511	0	0	
12	0	0	0	0	506	511	0	0	
13	0	0	0	0	507	508	0	0	
14	0	0	0	0	512	507	0	0	
15	0	0	0	0	515	508	0	0	
0	0	0	0	0	515	508	0	0	
1	0	0	0	0	521	505	0	0	
2	0	0	0	0	518	506	0	0	
3	0	0	0	0	515	508	0	0	
4	0	0	0	0	512	507	0	0	
5	0	0	0	0	515	505	0	0	
6	0	0	0	0	516	506	0	0	
7	0	0	0	0	513	507	0	0	
8	0	0	0	0	512	508	0	0	
9	0	0	0	0	510	509	0	0	
10	0	0	0	0	509	509	0	0	
11	0	0	0	0	506	512	0	0	
12	0	0	0	0	507	511	0	0	
13	0	0	0	0	506	509	0	0	
14	0	0	0	0	508	510	0	0	
15	0	0	0	0	506	510	0	0	
0	0	0	0	0	509	510	0	0	
1	0	0	0	0	507	507	0	0	
2	0	0	0	0	507	507	0	0	
3	0	0	0	0	511	505	0	0	
4	0	0	0	0	510	508	0	0	
5	0	0	0	0	514	507	0	0	
6	0	0	0	0	514	504	0	0	
7	0	0	0	0	512	506	0	0	
8	0	0	0	0	516	506	0	0	
9	0	0	0	0	516	504	0	0	
10	0	0	0	0	513	508	0	0	
11	0	0	0	0	512	509	0	0	
12	0	0	0	0	513	509	0	0	
13	0	0	0	0	510	509	0	0	
14	0	0	0	0	510	509	0	0	
15	0	0	0	0	511	510	0	0	
0	0	0	0	0	504	511	0	0	
1	0	0	0	0	500	510	0	0	
2	0	0	0	0	506	509	0	0	
3	0	0	0	0	506	508	0	0	
4	0	0	0	0	508	507	0	0	
5	0	0	0	0	508	509	0	0	
6	0	0	0	0	512	509	0	0	
7	0	0	0	0	511	507	0	0	
8	0	0	0	0	512	506	0	0	
9	0	0	0	0	510	507	0	0	
10	0	0	0	0	515	506	0	0	
11	0	0	0	0	515	507	0	0	
12	0	0	0	0	516	504	0	0	
13	0	0	0	0	516	506	0	0	
14	0	0	0	0	517	508	0	0	
15	0	0	0	0	513	509	0	0	
0	0	0	0	0	513	508	0	0	
1	0	0	0	0	511	507	0	0	
2	0	0	0	0	508	509	0	0	
3	0	0	0	0	506	510	0	0	
4	0	0	0	0	507	510	0	0	
5	0	0	0	0	507	509	0	0	
6	0	0	0	0	507	509	0	0	
7	0	0	0	0	505	510	0	0	
8	0	0	0	0	508	509	0	0	
9	0	0	0	0	509	508	0	0	
10	0	0	0	0	509	510	0	0	
11	0	0	0	0	510	507	0	0	
12	0	0	0	0	514	508	0	0	
13	0	0	0	0	513	507	0	0	
14	0	0	0	0	513	505	0	0	
15	0	0	0	0	514	507	0	0	
0	0	0	0	0	514	508	0	0	
1	0	0	0	0	515	506	0	0	
2	0	0	0	0	515	508	0	0	
3	0	0	0	0	516	505	0	0	
4	0	0	0	0	513	508	0	0	
5	0	0	0	0	511	508	0	0	
6	0	0	0	0	510	510	0	0	
7	0	0	0	0	508	510	0	0	
8	0	0	0	0	504	510	0	0	
9	0	0	0	0	505	510	0	0	
10	0	0	0	0	509	510	0	0	
11	0	0	0	0	510	510	0	0	
12	0	0	0	0	508	511	0	0	
13	0	0	0	0	509	508	0	0	
14	0	0	0	0	511	507	0	0	
15	0	0	0	0	512	507	0	0	
0	0	0	0	0	512	506	0	0	
1	0	0	0	0	513	506	0	0	
2	0	0	0	0	514	505	0	0	
3	0	0	0	0	515	507	0	0	
4	0	0	0	0	515	505	0	0	
5	0	0	0	0	515	504	0	0	
6	0	0	0	0	515	506	0	0	
7	0	0	0	0	516	507	0	0	
8	0	0	0	0	512	507	0	0	
9	0	0	0	0	510	508	0	0	
10	0	0	0	0	508	508	0	0	
11	0	0	0	0	507	511	0	0	
12	0	0	0	0	504	511	0	0	
13	0	0	0	0	505	510	0	0	
14	0	0	0	0	504	511	0	0	
15	0	0	0	0	505	510	0	0	
0	0	0	0	0	508	508	0	0	
1	0	0	0	0	508	509	0	0	
2	0	0	0	0	509	508	0	0	
3	0	0	0	0	513	510	0	0	
4	0	0	0	0	511	507	0	0	
5	0	0	0	0	511	507	0	0	
6	0	0	0	0	517	507	0	0	
7	0	0	0	0	516	506	0	0	
8	0	0	0	0	518	503	0	0	
9	0	0	0	0	517	505	0	0	
10	0	0	0	0	514	507	0	0	
11	0	0	0	0	512	507	0	0	
12	0	0	0	0	512	507	0	0	
13	0	0	0	0	510	509	0	0	
14	0	0	0	0	512	509	0	0	
15	0	0	0	0	510	511	0	0	
0	0	0	0	0	508	509	0	0	
1	0	0	0	0	508	510	0	0	
2	0	0	0	0	505	510	0	0	
3	0	0	0	0	504	510	0	0	
4	0	0	0	0	506	510	0	0	
5	0	0	0	0	509	508	0	0	
6	0	0	0	0	509	509	0	0	
7	0	0	0	0	511	508	0	0	
8	0	0	0	0	510	507	0	0	
9	0	0	0	0	512	504	0	0	
10	0	0	0	0	514	505	0	0	
11	0	0	0	0	511	506	0	0	
12	0	0	0	0	513	505	0	0	
13	0	0	0	0	518	505	0	0	
14	0	0	0	0	519	506	0	0	
15	0	0	0	0	513	507	0	0	
0	0	0	0	0	513	509	0	0	
1	0	0	0	0	513	510	0	0	
2	0	0	0	0	511	510	0	0	
3	0	0	0	0	510	511	0	0	
4	0	0	0	0	508	511	0	0	
5	0	0	0	0	506	510	0	0	
6	0	0	0	0	504	511	0	0	
7	0	0	0	0	505	510	0	0	
8	0	0	0	0	508	510	0	0	
9	0	0	0	0	510	508	0	0	
10	0	0	0	0	510	507	0	0	
11	0	0	0	0	513	508	0	0	
12	0	0	0	0	512	508	0	0	
13	0	0	0	0	513	506	0	0	
14	0	0	0	0	511	507	0	0	
15	0	0	0	0	513	507	0	0	
0	0	0	0	0	515	505	0	0	
1	0	0	0	0	515	504	0	0	
2	0	0	0	0	515	505	0	0	
3	0	0	0	0	512	506	0	0	
4	0	0	0	0	513	508	0	0	
5	0	0	0	0	511	508	0	0	
6	0	0	0	0	506	509	0	0	
7	0	0	0	0	507	509	0	0	
8	0	0	0	0	507	510	0	0	
9	0	0	0	0	507	510	0	0	
10	0	0	0	0	507	510	0	0	
11	0	0	0	0	508	509	0	0	
12	0	0	0	0	508	509	0	0	
13	0	0	0	0	508	508	0	0	
14	0	0	0	0	509	508	0	0	
15	0	0	0	0	511	508	0	0	
0	0	0	0	0	513	506	0	0	
1	0	0	0	0	513	508	0	0	
2	0	0	0	0	513	505	0	0	
3	0	0	0	0	514	506	0	0	
4	0	0	0	0	517	507	0	0	
5	0	0	0	0	519	505	0	0	
6	0	0	0	0	516	506	0	0	
7	0	0	0	0	515	507	0	0	
8	0	0	0	0	514	508	0	0	
9	0	0	0	0	511	509	0	0	
10	0	0	0	0	507	510	0	0	
11	0	0	0	0	507	510	0	0	
12	0	0	0	0	506	511	0	0	
13	0	0	0	0	506	510	0	0	
14	0	0	0	0	507	512	0	0	
15	0	0	0	0	505	511	0	0	
0	0	0	0	0	512	509	0	0	
1	0	0	0	0	511	508	0	0	
2	0	0	0	0	509	507	0	0	
3	0	0	0	0	508	507	0	0	
4	0	0	0	0	512	506	0	0	
5	0	0	0	0	516	505	0	0	
6	0	0	0	0	513	508	0	0	
7	0	0	0	0	512	506	0	0	
8	0	0	0	0	512	507	0	0	
9	0	0	0	0	518	504	0	0	
10	0	0	0	0	518	507	0	0	
11	0	0	0	0	511	505	0	0	
12	0	0	0	0	510	508	0	0	
13	0	0	0	0	511	511	0	0	
14	0	0	0	0	509	510	0	0	
15	0	0	0	0	510	510	0	0	
0	0	0	0	0	506	510	0	0	
1	0	0	0	0	507	512	0	0	
2	0	0	0	0	507	510	0	0	
3	0	0	0	0	508	510	0	0	
4	0	0	0	0	508	509	0	0	
5	0	0	0	0	507	509	0	0	
6	0	0	0	0	510	507	0	0	
7	0	0	0	0	511	507	0	0	
8	0	0	0	0	510	506	0	0	
9	0	0	0	0	511	507	0	0	
10	0	0	0	0	512	504	0	0	
11	0	0	0	0	515	505	0	0	
12	0	0	0	0	516	507	0	0	
13	0	0	0	0	515	506	0	0	
14	0	0	0	0	515	507	0	0	
15	0	0	0	0	515	506	0	0	
0	0	0	0	0	513	508	0	0	
1	0	0	0	0	512	508	0	0	
2	0	0	0	0	509	511	0	0	
3	0	0	0	0	505	511	0	0	
4	0	0	0	0	507	512	0	0	
5	0	0	0	0	507	510	0	0	
6	0	0	0	0	508	510	0	0	
7	0	0	0	0	504	511	0	0	
8	0	0	0	0	506	509	0	0	
9	0	0	0	0	509	507	0	0	
10	0	0	0	0	511	508	0	0	
11	0	0	0	0	512	508	0	0	
12	0	0	0	0	516	505	0	0	
13	0	0	0	0	517	506	0	0	
14	0	0	0	0	514	506	0	0	
15	0	0	0	0	512	505	0	0	
0	0	0	0	0	515	505	0	0	
1	0	0	0	0	512	505	0	0	
2	0	0	0	0	518	505	0	0	
3	0	0	0	0	511	508	0	0	
4	0	0	0	0	511	508	0	0	
5	0	0	0	0	508	508	0	0	
6	0	0	0	0	510	508	0	0	
7	0	0	0	0	509	509	0	0	
8	0	0	0	0	510	509	0	0	
9	0	0	0	0	510	509	0	0	
10	0	0	0	0	508	511	0	0	
11	0	0	0	0	504	511	0	0	
12	0	0	0	0	508	510	0	0	
13	0	0	0	0	511	507	0	0	
14	0	0	0	0	511	508	0	0	
15	0	0	0	0	511	508	0	0	
0	0	0	0	0	508	507	0	0	
1	0	0	0	0	509	507	0	0	
2	0	0	0	0	511	509	0	0	
3	0	0	0	0	515	507	0	0	
4	0	0	0	0	516	505	0	0	
5	0	0	0	0	512	505	0	0	
6	0	0	0	0	513	506	0	0	
7	0	0	0	0	512	508	0	0	
8	0	0	0	0	512	510	0	0	
9	0	0	0	0	513	510	0	0	
10	0	0	0	0	513	511	0	0	
11	0	0	0	0	510	510	0	0	
12	0	0	0	0	508	511	0	0	
13	0	0	0	0	508	511	0	0	
14	0	0	0	0	506	508	0	0	
15	0	0	0	0	504	508	0	0	
0	0	0	0	0	510	508	0	0	
1	0	0	0	0	508	508	0	0	
2	0	0	0	0	506	508	0	0	
3	0	0	0	0	508	510	0	0	
4	0	0	0	0	508	507	0	0	
5	0	0	0	0	515	507	0	0	
6	0	0	0	0	517	505	0	0	
7	0	0	0	0	515	505	0	0	
8	0	0	0	0	515	508	0	0	
9	0	0	0	0	517	504	0	0	
10	0	0	0	0	515	504	0	0	
11	0	0	0	0	514	507	0	0	
12	0	0	0	0	513	507	0	0	
13	0	0	0	0	510	510	0	0	
14	0	0	0	0	510	509	0	0	
15	0	0	0	0	506	510	0	0	
0	0	0	0	0	508	511	0	0	
1	0	0	0	0	509	508	0	0	
2	0	0	0	0	508	511	0	0	
3	0	0	0	0	504	510	0	0	
4	0	0	0	0	508	510	0	0	
5	0	0	0	0	509	509	0	0	
6	0	0	0	0	508	510	0	0	
7	0	0	0	0	512	507	0	0	
8	0	0	0	0	513	507	0	0	
9	0	0	0	0	509	506	0	0	
10	0	0	0	0	514	506	0	0	
11	0	0	0	0	516	506	0	0	
12	0	0	0	0	516	504	0	0	
13	0	0	0	0	518	505	0	0	
14	0	0	0	0	518	506	0	0	
15	0	0	0	0	514	508	0	0	
0	0	0	0	0	513	507	0	0	
1	0	0	0	0	513	508	0	0	
2	0	0	0	0	510	509	0	0	
3	0	0	0	0	506	509	0	0	
4	0	0	0	0	508	509	0	0	
5	0	0	0	0	507	510	0	0	
6	0	0	0	0	508	510	0	0	
7	0	0	0	0	506	511	0	0	
8	0	0	0	0	508	510	0	0	
9	0	0	0	0	509	507	0	0	
10	0	0	0	0	513	506	0	0	
11	0	0	0	0	511	507	0	0	
12	0	0	0	0	511	508	0	0	
13	0	0	0	0	509	508	0	0	
14	0	0	0	0	511	506	0	0	
15	0	0	0	0	515	504	0	0	
0	0	0	0	0	515	506	0	0	
1	0	0	0	0	515	506	0	0	
2	0	0	0	0	517	507	0	0	
3	0	0	0	0	515	506	0	0	
4	0	0	0	0	513	508	0	0	
5	0	0	0	0	512	509	0	0	
6	0	0	0	0	508	510	0	0	
7	0	0	0	0	506	509	0	0	
8	0	0	0	0	508	510	0	0	
9	0	0	0	0	508	510	0	0	
10	0	0	0	0	509	510	0	0	
11	0	0	0	0	508	511	0	0	
12	0	0	0	0	508	508	0	0	
13	0	0	0	0	508	509	0	0	
14	0	0	0	0	509	509	0	0	
15	0	0	0	0	509	508	0	0	
0	0	0	0	0	514	508	0	0	
1	0	0	0	0	516	508	0	0	
2	0	0	0	0	514	506	0	0	
3	0	0	0	0	515	503	0	0	
4	0	0	0	0	515	506	0	0	
5	0	0	0	0	515	506	0	0	
6	0	0	0	0	517	507	0	0	
7	0	0	0	0	515	507	0	0	
8	0	0	0	0	514	508	0	0	
9	0	0	0	0	512	508	0	0	
10	0	0	0	0	507	508	0	0	
11	0	0	0	0	508	511	0	0	
12	0	0	0	0	506	510	0	0	
13	0	0	0	0	508	511	0	0	
14	0	0	0	0	507	510	0	0	
15	0	0	0	0	507	510	0	0	
0	0	0	0	0	510	510	0	0	
1	0	0	0	0	510	508	0	0	
2	0	0	0	0	511	506	0	0	
3	0	0	0	0	513	507	0	0	
4	0	0	0	0	511	507	0	0	
5	0	0	0	0	513	509	0	0	
6	0	0	0	0	511	507	0	0	
7	0	0	0	0	513	507	0	0	
8	0	0	0	0	519	505	0	0	
9	0	0	0	0	515	505	0	0	
10	0	0	0	0	513	505	0	0	
11	0	0	0	0	515	507	0	0	
12	0	0	0	0	512	507	0	0	
13	0	0	0	0	512	509	0	0	
14	0	0	0	0	508	511	0	0	
15	0	0	0	0	509	511	0	0	
0	0	0	0	0	508	509	0	0	
1	0	0	0	0	507	511	0	0	
2	0	0	0	0	507	510	0	0	
3	0	0	0	0	505	511	0	0	
4	0	0	0	0	503	512	0	0	
5	0	0	0	0	509	508	0	0	
6	0	0	0	0	514	508	0	0	
7	0	0	0	0	512	507	0	0	
8	0	0	0	0	512	505	0	0	
9	0	0	0	0	513	506	0	0	
10	0	0	0	0	514	507	0	0	
11	0	0	0	0	510	505	0	0	
12	0	0	0	0	513	508	0	0	
13	0	0	0	0	515	505	0	0	
14	0	0	0	0	515	507	0	0	
15	0	0	0	0	513	507	0	0	
0	0	0	0	0	511	509	0	0	
1	0	0	0	0	512	510	0	0	
2	0	0	0	0	511	509	0	0	
3	0	0	0	0	508	509	0	0	
4	0	0	0	0	508	510	0	0	
5	0	0	0	0	507	509	0	0	
6	0	0	0	0	505	512	0	0	
7	0	0	0	0	504	508	0	0	
8	0	0	0	0	507	510	0	0	
9	0	0	0	0	511	508	0	0	
10	0	0	0	0	510	508	0	0	
11	0	0	0	0	511	508	0	0	
12	0	0	0	0	512	508	0	0	
13	0	0	0	0	513	506	0	0	
14	0	0	0	0	514	503	0	0	
15	0	0	0	0	513	505	0	0	
0	0	0	0	0	514	508	0	0	
1	0	0	0	0	515	505	0	0	
2	0	0	0	0	515	506	0	0	
3	0	0	0	0	515	505	0	0	
4	0	0	0	0	514	507	0	0	
5	0	0	0	0	511	508	0	0	
6	0	0	0	0	511	511	0	0	
7	0	0	0	0	507	508	0	0	
8	0	0	0	0	507	511	0	0	
9	0	0	0	0	508	508	0	0	
10	0	0	0	0	507	509	0	0	
11	0	0	0	0	505	510	0	0	
12	0	0	0	0	507	512	0	0	
13	0	0	0	0	510	507	0	0	
14	0	0	0	0	511	507	0	0	
15	0	0	0	0	512	508	0	0	
0	0	0	0	0	513	506	0	0	
1	0	0	0	0	511	507	0	0	
2	0	0	0	0	512	507	0	0	
3	0	0	0	0	515	505	0	0	
4	0	0	0	0	515	505	0	0	
5	0	0	0	0	515	506	0	0	
6	0	0	0	0	516	506	0	0	
7	0	0	0	0	514	506	0	0	
8	0	0	0	0	514	510	0	0	
9	0	0	0	0	510	508	0	0	
10	0	0	0	0	508	509	0	0	
11	0	0	0	0	508	511	0	0	
12	0	0	0	0	508	510	0	0	
13	0	0	0	0	508	512	0	0	
14	0	0	0	0	506	511	0	0	
15	0	0	0	0	503	509	0	0	
0	0	0	0	0	504	509	0	0	
1	0	0	0	0	512	507	0	0	
2	0	0	0	0	513	507	0	0	
3	0	0	0	0	510	508	0	0	
4	0	0	0	0	511	507	0	0	
5	0	0	0	0	515	507	0	0	
6	0	0	0	0	515	505	0	0	
7	0	0	0	0	516	506	0	0	
8	0	0	0	0	515	506	0	0	
9	0	0	0	0	515	506	0	0	
10	0	0	0	0	514	507	0	0	
11	0	0	0	0	515	508	0	0	
12	0	0	0	0	513	507	0	0	
13	0	0	0	0	512	509	0	0	
14	0	0	0	0	509	510	0	0	
15	0	0	0	0	508	510	0	0	
0	0	0	0	0	507	509	0	0	
1	0	0	0	0	508	511	0	0	
2	0	0	0	0	505	507	0	0	
3	0	0	0	0	503	512	0	0	
4	0	0	0	0	505	510	0	0	
5	0	0	0	0	506	508	0	0	
6	0	0	0	0	510	508	0	0	
7	0	0	0	0	510	507	0	0	
8	0	0	0	0	510	504	0	0	
9	0	0	0	0	510	506	0	0	
10	0	0	0	0	513	507	0	0	
11	0	0	0	0	515	508	0	0	
12	0	0	0	0	515	506	0	0	
13	0	0	0	0	514	505	0	0	
14	0	0	0	0	518	508	0	0	
15	0	0	0	0	512	506	0	0	
0	0	0	0	0	510	508	0	0	
1	0	0	0	0	514	507	0	0	
2	0	0	0	0	508	508	0	0	
3	0	0	0	0	506	508	0	0	
4	0	0	0	0	505	511	0	0	
5	0	0	0	0	506	512	0	0	
6	0	0	0	0	507	511	0	0	
7	0	0	0	0	507	509	0	0	
8	0	0	0	0	508	510	0	0	
9	0	0	0	0	513	508	0	0	
10	0	0	0	0	511	507	0	0	
11	0	0	0	0	510	508	0	0	
12	0	0	0	0	514	507	0	0	
13	0	0	0	0	514	507	0	0	
14	0	0	0	0	515	505	0	0	
15	0	0	0	0	513	504	0	0	
0	0	0	0	0	513	506	0	0	
1	0	0	0	0	515	505	0	0	
2	0	0	0	0	516	507	0	0	
3	0	0	0	0	515	505	0	0	
4	0	0	0	0	515	510	0	0	
5	0	0	0	0	512	510	0	0	
6	0	0	0	0	509	509	0	0	
7	0	0	0	0	505	511	0	0	
8	0	0	0	0	502	510	0	0	
9	0	0	0	0	503	511	0	0	
10	0	0	0	0	509	507	0	0	
11	0	0	0	0	511	508	0	0	
12	0	0	0	0	508	509	0	0	
13	0	0	0	0	511	507	0	0	
14	0	0	0	0	509	509	0	0	
15	0	0	0	0	510	505	0	0	
0	0	0	0	0	509	507	0	0	
1	0	0	0	0	513	508	0	0	
2	0	0	0	0	512	507	0	0	
3	0	0	0	0	516	507	0	0	
4	0	0	0	0	516	507	0	0	
5	0	0	0	0	516	506	0	0	
6	0	0	0	0	516	507	0	0	
7	0	0	0	0	513	507	0	0	
8	0	0	0	0	513	508	0	0	
9	0	0	0	0	510	509	0	0	
10	0	0	0	0	508	508	0	0	
11	0	0	0	0	506	511	0	0	
12	0	0	0	0	502	511	0	0	
13	0	0	0	0	503	512	0	0	
14	0	0	0	0	505	509	0	0	
15	0	0	0	0	506	511	0	0	
0	0	0	0	0	507	508	0	0	
1	0	0	0	0	508	508	0	0	
2	0	0	0	0	510	510	0	0	
3	0	0	0	0	511	507	0	0	
4	0	0	0	0	517	506	0	0	
5	0	0	0	0	516	506	0	0	
6	0	0	0	0	515	507	0	0	
7	0	0	0	0	513	507	0	0	
8	0	0	0	0	515	507	0	0	
9	0	0	0	0	512	505	0	0	
10	0	0	0	0	515	506	0	0	
11	0	0	0	0	515	507	0	0	
12	0	0	0	0	513	507	0	0	
13	0	0	0	0	512	510	0	0	
14	0	0	0	0	512	508	0	0	
15	0	0	0	0	508	510	0	0	
0	0	0	0	0	505	508	0	0	
1	0	0	0	0	504	512	0	0	
2	0	0	0	0	505	510	0	0	
3	0	0	0	0	507	511	0	0	
4	0	0	0	0	508	509	0	0	
5	0	0	0	0	507	509	0	0	
6	0	0	0	0	512	505	0	0	
7	0	0	0	0	510	507	0	0	
8	0	0	0	0	511	508	0	0	
9	0	0	0	0	511	505	0	0	
10	0	0	0	0	514	505	0	0	
11	0	0	0	0	515	507	0	0	
12	0	0	0	0	518	507	0	0	
13	0	0	0	0	515	504	0	0	
14	0	0	0	0	514	507	0	0	
15	0	0	0	0	516	508	0	0	
0	0	0	0	0	513	509	0	0	
1	0	0	0	0	509	508	0	0	
2	0	0	0	0	508	509	0	0	
3	0	0	0	0	510	510	0	0	
4	0	0	0	0	508	510	0	0	
5	0	0	0	0	508	511	0	0	
6	0	0	0	0	510	510	0	0	
7	0	0	0	0	505	510	0	0	
8	0	0	0	0	505	508	0	0	
9	0	0	0	0	507	507	0	0	
10	0	0	0	0	510	508	0	0	
11	0	0	0	0	513	508	0	0	
12	0	0	0	0	514	509	0	0	
13	0	0	0	0	517	507	0	0	
14	0	0	0	0	513	508	0	0	
15	0	0	0	0	512	506	0	0	
0	0	0	0	0	515	506	0	0	
1	0	0	0	0	519	502	0	0	
2	0	0	0	0	521	506	0	0	
3	0	0	0	0	518	507	0	0	
4	0	0	0	0	513	508	0	0	
5	0	0	0	0	514	508	0	0	
6	0	0	0	0	511	509	0	0	
7	0	0	0	0	508	512	0	0	
8	0	0	0	0	508	511	0	0	
9	0	0	0	0	505	510	0	0	
10	0	0	0	0	506	509	0	0	
11	0	0	0	0	504	511	0	0	
12	0	0	0	0	506	509	0	0	
13	0	0	0	0	510	506	0	0	
14	0	0	0	0	510	509	0	0	
15	0	0	0	0	510	510	0	0	
0	0	0	0	0	509	507	0	0	
1	0	0	0	0	510	504	0	0	
2	0	0	0	0	513	506	0	0	
3	0	0	0	0	514	508	0	0	
4	0	0	0	0	514	506	0	0	
5	0	0	0	0	517	505	0	0	
6	0	0	0	0	517	506	0	0	
7	0	0	0	0	512	507	0	0	
8	0	0	0	0	513	508	0	0	
9	0	0	0	0	513	507	0	0	
10	0	0	0	0	507	510	0	0	
11	0	0	0	0	506	509	0	0	
12	0	0	0	0	506	508	0	0	
13	0	0	0	0	509	509	0	0	
14	0	0	0	0	507	510	0	0	
15	0	0	0	0	503	509	0	0	
0	0	0	0	0	505	511	0	0	
1	0	0	0	0	506	511	0	0	
2	0	0	0	0	510	508	0	0	
3	0	0	0	0	509	508	0	0	
4	0	0	0	0	511	506	0	0	
5	0	0	0	0	513	507	0	0	
6	0	0	0	0	515	508	0	0	
7	0	0	0	0	516	507	0	0	
8	0	0	0	0	516	506	0	0	
9	0	0	0	0	513	507	0	0	
10	0	0	0	0	516	504	0	0	
11	0	0	0	0	516	505	0	0	
12	0	0	0	0	513	507	0	0	
13	0	0	0	0	512	508	0	0	
14	0	0	0	0	507	510	0	0	
15	0	0	0	0	508	510	0	0	
0	0	0	0	0	509	510	0	0	
1	0	0	0	0	505	510	0	0	
2	0	0	0	0	507	510	0	0	
3	0	0	0	0	504	510	0	0	
4	0	0	0	0	507	511	0	0	
5	0	0	0	0	509	510	0	0	
6	0	0	0	0	508	508	0	0	
7	0	0	0	0	510	506	0	0	
8	0	0	0	0	510	506	0	0	
9	0	0	0	0	513	507	0	0	
10	0	0	0	0	515	505	0	0	
11	0	0	0	0	512	505	0	0	
12	0	0	0	0	511	508	0	0	
13	0	0	0	0	517	507	0	0	
14	0	0	0	0	519	503	0	0	
15	0	0	0	0	516	508	0	0	
0	0	0	0	0	514	511	0	0	
1	0	0	0	0	512	507	0	0	
2	0	0	0	0	510	510	0	0	
3	0	0	0	0	507	510	0	0	
4	0	0	0	0	506	510	0	0	
5	0	0	0	0	509	511	0	0	
6	0	0	0	0	508	511	0	0	
7	0	0	0	0	505	511	0	0	
8	0	0	0	0	506	509	0	0	
9	0	0	0	0	509	508	0	0	
10	0	0	0	0	511	508	0	0	
11	0	0	0	0	511	506	0	0	
12	0	0	0	0	512	505	0	0	
13	0	0	0	0	512	506	0	0	
14	0	0	0	0	515	506	0	0	
15	0	0	0	0	516	505	0	0	
0	0	0	0	0	514	506	0	0	
1	0	0	0	0	517	507	0	0	
2	0	0	0	0	517	505	0	0	
3	0	0	0	0	514	508	0	0	
4	0	0	0	0	514	507	0	0	
5	0	0	0	0	511	509	0	0	
6	0	0	0	0	508	510	0	0	
7	0	0	0	0	509	510	0	0	
8	0	0	0	0	508	508	0	0	
9	0	0	0	0	507	510	0	0	
10	0	0	0	0	505	512	0	0	
11	0	0	0	0	507	510	0	0	
12	0	0	0	0	508	510	0	0	
13	0	0	0	0	509	507	0	0	
14	0	0	0	0	508	508	0	0	
15	0	0	0	0	510	507	0	0	
0	0	0	0	0	509	506	0	0	
1	0	0	0	0	513	506	0	0	
2	0	0	0	0	513	508	0	0	
3	0	0	0	0	515	507	0	0	
4	0	0	0	0	517	505	0	0	
5	0	0	0	0	516	504	0	0	
6	0	0	0	0	519	506	0	0	
7	0	0	0	0	516	507	0	0	
8	0	0	0	0	513	509	0	0	
9	0	0	0	0	515	508	0	0	
10	0	0	0	0	512	510	0	0	
11	0	0	0	0	505	512	0	0	
12	0	0	0	0	505	511	0	0	
13	0	0	0	0	509	511	0	0	
14	0	0	0	0	507	510	0	0	
15	0	0	0	0	505	510	0	0	
0	0	0	0	0	507	509	0	0	
1	0	0	0	0	508	510	0	0	
2	0	0	0	0	507	507	0	0	
3	0	0	0	0	509	508	0	0	
4	0	0	0	0	510	507	0	0	
5	0	0	0	0	514	505	0	0	
6	0	0	0	0	512	504	0	0	
7	0	0	0	0	515	506	0	0	
8	0	0	0	0	514	508	0	0	
9	0	0	0	0	515	505	0	0	
10	0	0	0	0	516	507	0	0	
11	0	0	0	0	515	508	0	0	
12	0	0	0	0	512	508	0	0	
13	0	0	0	0	509	508	0	0	
14	0	0	0	0	508	508	0	0	
15	0	0	0	0	508	510	0	0	
0	0	0	0	0	509	511	0	0	
1	0	0	0	0	508	510	0	0	
2	0	0	0	0	508	511	0	0	
3	0	0	0	0	507	510	0	0	
4	0	0	0	0	504	509	0	0	
5	0	0	0	0	507	507	0	0	
6	0	0	0	0	507	507	0	0	
7	0	0	0	0	511	508	0	0	
8	0	0	0	0	511	505	0	0	
9	0	0	0	0	511	505	0	0	
10	0	0	0	0	514	506	0	0	
11	0	0	0	0	515	508	0	0	
12	0	0	0	0	516	507	0	0	
13	0	0	0	0	517	505	0	0	
14	0	0	0	0	518	505	0	0	
15	0	0	0	0	519	505	0	0	
0	0	0	0	0	515	508	0	0	
1	0	0	0	0	514	509	0	0	
2	0	0	0	0	511	509	0	0	
3	0	0	0	0	509	510	0	0	
4	0	0	0	0	508	511	0	0	
5	0	0	0	0	507	510	0	0	
6	0	0	0	0	508	511	0	0	
7	0	0	0	0	507	508	0	0	
8	0	0	0	0	507	509	0	0	
9	0	0	0	0	507	509	0	0	
10	0	0	0	0	510	508	0	0	
11	0	0	0	0	511	507	0	0	
12	0	0	0	0	511	508	0	0	
13	0	0	0	0	513	508	0	0	
14	0	0	0	0	513	504	0	0	
15	0	0	0	0	515	505	0	0	
0	0	0	0	0	515	508	0	0	
1	0	0	0	0	512	504	0	0	
2	0	0	0	0	515	506	0	0	
3	0	0	0	0	514	506	0	0	
4	0	0	0	0	512	508	0	0	
5	0	0	0	0	512	510	0	0	
6	0	0	0	0	507	509	0	0	
7	0	0	0	0	509	509	0	0	
8	0	0	0	0	508	510	0	0	
9	0	0	0	0	503	508	0	0	
10	0	0	0	0	508	510	0	0	
11	0	0	0	0	504	510	0	0	
12	0	0	0	0	505	511	0	0	
13	0	0	0	0	508	510	0	0	
14	0	0	0	0	510	508	0	0	
15	0	0	0	0	510	506	0	0	
0	0	0	0	0	511	508	0	0	
1	0	0	0	0	513	507	0	0	
2	0	0	0	0	515	504	0	0	
3	0	0	0	0	514	505	0	0	
4	0	0	0	0	517	505	0	0	
5	0	0	0	0	514	505	0	0	
6	0	0	0	0	518	508	0	0	
7	0	0	0	0	514	506	0	0	
8	0	0	0	0	513	510	0	0	
9	0	0	0	0	510	512	0	0	
10	0	0	0	0	512	509	0	0	
11	0	0	0	0	508	509	0	0	
12	0	0	0	0	508	509	0	0	
13	0	0	0	0	507	510	0	0	
14	0	0	0	0	507	508	0	0	
15	0	0	0	0	508	508	0	0	
0	0	0	0	0	507	508	0	0	
1	0	0	0	0	507	510	0	0	
2	0	0	0	0	509	509	0	0	
3	0	0	0	0	511	510	0	0	
4	0	0	0	0	512	505	0	0	
5	0	0	0	0	512	508	0	0	
6	0	0	0	0	516	503	0	0	
7	0	0	0	0	515	506	0	0	
8	0	0	0	0	511	507	0	0	
9	0	0	0	0	512	505	0	0	
10	0	0	0	0	515	505	0	0	
11	0	0	0	0	515	507	0	0	
12	0	0	0	0	513	509	0	0	
13	0	0	0	0	510	509	0	0	
14	0	0	0	0	510	509	0	0	
15	0	0	0	0	508	511	0	0	
0	0	0	0	0	505	511	0	0	
1	0	0	0	0	508	510	0	0	
2	0	0	0	0	508	510	0	0	
3	0	0	0	0	504	510	0	0	
4	0	0	0	0	508	511	0	0	
5	0	0	0	0	508	509	0	0	
6	0	0	0	0	511	508	0	0	
7	0	0	0	0	512	507	0	0	
8	0	0	0	0	512	509	0	0	
9	0	0	0	0	513	507	0	0	
10	0	0	0	0	512	506	0	0	
11	0	0	0	0	515	506	0	0	
12	0	0	0	0	515	508	0	0	
13	0	0	0	0	515	504	0	0	
14	0	0	0	0	517	507	0	0	
15	0	0	0	0	512	505	0	0	
0	0	0	0	0	513	508	0	0	
1	0	0	0	0	510	509	0	0	
2	0	0	0	0	511	508	0	0	
3	0	0	0	0	512	509	0	0	
4	0	0	0	0	512	511	0	0	
5	0	0	0	0	509	510	0	0	
6	0	0	0	0	506	510	0	0	
7	0	0	0	0	506	510	0	0	
8	0	0	0	0	508	509	0	0	
9	0	0	0	0	508	507	0	0	
10	0	0	0	0	512	509	0	0	
11	0	0	0	0	512	509	0	0	
12	0	0	0	0	509	503	0	0	
13	0	0	0	0	510	504	0	0	
14	0	0	0	0	516	505	0	0	
15	0	0	0	0	515	506	0	0	
0	0	0	0	0	513	508	0	0	
1	0	0	0	0	514	506	0	0	
2	0	0	0	0	514	508	0	0	
3	0	0	0	0	516	506	0	0	
4	0	0	0	0	513	508	0	0	
5	0	0	0	0	511	510	0	0	
6	0	0	0	0	511	510	0	0	
7	0	0	0	0	510	509	0	0	
8	0	0	0	0	509	509	0	0	
9	0	0	0	0	507	510	0	0	
10	0	0	0	0	507	508	0	0	
11	0	0	0	0	506	511	0	0	
12	0	0	0	0	505	511	0	0	
13	0	0	0	0	507	506	0	0	
14	0	0	0	0	509	506	0	0	
15	0	0	0	0	509	507	0	0	
0	0	0	0	0	511	508	0	0	
1	0	0	0	0	512	508	0	0	
2	0	0	0	0	513	507	0	0	
3	0	0	0	0	511	504	0	0	
4	0	0	0	0	513	505	0	0	
5	0	0	0	0	515	506	0	0	
6	0	0	0	0	517	507	0	0	
7	0	0	0	0	519	507	0	0	
8	0	0	0	0	515	509	0	0	
9	0	0	0	0	512	508	0	0	
10	0	0	0	0	510	510	0	0	
11	0	0	0	0	508	509	0	0	
12	0	0	0	0	504	512	0	0	
13	0	0	0	0	504	512	0	0	
14	0	0	0	0	508	510	0	0	
15	0	0	0	0	510	509	0	0	
0	0	0	0	0	512	509	0	0	
1	0	0	0	0	511	509	0	0	
2	0	0	0	0	508	507	0	0	
3	0	0	0	0	509	507	0	0	
4	0	0	0	0	509	506	0	0	
5	0	0	0	0	511	505	0	0	
6	0	0	0	0	512	504	0	0	
7	0	0	0	0	516	506	0	0	
8	0	0	0	0	516	506	0	0	
9	0	0	0	0	518	507	0	0	
10	0	0	0	0	518	507	0	0	
11	0	0	0	0	516	507	0	0	
12	0	0	0	0	512	508	0	0	
13	0	0	0	0	511	508	0	0	
14	0	0	0	0	511	511	0	0	
15	0	0	0	0	507	511	0	0	
0	0	0	0	0	508	510	0	0	
1	0	0	0	0	507	510	0	0	
2	0	0	0	0	505	509	0	0	
3	0	0	0	0	504	508	0	0	
4	0	0	0	0	503	508	0	0	
5	0	0	0	0	504	509	0	0	
6	0	0	0	0	507	509	0	0	
7	0	0	0	0	511	507	0	0	
8	0	0	0	0	513	506	0	0	
9	0	0	0	0	514	507	0	0	
10	0	0	0	0	513	506	0	0	
11	0	0	0	0	514	506	0	0	
12	0	0	0	0	516	507	0	0	
13	0	0	0	0	519	506	0	0	
14	0	0	0	0	515	504	0	0	
15	0	0	0	0	513	506	0	0	
0	0	0	0	0	513	507	0	0	
1	0	0	0	0	512	509	0	0	
2	0	0	0	0	513	509	0	0	
3	0	0	0	0	510	509	0	0	
4	0	0	0	0	504	512	0	0	
5	0	0	0	0	505	510	0	0	
6	0	0	0	0	505	509	0	0	
7	0	0	0	0	506	510	0	0	
8	0	0	0	0	505	511	0	0	
9	0	0	0	0	512	509	0	0	
10	0	0	0	0	509	509	0	0	
11	0	0	0	0	512	506	0	0	
12	0	0	0	0	514	504	0	0	
13	0	0	0	0	515	506	0	0	
14	0	0	0	0	518	504	0	0	
15	0	0	0	0	512	507	0	0	
0	0	0	0	0	512	507	0	0	
1	0	0	0	0	516	506	0	0	
2	0	0	0	0	516	506	0	0	
3	0	0	0	0	516	506	0	0	
4	0	0	0	0	513	509	0	0	
5	0	0	0	0	509	511	0	0	
6	0	0	0	0	510	510	0	0	
7	0	0	0	0	509	510	0	0	
8	0	0	0	0	508	510	0	0	
9	0	0	0	0	508	510	0	0	
10	0	0	0	0	511	509	0	0	
11	0	0	0	0	505	511	0	0	
12	0	0	0	0	504	511	0	0	
13	0	0	0	0	508	510	0	0	
14	0	0	0	0	512	508	0	0	
15	0	0	0	0	513	508	0	0	
0	0	0	0	0	512	506	0	0	
1	0	0	0	0	511	507	0	0	
2	0	0	0	0	510	507	0	0	
3	0	0	0	0	511	505	0	0	
4	0	0	0	0	514	507	0	0	
5	0	0	0	0	517	506	0	0	
6	0	0	0	0	518	506	0	0	
7	0	0	0	0	518	505	0	0	
8	0	0	0	0	511	505	0	0	
9	0	0	0	0	509	508	0	0	
10	0	0	0	0	509	509	0	0	
11	0	0	0	0	507	508	0	0	
12	0	0	0	0	506	510	0	0	
13	0	0	0	0	508	510	0	0	
14	0	0	0	0	508	511	0	0	
15	0	0	0	0	510	511	0	0	
0	0	0	0	0	508	510	0	0	
1	0	0	0	0	508	509	0	0	
2	0	0	0	0	508	508	0	0	
3	0	0	0	0	507	509	0	0	
4	0	0	0	0	507	508	0	0	
5	0	0	0	0	508	507	0	0	
6	0	0	0	0	511	506	0	0	
7	0	0	0	0	519	503	0	0	
8	0	0	0	0	517	506	0	0	
9	0	0	0	0	515	505	0	0	
10	0	0	0	0	513	508	0	0	
11	0	0	0	0	513	506	0	0	
12	0	0	0	0	514	509	0	0	
13	0	0	0	0	513	508	0	0	
14	0	0	0	0	511	509	0	0	
15	0	0	0	0	509	509	0	0	
0	0	0	0	0	508	511	0	0	
1	0	0	0	0	510	512	0	0	
2	0	0	0	0	506	508	0	0	
3	0	0	0	0	508	508	0	0	
4	0	0	0	0	505	512	0	0	
5	0	0	0	0	506	510	0	0	
6	0	0	0	0	508	508	0	0	
7	0	0	0	0	512	507	0	0	
8	0	0	0	0	513	509	0	0	
9	0	0	0	0	512	509	0	0	
10	0	0	0	0	514	507	0	0	
11	0	0	0	0	514	507	0	0	
12	0	0	0	0	515	505	0	0	
13	0	0	0	0	515	506	0	0	
14	0	0	0	0	517	505	0	0	
15	0	0	0	0	515	505	0	0	
0	0	0	0	0	514	508	0	0	
1	0	0	0	0	515	508	0	0	
2	0	0	0	0	512	510	0	0	
3	0	0	0	0	508	508	0	0	
4	0	0	0	0	508	510	0	0	
5	0	0	0	0	509	511	0	0	
6	0	0	0	0	507	510	0	0	
7	0	0	0	0	507	511	0	0	
8	0	0	0	0	504	509	0	0	
9	0	0	0	0	507	510	0	0	
10	0	0	0	0	509	507	0	0	
11	0	0	0	0	509	508	0	0	
12	0	0	0	0	511	508	0	0	
13	0	0	0	0	512	506	0	0	
14	0	0	0	0	512	506	0	0	
15	0	0	0	0	515	507	0	0	
0	0	0	0	0	516	505	0	0	
1	0	0	0	0	515	506	0	0	
2	0	0	0	0	515	507	0	0	
3	0	0	0	0	514	506	0	0	
4	0	0	0	0	511	507	0	0	
5	0	0	0	0	513	508	0	0	
6	0	0	0	0	510	511	0	0	
7	0	0	0	0	504	510	0	0	
8	0	0	0	0	506	510	0	0	
9	0	0	0	0	510	509	0	0	
10	0	0	0	0	507	510	0	0	
11	0	0	0	0	508	511	0	0	
12	0	0	0	0	507	510	0	0	
13	0	0	0	0	508	510	0	0	
14	0	0	0	0	510	508	0	0	
15	0	0	0	0	512	507	0	0	
0	0	0	0	0	511	506	0	0	
1	0	0	0	0	512	505	0	0	
2	0	0	0	0	511	504	0	0	
3	0	0	0	0	510	505	0	0	
4	0	0	0	0	513	508	0	0	
5	0	0	0	0	517	508	0	0	
6	0	0	0	0	514	504	0	0	
7	0	0	0	0	514	507	0	0	
8	0	0	0	0	513	508	0	0	
9	0	0	0	0	511	508	0	0	
10	0	0	0	0	510	510	0	0	
11	0	0	0	0	512	511	0	0	
12	0	0	0	0	511	511	0	0	
13	0	0	0	0	508	509	0	0	
14	0	0	0	0	506	509	0	0	
15	0	0	0	0	507	511	0	0	
0	0	0	0	0	502	508	0	0	
1	0	0	0	0	505	509	0	0	
2	0	0	0	0	511	506	0	0	
3	0	0	0	0	507	506	0	0	
4	0	0	0	0	511	507	0	0	
5	0	0	0	0	515	506	0	0	
6	0	0	0	0	518	508	0	0	
7	0	0	0	0	515	507	0	0	
8	0	0	0	0	513	507	0	0	
9	0	0	0	0	515	504	0	0	
10	0	0	0	0	514	504	0	0	
11	0	0	0	0	511	506	0	0	
12	0	0	0	0	515	508	0	0	
13	0	0	0	0	513	509	0	0	
14	0	0	0	0	511	510	0	0	
15	0	0	0	0	513	511	0	0	
0	0	0	0	0	513	511	0	0	
1	0	0	0	0	509	510	0	0	
2	0	0	0	0	504	509	0	0	
3	0	0	0	0	504	509	0	0	
4	0	0	0	0	506	511	0	0	
5	0	0	0	0	505	511	0	0	
6	0	0	0	0	508	506	0	0	
7	0	0	0	0	509	510	0	0	
8	0	0	0	0	507	507	0	0	
9	0	0	0	0	511	505	0	0	
10	0	0	0	0	518	508	0	0	
11	0	0	0	0	517	505	0	0	
12	0	0	0	0	513	506	0	0	
13	0	0	0	0	515	506	0	0	
14	0	0	0	0	518	505	0	0	
15	0	0	0	0	516	505	0	0	
0	0	0	0	0	515	508	0	0	
1	0	0	0	0	515	509	0	0	
2	0	0	0	0	510	508	0	0	
3	0	0	0	0	510	510	0	0	
4	0	0	0	0	509	511	0	0	
5	0	0	0	0	504	511	0	0	
6	0	0	0	0	508	512	0	0	
7	0	0	0	0	509	508	0	0	
8	0	0	0	0	507	511	0	0	
9	0	0	0	0	504	511	0	0	
10	0	0	0	0	505	508	0	0	
11	0	0	0	0	508	507	0	0	
12	0	0	0	0	509	507	0	0	
13	0	0	0	0	509	507	0	0	
14	0	0	0	0	512	508	0	0	
15	0	0	0	0	515	506	0	0	
0	0	0	0	0	517	506	0	0	
1	0	0	0	0	517	508	0	0	
2	0	0	0	0	520	507	0	0	
3	0	0	0	0	523	506	0	0	
4	0	0	0	0	518	508	0	0	
5	0	0	0	0	513	508	0	0	
6	0	0	0	0	509	508	0	0	
7	0	0	0	0	508	510	0	0	
8	0	0	0	0	507	510	0	0	
9	0	0	0	0	507	510	0	0	
10	0	0	0	0	506	509	0	0	
11	0	0	0	0	507	511	0	0	
12	0	0	0	0	506	510	0	0	
13	0	0	0	0	505	510	0	0	
14	0	0	0	0	508	509	0	0	
15	0	0	0	0	510	505	0	0	
0	0	0	0	0	511	508	0	0	
1	0	0	0	0	512	506	0	0	
2	0	0	0	0	511	505	0	0	
3	0	0	0	0	515	506	0	0	
4	0	0	0	0	514	506	0	0	
5	0	0	0	0	515	505	0	0	
6	0	0	0	0	515	504	0	0	
7	0	0	0	0	515	504	0	0	
8	0	0	0	0	514	509	0	0	
9	0	0	0	0	513	507	0	0	
10	0	0	0	0	513	508	0	0	
11	0	0	0	0	509	509	0	0	
12	0	0	0	0	508	512	0	0	
13	0	0	0	0	508	510	0	0	
14	0	0	0	0	510	512	0	0	
15	0	0	0	0	508	509	0	0	
0	0	0	0	0	506	509	0	0	
1	0	0	0	0	506	509	0	0	
2	0	0	0	0	509	509	0	0	
3	0	0	0	0	510	506	0	0	
4	0	0	0	0	510	508	0	0	
5	0	0	0	0	513	508	0	0	
6	0	0	0	0	511	506	0	0	
7	0	0	0	0	511	504	0	0	
8	0	0	0	0	512	506	0	0	
9	0	0	0	0	516	504	0	0	
10	0	0	0	0	517	506	0	0	
11	0	0	0	0	512	506	0	0	
12	0	0	0	0	511	508	0	0	
13	0	0	0	0	513	507	0	0	
14	0	0	0	0	515	507	0	0	
15	0	0	0	0	511	510	0	0	
0	0	0	0	0	507	511	0	0	
1	0	0	0	0	506	511	0	0	
2	0	0	0	0	510	509	0	0	
3	0	0	0	0	510	508	0	0	
4	0	0	0	0	508	509	0	0	
5	0	0	0	0	507	510	0	0	
6	0	0	0	0	508	511	0	0	
7	0	0	0	0	507	509	0	0	
8	0	0	0	0	506	506	0	0	
9	0	0	0	0	510	506	0	0	
10	0	0	0	0	513	504	0	0	
11	0	0	0	0	514	506	0	0	
12	0	0	0	0	512	505	0	0	
13	0	0	0	0	514	505	0	0	
14	0	0	0	0	516	507	0	0	
15	0	0	0	0	518	507	0	0	
0	0	0	0	0	515	507	0	0	
1	0	0	0	0	512	511	0	0	
2	0	0	0	0	512	510	0	0	
3	0	0	0	0	508	510	0	0	
4	0	0	0	0	506	511	0	0	
5	0	0	0	0	505	510	0	0	
6	0	0	0	0	506	509	0	0	
7	0	0	0	0	506	509	0	0	
8	0	0	0	0	508	511	0	0	
9	0	0	0	0	507	510	0	0	
10	0	0	0	0	505	509	0	0	
11	0	0	0	0	506	508	0	0	
12	0	0	0	0	511	506	0	0	
13	0	0	0	0	519	504	0	0	
14	0	0	0	0	515	505	0	0	
15	0	0	0	0	516	506	0	0	
0	0	0	0	0	514	508	0	0	
1	0	0	0	0	513	505	0	0	
2	0	0	0	0	516	506	0	0	
3	0	0	0	0	515	508	0	0	
4	0	0	0	0	515	508	0	0	
5	0	0	0	0	513	508	0	0	
6	0	0	0	0	512	508	0	0	
7	0	0	0	0	515	508	0	0	
8	0	0	0	0	508	510	0	0	
9	0	0	0	0	507	511	0	0	
10	0	0	0	0	508	509	0	0	
11	0	0	0	0	507	509	0	0	
12	0	0	0	0	505	511	0	0	
13	0	0	0	0	505	510	0	0	
14	0	0	0	0	506	510	0	0	
15	0	0	0	0	512	508	0	0	
0	0	0	0	0	512	506	0	0	
1	0	0	0	0	514	506	0	0	
2	0	0	0	0	513	508	0	0	
3	0	0	0	0	515	503	0	0	
4	0	0	0	0	514	507	0	0	
5	0	0	0	0	514	507	0	0	
6	0	0	0	0	517	504	0	0	
7	0	0	0	0	516	504	0	0	
8	0	0	0	0	518	507	0	0	
9	0	0	0	0	514	508	0	0	
10	0	0	0	0	513	508	0	0	
11	0	0	0	0	510	509	0	0	
12	0	0	0	0	504	508	0	0	
13	0	0	0	0	502	511	0	0	
14	0	0	0	0	502	510	0	0	
15	0	0	0	0	503	511	0	0	
0	0	0	0	0	505	509	0	0	
1	0	0	0	0	511	507	0	0	
2	0	0	0	0	511	510	0	0	
3	0	0	0	0	515	510	0	0	
4	0	0	0	0	512	507	0	0	
5	0	0	0	0	514	507	0	0	
6	0	0	0	0	517	507	0	0	
7	0	0	0	0	512	505	0	0	
8	0	0	0	0	508	507	0	0	
9	0	0	0	0	511	508	0	0	
10	0	0	0	0	519	505	0	0	
11	0	0	0	0	520	504	0	0	
12	0	0	0	0	515	507	0	0	
13	0	0	0	0	510	510	0	0	
14	0	0	0	0	511	508	0	0	
15	0	0	0	0	516	511	0	0	
0	0	0	0	0	520	511	0	0	
1	0	0	0	0	513	510	0	0	
2	0	0	0	0	507	509	0	0	
3	0	0	0	0	506	509	0	0	
4	0	0	0	0	504	508	0	0	
5	0	0	0	0	504	510	0	0	
6	0	0	0	0	502	510	0	0	
7	0	0	0	0	507	509	0	0	
8	0	0	0	0	510	509	0	0	
9	0	0	0	0	511	505	0	0	
10	0	0	0	0	507	505	0	0	
11	0	0	0	0	508	507	0	0	
12	0	0	0	0	513	508	0	0	
13	0	0	0	0	515	507	0	0	
14	0	0	0	0	518	504	0	0	
15	0	0	0	0	522	504	0	0	
0	0	0	0	0	518	507	0	0	
1	0	0	0	0	515	509	0	0	
2	0	0	0	0	513	506	0	0	
3	0	0	0	0	505	509	0	0	
4	0	0	0	0	505	513	0	0	
5	0	0	0	0	508	510	0	0	
6	0	0	0	0	507	508	0	0	
7	0	0	0	0	507	510	0	0	
8	0	0	0	0	505	508	0	0	
9	0	0	0	0	506	511	0	0	
10	0	0	0	0	507	511	0	0	
11	0	0	0	0	509	510	0	0	
12	0	0	0	0	510	508	0	0	
13	0	0	0	0	510	507	0	0	
14	0	0	0	0	510	505	0	0	
15	0	0	0	0	512	504	0	0	
0	0	0	0	0	514	506	0	0	
1	0	0	0	0	515	506	0	0	
2	0	0	0	0	518	504	0	0	
3	0	0	0	0	513	506	0	0	
4	0	0	0	0	508	507	0	0	
5	0	0	0	0	507	508	0	0	
6	0	0	0	0	508	510	0	0	
7	0	0	0	0	509	511	0	0	
8	0	0	0	0	508	511	0	0	
9	0	0	0	0	508	509	0	0	
10	0	0	0	0	510	511	0	0	
11	0	0	0	0	512	508	0	0	
12	0	0	0	0	506	511	0	0	
13	0	0	0	0	507	509	0	0	
14	0	0	0	0	505	510	0	0	
15	0	0	0	0	506	508	0	0	
0	0	0	0	0	517	506	0	0	
1	0	0	0	0	521	508	0	0	
2	0	0	0	0	524	504	0	0	
3	0	0	0	0	521	505	0	0	
4	0	0	0	0	513	507	0	0	
5	0	0	0	0	505	509	0	0	
6	0	0	0	0	510	504	0	0	
7	0	0	0	0	516	505	0	0	
8	0	0	0	0	508	506	0	0	
9	0	0	0	0	508	507	0	0	
10	0	0	0	0	513	510	0	0	
11	0	0	0	0	511	509	0	0	
12	0	0	0	0	508	512	0	0	
13	0	0	0	0	504	508	0	0	
14	0	0	0	0	497	511	0	0	
15	0	0	0	0	499	510	0	0	
0	0	0	0	0	508	508	0	0	
1	0	0	0	0	515	510	0	0	
2	0	0	0	0	521	508	0	0	
3	0	0	0	0	530	506	0	0	
4	0	0	0	0	523	508	0	0	
5	0	0	0	0	488	511	0	0	
6	0	0	0	0	499	509	0	0	
7	0	0	0	0	511	507	0	0	
8	0	0	0	0	521	506	0	0	
9	0	0	0	0	519	505	0	0	
10	0	0	0	0	508	503	0	0	
11	0	0	0	0	505	504	0	0	
12	0	0	0	0	501	510	0	0	
13	0	0	0	0	510	508	0	0	
14	0	0	0	0	516	507	0	0	
15	0	0	0	0	534	508	0	0	
0	0	0	0	0	549	509	0	0	
1	0	0	0	0	539	511	0	0	
2	0	0	0	0	514	511	0	0	
3	0	0	0	0	508	509	0	0	
4	0	0	0	0	497	508	0	0	
5	0	0	0	0	482	510	0	0	
6	0	0	0	0	455	510	0	0	
7	0	0	0	0	455	510	0	0	
8	0	0	0	0	502	508	0	0	
9	0	0	0	0	524	507	0	0	
10	0	0	0	0	514	506	0	0	
11	0	0	0	0	500	506	0	0	
12	0	0	0	0	504	506	0	0	
13	0	0	0	0	527	504	0	0	
14	0	0	0	0	524	507	0	0	
15	0	0	0	0	520	504	0	0	
0	0	0	0	0	509	504	0	0	
1	0	0	0	0	522	510	0	0	
2	0	0	0	0	524	511	0	0	
3	0	0	0	0	522	510	0	0	
4	0	0	0	0	524	510	0	0	
5	0	0	0	0	527	509	0	0	
6	0	0	0	0	530	509	0	0	
7	0	0	0	0	524	509	0	0	
8	0	0	0	0	521	512	0	0	
9	0	0	0	0	515	510	0	0	
10	0	0	0	0	497	508	0	0	
11	0	0	0	0	493	509	0	0	
12	0	0	0	0	508	507	0	0	
13	0	0	0	0	514	504	0	0	
14	0	0	0	0	513	505	0	0	
15	0	0	0	0	508	506	0	0	
0	0	0	0	0	509	508	0	0	
1	0	0	0	0	502	505	0	0	
2	0	0	0	0	510	505	0	0	
3	0	0	0	0	508	504	0	0	
4	0	0	0	0	508	508	0	0	
5	0	0	0	0	511	509	0	0	
6	0	0	0	0	526	508	0	0	
7	0	0	0	0	514	510	0	0	
8	0	0	0	0	517	511	0	0	
9	0	0	0	0	519	512	0	0	
10	0	0	0	0	514	509	0	0	
11	0	0	0	0	515	510	0	0	
12	0	0	0	0	505	509	0	0	
13	0	0	0	0	508	511	0	0	
14	0	0	0	0	507	509	0	0	
15	0	0	0	0	507	508	0	0	
0	0	0	0	0	495	506	0	0	
1	0	0	0	0	502	504	0	0	
2	0	0	0	0	509	507	0	0	
3	0	0	0	0	514	505	0	0	
4	0	0	0	0	524	505	0	0	
5	0	0	0	0	528	504	0	0	
6	0	0	0	0	516	505	0	0	
7	0	0	0	0	510	507	0	0	
8	0	0	0	0	504	509	0	0	
9	0	0	0	0	504	510	0	0	
10	0	0	0	0	509	508	0	0	
11	0	0	0	0	508	506	0	0	
12	0	0	0	0	508	509	0	0	
13	0	0	0	0	515	510	0	0	
14	0	0	0	0	515	509	0	0	
15	0	0	0	0	523	511	0	0	
0	0	0	0	0	518	509	0	0	
1	0	0	0	0	518	507	0	0	
2	0	0	0	0	505	509	0	0	
3	0	0	0	0	504	509	0	0	
4	0	0	0	0	488	507	0	0	
5	0	0	0	0	495	506	0	0	
6	0	0	0	0	523	508	0	0	
7	0	0	0	0	523	508	0	0	
8	0	0	0	0	521	507	0	0	
9	0	0	0	0	511	507	0	0	
10	0	0	0	0	518	505	0	0	
11	0	0	0	0	521	504	0	0	
12	0	0	0	0	520	506	0	0	
13	0	0	0	0	505	507	0	0	
14	0	0	0	0	496	506	0	0	
15	0	0	0	0	489	508	0	0	
0	0	0	0	0	513	512	0	0	
1	0	0	0	0	518	513	0	0	
2	0	0	0	0	510	514	0	0	
3	0	0	0	0	512	511	0	0	
4	0	0	0	0	512	512	0	0	
5	0	0	0	0	510	508	0	0	
6	0	0	0	0	513	508	0	0	
7	0	0	0	0	514	507	0	0	
8	0	0	0	0	505	504	0	0	
9	0	0	0	0	497	505	0	0	
10	0	0	0	0	496	508	0	0	
11	0	0	0	0	512	508	0	0	
12	0	0	0	0	514	505	0	0	
13	0	0	0	0	513	504	0	0	
14	0	0	0	0	511	506	0	0	
15	0	0	0	0	516	506	0	0	
0	0	0	0	0	525	505	0	0	
1	0	0	0	0	522	509	0	0	
2	0	0	0	0	520	508	0	0	
3	0	0	0	0	509	509	0	0	
4	0	0	0	0	508	509	0	0	
5	0	0	0	0	514	509	0	0	
6	0	0	0	0	518	510	0	0	
7	0	0	0	0	514	510	0	0	
8	0	0	0	0	508	510	0	0	
9	0	0	0	0	505	510	0	0	
10	0	0	0	0	496	510	0	0	
11	0	0	0	0	499	507	0	0	
12	0	0	0	0	508	509	0	0	
13	0	0	0	0	510	505	0	0	
14	0	0	0	0	505	505	0	0	
15	0	0	0	0	507	507	0	0	
0	0	0	0	0	503	507	0	0	
1	0	0	0	0	506	507	0	0	
2	0	0	0	0	516	505	0	0	
3	0	0	0	0	524	503	0	0	
4	0	0	0	0	521	508	0	0	
5	0	0	0	0	520	508	0	0	
6	0	0	0	0	523	511	0	0	
7	0	0	0	0	518	511	0	0	
8	0	0	0	0	507	511	0	0	
9	0	0	0	0	495	509	0	0	
10	0	0	0	0	501	511	0	0	
11	0	0	0	0	506	511	0	0	
12	0	0	0	0	507	510	0	0	
13	0	0	0	0	508	511	0	0	
14	0	0	0	0	505	508	0	0	
15	0	0	0	0	498	508	0	0	
0	0	0	0	0	505	508	0	0	
1	0	0	0	0	510	507	0	0	
2	0	0	0	0	512	506	0	0	
3	0	0	0	0	513	509	0	0	
4	0	0	0	0	519	506	0	0	
5	0	0	0	0	518	505	0	0	
6	0	0	0	0	515	506	0	0	
7	0	0	0	0	516	505	0	0	
8	0	0	0	0	516	505	0	0	
9	0	0	0	0	510	507	0	0	
10	0	0	0	0	509	511	0	0	
11	0	0	0	0	507	511	0	0	
12	0	0	0	0	504	510	0	0	
13	0	0	0	0	505	509	0	0	
14	0	0	0	0	505	510	0	0	
15	0	0	0	0	511	509	0	0	
0	0	0	0	0	507	511	0	0	
1	0	0	0	0	505	512	0	0	
2	0	0	0	0	509	508	0	0	
3	0	0	0	0	509	507	0	0	
4	0	0	0	0	511	506	0	0	
5	0	0	0	0	512	508	0	0	
6	0	0	0	0	519	507	0	0	
7	0	0	0	0	519	507	0	0	
8	0	0	0	0	514	507	0	0	
9	0	0	0	0	514	507	0	0	
10	0	0	0	0	516	504	0	0	
11	0	0	0	0	511	508	0	0	
12	0	0	0	0	508	509	0	0	
13	0	0	0	0	512	508	0	0	
14	0	0	0	0	506	508	0	0	
15	0	0	0	0	505	508	0	0	
0	0	0	0	0	513	509	0	0	
1	0	0	0	0	503	510	0	0	
2	0	0	0	0	502	511	0	0	
3	0	0	0	0	511	510	0	0	
4	0	0	0	0	509	511	0	0	
5	0	0	0	0	516	508	0	0	
6	0	0	0	0	528	507	0	0	
7	0	0	0	0	507	507	0	0	
8	0	0	0	0	496	507	0	0	
9	0	0	0	0	501	508	0	0	
10	0	0	0	0	514	507	0	0	
11	0	0	0	0	515	508	0	0	
12	0	0	0	0	509	506	0	0	
13	0	0	0	0	511	507	0	0	
14	0	0	0	0	516	506	0	0	
15	0	0	0	0	517	506	0	0	
0	0	0	0	0	522	506	0	0	
1	0	0	0	0	521	507	0	0	
2	0	0	0	0	506	509	0	0	
3	0	0	0	0	500	511	0	0	
4	0	0	0	0	502	510	0	0	
5	0	0	0	0	506	510	0	0	
6	0	0	0	0	508	508	0	0	
7	0	0	0	0	504	510	0	0	
8	0	0	0	0	508	510	0	0	
9	0	0	0	0	508	508	0	0	
10	0	0	0	0	508	508	0	0	
11	0	0	0	0	515	508	0	0	
12	0	0	0	0	520	506	0	0	
13	0	0	0	0	520	504	0	0	
14	0	0	0	0	516	507	0	0	
15	0	0	0	0	512	508	0	0	
0	0	0	0	0	497	508	0	0	
1	0	0	0	0	502	507	0	0	
2	0	0	0	0	520	507	0	0	
3	0	0	0	0	519	506	0	0	
4	0	0	0	0	523	507	0	0	
5	0	0	0	0	524	508	0	0	
6	0	0	0	0	521	508	0	0	
7	0	0	0	0	510	512	0	0	
8	0	0	0	0	500	510	0	0	
9	0	0	0	0	496	511	0	0	
10	0	0	0	0	506	509	0	0	
11	0	0	0	0	510	511	0	0	
12	0	0	0	0	508	507	0	0	
13	0	0	0	0	504	510	0	0	
14	0	0	0	0	507	509	0	0	
15	0	0	0	0	507	509	0	0	
0	0	0	0	0	504	508	0	0	
1	0	0	0	0	509	507	0	0	
2	0	0	0	0	510	505	0	0	
3	0	0	0	0	514	505	0	0	
4	0	0	0	0	519	506	0	0	
5	0	0	0	0	516	507	0	0	
6	0	0	0	0	510	505	0	0	
7	0	0	0	0	514	504	0	0	
8	0	0	0	0	521	507	0	0	
9	0	0	0	0	515	509	0	0	
10	0	0	0	0	509	509	0	0	
11	0	0	0	0	511	510	0	0	
12	0	0	0	0	510	509	0	0	
13	0	0	0	0	507	510	0	0	
14	0	0	0	0	508	508	0	0	
15	0	0	0	0	510	510	0	0	
0	0	0	0	0	506	509	0	0	
1	0	0	0	0	504	512	0	0	
2	0	0	0	0	513	509	0	0	
3	0	0	0	0	511	508	0	0	
4	0	0	0	0	513	507	0	0	
5	0	0	0	0	514	507	0	0	
6	0	0	0	0	516	505	0	0	
7	0	0	0	0	517	506	0	0	
8	0	0	0	0	503	507	0	0	
9	0	0	0	0	497	508	0	0	
10	0	0	0	0	509	508	0	0	
11	0	0	0	0	515	505	0	0	
12	0	0	0	0	513	505	0	0	
13	0	0	0	0	515	509	0	0	
14	0	0	0	0	514	507	0	0	
15	0	0	0	0	511	508	0	0	
0	0	0	0	0	511	510	0	0	
1	0	0	0	0	507	513	0	0	
2	0	0	0	0	510	508	0	0	
3	0	0	0	0	506	511	0	0	
4	0	0	0	0	508	509	0	0	
5	0	0	0	0	507	511	0	0	
6	0	0	0	0	512	508	0	0	
7	0	0	0	0	506	509	0	0	
8	0	0	0	0	503	508	0	0	
9	0	0	0	0	512	504	0	0	
10	0	0	0	0	512	506	0	0	
11	0	0	0	0	508	506	0	0	
12	0	0	0	0	517	505	0	0	
13	0	0	0	0	525	507	0	0	
14	0	0	0	0	524	505	0	0	
15	0	0	0	0	529	505	0	0	
0	0	0	0	0	526	507	0	0	
1	0	0	0	0	499	508	0	0	
2	0	0	0	0	516	506	0	0	
3	0	0	0	0	512	509	0	0	
4	0	0	0	0	499	511	0	0	
5	0	0	0	0	496	509	0	0	
6	0	0	0	0	502	510	0	0	
7	0	0	0	0	507	510	0	0	
8	0	0	0	0	505	510	0	0	
9	0	0	0	0	501	510	0	0	
10	0	0	0	0	502	510	0	0	
11	0	0	0	0	509	510	0	0	
12	0	0	0	0	522	504	0	0	
13	0	0	0	0	529	504	0	0	
14	0	0	0	0	522	507	0	0	
15	0	0	0	0	506	506	0	0	
0	0	0	0	0	505	506	0	0	
1	0	0	0	0	507	508	0	0	
2	0	0	0	0	510	507	0	0	
3	0	0	0	0	518	504	0	0	
4	0	0	0	0	518	507	0	0	
5	0	0	0	0	515	506	0	0	
6	0	0	0	0	513	508	0	0	
7	0	0	0	0	512	507	0	0	
8	0	0	0	0	504	509	0	0	
9	0	0	0	0	505	510	0	0	
10	0	0	0	0	512	512	0	0	
11	0	0	0	0	509	509	0	0	
12	0	0	0	0	506	509	0	0	
13	0	0	0	0	504	511	0	0	
14	0	0	0	0	503	512	0	0	
15	0	0	0	0	508	508	0	0	
0	0	0	0	0	509	508	0	0	
1	0	0	0	0	510	505	0	0	
2	0	0	0	0	509	506	0	0	
3	0	0	0	0	514	505	0	0	
4	0	0	0	0	514	505	0	0	
5	0	0	0	0	512	505	0	0	
6	0	0	0	0	514	504	0	0	
7	0	0	0	0	517	506	0	0	
8	0	0	0	0	519	508	0	0	
9	0	0	0	0	521	509	0	0	
10	0	0	0	0	521	509	0	0	
11	0	0	0	0	520	510	0	0	
12	0	0	0	0	507	509	0	0	
13	0	0	0	0	508	507	0	0	
14	0	0	0	0	495	511	0	0	
15	0	0	0	0	503	509	0	0	
0	0	0	0	0	508	512	0	0	
1	0	0	0	0	503	512	0	0	
2	0	0	0	0	500	510	0	0	
3	0	0	0	0	510	508	0	0	
4	0	0	0	0	512	508	0	0	
5	0	0	0	0	512	505	0	0	
6	0	0	0	0	511	507	0	0	
7	0	0	0	0	516	505	0	0	
8	0	0	0	0	518	506	0	0	
9	0	0	0	0	517	505	0	0	
10	0	0	0	0	519	505	0	0	
11	0	0	0	0	517	505	0	0	
12	0	0	0	0	512	507	0	0	
13	0	0	0	0	508	508	0	0	
14	0	0	0	0	502	509	0	0	
15	0	0	0	0	502	509	0	0	
0	0	0	0	0	507	510	0	0	
1	0	0	0	0	514	510	0	0	
2	0	0	0	0	516	508	0	0	
3	0	0	0	0	511	511	0	0	
4	0	0	0	0	502	511	0	0	
5	0	0	0	0	504	514	0	0	
6	0	0	0	0	509	511	0	0	
7	0	0	0	0	513	509	0	0	
8	0	0	0	0	512	504	0	0	
9	0	0	0	0	514	505	0	0	
10	0	0	0	0	515	508	0	0	
11	0	0	0	0	521	506	0	0	
12	0	0	0	0	520	507	0	0	
13	0	0	0	0	517	504	0	0	
14	0	0	0	0	516	507	0	0	
15	0	0	0	0	519	507	0	0	
0	0	0	0	0	524	507	0	0	
1	0	0	0	0	508	508	0	0	
2	0	0	0	0	498	507	0	0	
3	0	0	0	0	490	508	0	0	
4	0	0	0	0	491	510	0	0	
5	0	0	0	0	498	510	0	0	
6	0	0	0	0	510	510	0	0	
7	0	0	0	0	524	510	0	0	
8	0	0	0	0	524	510	0	0	
9	0	0	0	0	524	509	0	0	
10	0	0	0	0	506	512	0	0	
11	0	0	0	0	512	510	0	0	
12	0	0	0	0	514	508	0	0	
13	0	0	0	0	509	508	0	0	
14	0	0	0	0	494	507	0	0	
15	0	0	0	0	507	504	0	0	
0	0	0	0	0	501	508	0	0	
1	0	0	0	0	511	508	0	0	
2	0	0	0	0	513	505	0	0	
3	0	0	0	0	518	503	0	0	
4	0	0	0	0	518	505	0	0	
5	0	0	0	0	515	505	0	0	
6	0	0	0	0	513	507	0	0	
7	0	0	0	0	519	509	0	0	
8	0	0	0	0	521	508	0	0	
9	0	0	0	0	515	511	0	0	
10	0	0	0	0	507	512	0	0	
11	0	0	0	0	504	511	0	0	
12	0	0	0	0	480	512	0	0	
13	0	0	0	0	488	511	0	0	
14	0	0	0	0	505	510	0	0	
15	0	0	0	0	515	509	0	0	
0	0	0	0	0	513	509	0	0	
1	0	0	0	0	516	507	0	0	
2	0	0	0	0	518	506	0	0	
3	0	0	0	0	516	506	0	0	
4	0	0	0	0	516	506	0	0	
5	0	0	0	0	515	505	0	0	
6	0	0	0	0	520	506	0	0	
7	0	0	0	0	523	505	0	0	
8	0	0	0	0	516	506	0	0	
9	0	0	0	0	510	507	0	0	
10	0	0	0	0	508	507	0	0	
11	0	0	0	0	501	508	0	0	
12	0	0	0	0	506	507	0	0	
13	0	0	0	0	509	510	0	0	
14	0	0	0	0	513	510	0	0	
15	0	0	0	0	518	511	0	0	
0	0	0	0	0	515	509	0	0	
1	0	0	0	0	510	511	0	0	
2	0	0	0	0	510	512	0	0	
3	0	0	0	0	507	507	0	0	
4	0	0	0	0	505	506	0	0	
5	0	0	0	0	512	507	0	0	
6	0	0	0	0	515	505	0	0	
7	0	0	0	0	514	508	0	0	
8	0	0	0	0	511	507	0	0	
9	0	0	0	0	511	505	0	0	
10	0	0	0	0	513	506	0	0	
11	0	0	0	0	516	507	0	0	
12	0	0	0	0	516	508	0	0	
13	0	0	0	0	515	506	0	0	
14	0	0	0	0	509	508	0	0	
15	0	0	0	0	503	508	0	0	
0	0	0	0	0	511	511	0	0	
1	0	0	0	0	512	508	0	0	
2	0	0	0	0	508	511	0	0	
3	0	0	0	0	510	508	0	0	
4	0	0	0	0	510	510	0	0	
5	0	0	0	0	502	511	0	0	
6	0	0	0	0	491	510	0	0	
7	0	0	0	0	502	508	0	0	
8	0	0	0	0	504	506	0	0	
9	0	0	0	0	513	506	0	0	
10	0	0	0	0	517	506	0	0	
11	0	0	0	0	513	507	0	0	
12	0	0	0	0	515	507	0	0	
13	0	0	0	0	518	506	0	0	
14	0	0	0	0	517	508	0	0	
15	0	0	0	0	514	506	0	0	
0	0	0	0	0	518	505	0	0	
1	0	0	0	0	514	504	0	0	
2	0	0	0	0	509	508	0	0	
3	0	0	0	0	511	508	0	0	
4	0	0	0	0	511	511	0	0	
5	0	0	0	0	508	510	0	0	
6	0	0	0	0	508	511	0	0	
7	0	0	0	0	512	510	0	0	
8	0	0	0	0	514	512	0	0	
9	0	0	0	0	514	512	0	0	
10	0	0	0	0	509	510	0	0	
11	0	0	0	0	504	508	0	0	
12	0	0	0	0	511	509	0	0	
13	0	0	0	0	513	507	0	0	
14	0	0	0	0	506	505	0	0	
15	0	0	0	0	508	507	0	0	
0	0	0	0	0	513	504	0	0	
1	0	0	0	0	513	505	0	0	
2	0	0	0	0	511	507	0	0	
3	0	0	0	0	515	504	0	0	
4	0	0	0	0	514	505	0	0	
5	0	0	0	0	520	507	0	0	
6	0	0	0	0	521	508	0	0	
7	0	0	0	0	509	508	0	0	
8	0	0	0	0	499	510	0	0	
9	0	0	0	0	505	513	0	0	
10	0	0	0	0	518	511	0	0	
11	0	0	0	0	505	512	0	0	
12	0	0	0	0	502	510	0	0	
13	0	0	0	0	507	511	0	0	
14	0	0	0	0	509	509	0	0	
15	0	0	0	0	507	507	0	0	
0	0	0	0	0	507	507	0	0	
1	0	0	0	0	515	507	0	0	
2	0	0	0	0	519	505	0	0	
3	0	0	0	0	526	505	0	0	
4	0	0	0	0	536	505	0	0	
5	0	0	0	0	526	504	0	0	
6	0	0	0	0	514	505	0	0	
7	0	0	0	0	481	506	0	0	
8	0	0	0	0	484	508	0	0	
9	0	0	0	0	502	510	0	0	
10	0	0	0	0	512	507	0	0	
11	0	0	0	0	513	508	0	0	
12	0	0	0	0	509	510	0	0	
13	0	0	0	0	497	510	0	0	
14	0	0	0	0	495	510	0	0	
15	0	0	0	0	507	509	0	0	
0	0	0	0	0	506	509	0	0	
1	0	0	0	0	508	508	0	0	
2	0	0	0	0	516	510	0	0	
3	0	0	0	0	524	509	0	0	
4	0	0	0	0	520	507	0	0	
5	0	0	0	0	503	507	0	0	
6	0	0	0	0	512	508	0	0	
7	0	0	0	0	526	507	0	0	
8	0	0	0	0	523	506	0	0	
9	0	0	0	0	519	506	0	0	
10	0	0	0	0	511	506	0	0	
11	0	0	0	0	512	504	0	0	
12	0	0	0	0	511	506	0	0	
13	0	0	0	0	511	506	0	0	
14	0	0	0	0	511	509	0	0	
15	0	0	0	0	514	510	0	0	
0	0	0	0	0	513	511	0	0	
1	0	0	0	0	516	509	0	0	
2	0	0	0	0	518	511	0	0	
3	0	0	0	0	515	510	0	0	
4	0	0	0	0	515	511	0	0	
5	0	0	0	0	511	511	0	0	
6	0	0	0	0	494	510	0	0	
7	0	0	0	0	496	510	0	0	
8	0	0	0	0	506	508	0	0	
9	0	0	0	0	512	507	0	0	
10	0	0	0	0	515	507	0	0	
11	0	0	0	0	515	505	0	0	
12	0	0	0	0	513	505	0	0	
13	0	0	0	0	510	506	0	0	
14	0	0	0	0	512	508	0	0	
15	0	0	0	0	517	504	0	0	
0	0	0	0	0	520	504	0	0	
1	0	0	0	0	513	508	0	0	
2	0	0	0	0	515	506	0	0	
3	0	0	0	0	504	510	0	0	
4	0	0	0	0	500	511	0	0	
5	0	0	0	0	508	510	0	0	
6	0	0	0	0	511	509	0	0	
7	0	0	0	0	509	510	0	0	
8	0	0	0	0	507	510	0	0	
9	0	0	0	0	507	512	0	0	
10	0	0	0	0	508	510	0	0	
11	0	0	0	0	509	508	0	0	
12	0	0	0	0	507	508	0	0	
13	0	0	0	0	508	508	0	0	
14	0	0	0	0	509	506	0	0	
15	0	0	0	0	510	504	0	0	
0	0	0	0	0	499	507	0	0	
1	0	0	0	0	515	506	0	0	
2	0	0	0	0	526	505	0	0	
3	0	0	0	0	522	505	0	0	
4	0	0	0	0	513	507	0	0	
5	0	0	0	0	498	509	0	0	
6	0	0	0	0	509	511	0	0	
7	0	0	0	0	510	508	0	0	
8	0	0	0	0	515	511	0	0	
9	0	0	0	0	511	511	0	0	
10	0	0	0	0	515	511	0	0	
11	0	0	0	0	509	508	0	0	
12	0	0	0	0	508	511	0	0	
13	0	0	0	0	504	510	0	0	
14	0	0	0	0	507	509	0	0	
15	0	0	0	0	510	505	0	0	
0	0	0	0	0	507	508	0	0	
1	0	0	0	0	508	505	0	0	
2	0	0	0	0	516	504	0	0	
3	0	0	0	0	518	508	0	0	
4	0	0	0	0	519	507	0	0	
5	0	0	0	0	513	507	0	0	
6	0	0	0	0	515	507	0	0	
7	0	0	0	0	512	505	0	0	
8	0	0	0	0	513	508	0	0	
9	0	0	0	0	516	507	0	0	
10	0	0	0	0	512	507	0	0	
11	0	0	0	0	511	507	0	0	
12	0	0	0	0	511	510	0	0	
13	0	0	0	0	511	510	0	0	
14	0	0	0	0	511	513	0	0	
15	0	0	0	0	508	511	0	0	
0	0	0	0	0	510	512	0	0	
1	0	0	0	0	505	512	0	0	
2	0	0	0	0	510	510	0	0	
3	0	0	0	0	515	506	0	0	
4	0	0	0	0	510	507	0	0	
5	0	0	0	0	505	506	0	0	
6	0	0	0	0	514	505	0	0	
7	0	0	0	0	513	508	0	0	
8	0	0	0	0	514	507	0	0	
9	0	0	0	0	511	507	0	0	
10	0	0	0	0	511	505	0	0	
11	0	0	0	0	513	505	0	0	
12	0	0	0	0	513	505	0	0	
13	0	0	0	0	511	506	0	0	
14	0	0	0	0	511	507	0	0	
15	0	0	0	0	512	509	0	0	
0	0	0	0	0	511	511	0	0	
1	0	0	0	0	513	511	0	0	
2	0	0	0	0	509	508	0	0	
3	0	0	0	0	506	513	0	0	
4	0	0	0	0	507	510	0	0	
5	0	0	0	0	504	510	0	0	
6	0	0	0	0	509	510	0	0	
7	0	0	0	0	511	508	0	0	
8	0	0	0	0	511	507	0	0	
9	0	0	0	0	511	506	0	0	
10	0	0	0	0	512	505	0	0	
11	0	0	0	0	518	505	0	0	
12	0	0	0	0	516	506	0	0	
13	0	0	0	0	508	506	0	0	
14	0	0	0	0	507	507	0	0	
15	0	0	0	0	509	504	0	0	
0	0	0	0	0	514	504	0	0	
1	0	0	0	0	512	509	0	0	
2	0	0	0	0	517	509	0	0	
3	0	0	0	0	516	510	0	0	
4	0	0	0	0	513	510	0	0	
5	0	0	0	0	502	510	0	0	
6	0	0	0	0	488	513	0	0	
7	0	0	0	0	499	511	0	0	
8	0	0	0	0	511	510	0	0	
9	0	0	0	0	518	508	0	0	
10	0	0	0	0	520	507	0	0	
11	0	0	0	0	500	509	0	0	
12	0	0	0	0	500	508	0	0	
13	0	0	0	0	510	507	0	0	
14	0	0	0	0	504	507	0	0	
15	0	0	0	0	507	507	0	0	
0	0	0	0	0	518	507	0	0	
1	0	0	0	0	514	507	0	0	
2	0	0	0	0	511	509	0	0	
3	0	0	0	0	517	506	0	0	
4	0	0	0	0	517	506	0	0	
5	0	0	0	0	519	506	0	0	
6	0	0	0	0	518	506	0	0	
7	0	0	0	0	519	508	0	0	
8	0	0	0	0	515	510	0	0	
9	0	0	0	0	518	509	0	0	
10	0	0	0	0	505	513	0	0	
11	0	0	0	0	510	512	0	0	
12	0	0	0	0	499	510	0	0	
13	0	0	0	0	505	511	0	0	
14	0	0	0	0	509	508	0	0	
15	0	0	0	0	511	508	0	0	
0	0	0	0	0	513	507	0	0	
1	0	0	0	0	515	508	0	0	
2	0	0	0	0	517	505	0	0	
3	0	0	0	0	516	504	0	0	
4	0	0	0	0	504	506	0	0	
5	0	0	0	0	506	508	0	0	
6	0	0	0	0	509	508	0	0	
7	0	0	0	0	515	506	0	0	
8	0	0	0	0	513	506	0	0	
9	0	0	0	0	515	507	0	0	
10	0	0	0	0	516	508	0	0	
11	0	0	0	0	518	508	0	0	
12	0	0	0	0	512	508	0	0	
13	0	0	0	0	504	511	0	0	
14	0	0	0	0	501	509	0	0	
15	0	0	0	0	507	509	0	0	
0	0	0	0	0	510	510	0	0	
1	0	0	0	0	510	510	0	0	
2	0	0	0	0	504	509	0	0	
3	0	0	0	0	503	509	0	0	
4	0	0	0	0	511	507	0	0	
5	0	0	0	0	510	506	0	0	
6	0	0	0	0	512	508	0	0	
7	0	0	0	0	516	505	0	0	
8	0	0	0	0	511	506	0	0	
9	0	0	0	0	514	505	0	0	
10	0	0	0	0	514	505	0	0	
11	0	0	0	0	519	504	0	0	
12	0	0	0	0	523	507	0	0	
13	0	0	0	0	519	509	0	0	
14	0	0	0	0	511	510	0	0	
15	0	0	0	0	508	509	0	0	
0	0	0	0	0	515	510	0	0	
1	0	0	0	0	515	510	0	0	
2	0	0	0	0	511	511	0	0	
3	0	0	0	0	505	510	0	0	
4	0	0	0	0	500	510	0	0	
5	0	0	0	0	498	510	0	0	
6	0	0	0	0	509	509	0	0	
7	0	0	0	0	516	507	0	0	
8	0	0	0	0	512	507	0	0	
9	0	0	0	0	511	506	0	0	
10	0	0	0	0	513	505	0	0	
11	0	0	0	0	514	505	0	0	
12	0	0	0	0	511	507	0	0	
13	0	0	0	0	512	504	0	0	
14	0	0	0	0	513	506	0	0	
15	0	0	0	0	513	504	0	0	
0	0	0	0	0	512	508	0	0	
1	0	0	0	0	513	508	0	0	
2	0	0	0	0	510	507	0	0	
3	0	0	0	0	511	509	0	0	
4	0	0	0	0	515	509	0	0	
5	0	0	0	0	519	510	0	0	
6	0	0	0	0	519	510	0	0	
7	0	0	0	0	501	509	0	0	
8	0	0	0	0	489	510	0	0	
9	0	0	0	0	499	510	0	0	
10	0	0	0	0	512	508	0	0	
11	0	0	0	0	518	507	0	0	
12	0	0	0	0	519	508	0	0	
13	0	0	0	0	521	507	0	0	
14	0	0	0	0	520	507	0	0	
15	0	0	0	0	519	506	0	0	
0	0	0	0	0	502	508	0	0	
1	0	0	0	0	499	505	0	0	
2	0	0	0	0	511	504	0	0	
3	0	0	0	0	511	504	0	0	
4	0	0	0	0	510	506	0	0	
5	0	0	0	0	510	508	0	0	
6	0	0	0	0	515	510	0	0	
7	0	0	0	0	516	510	0	0	
8	0	0	0	0	518	510	0	0	
9	0	0	0	0	515	511	0	0	
10	0	0	0	0	508	511	0	0	
11	0	0	0	0	505	510	0	0	
12	0	0	0	0	505	508	0	0	
13	0	0	0	0	503	510	0	0	
14	0	0	0	0	501	510	0	0	
15	0	0	0	0	511	505	0	0	
0	0	0	0	0	514	506	0	0	
1	0	0	0	0	517	508	0	0	
2	0	0	0	0	517	505	0	0	
3	0	0	0	0	523	507	0	0	
4	0	0	0	0	520	507	0	0	
5	0	0	0	0	517	507	0	0	
6	0	0	0	0	514	508	0	0	
7	0	0	0	0	514	507	0	0	
8	0	0	0	0	510	504	0	0	
9	0	0	0	0	502	506	0	0	
10	0	0	0	0	499	509	0	0	
11	0	0	0	0	517	508	0	0	
12	0	0	0	0	519	512	0	0	
13	0	0	0	0	509	511	0	0	
14	0	0	0	0	483	511	0	0	
15	0	0	0	0	509	512	0	0	
0	0	0	0	0	526	510	0	0	
1	0	0	0	0	519	511	0	0	
2	0	0	0	0	518	510	0	0	
3	0	0	0	0	501	507	0	0	
4	0	0	0	0	485	509	0	0	
5	0	0	0	0	500	509	0	0	
6	0	0	0	0	510	504	0	0	
7	0	0	0	0	511	506	0	0	
8	0	0	0	0	509	505	0	0	
9	0	0	0	0	517	504	0	0	
10	0	0	0	0	515	504	0	0	
11	0	0	0	0	512	504	0	0	
12	0	0	0	0	510	505	0	0	
13	0	0	0	0	512	508	0	0	
14	0	0	0	0	518	508	0	0	
15	0	0	0	0	518	508	0	0	
0	0	0	0	0	510	509	0	0	
1	0	0	0	0	513	511	0	0	
2	0	0	0	0	522	512	0	0	
3	0	0	0	0	505	515	0	0	
4	0	0	0	0	501	511	0	0	
5	0	0	0	0	499	510	0	0	
6	0	0	0	0	506	510	0	0	
7	0	0	0	0	508	507	0	0	
8	0	0	0	0	510	506	0	0	
9	0	0	0	0	514	507	0	0	
10	0	0	0	0	514	507	0	0	
11	0	0	0	0	506	505	0	0	
12	0	0	0	0	509	504	0	0	
13	0	0	0	0	517	504	0	0	
14	0	0	0	0	513	506	0	0	
15	0	0	0	0	514	506	0	0	
0	0	0	0	0	519	505	0	0	
1	0	0	0	0	515	508	0	0	
2	0	0	0	0	513	507	0	0	
3	0	0	0	0	512	507	0	0	
4	0	0	0	0	503	508	0	0	
5	0	0	0	0	507	510	0	0	
6	0	0	0	0	511	511	0	0	
7	0	0	0	0	508	508	0	0	
8	0	0	0	0	508	511	0	0	
9	0	0	0	0	506	511	0	0	
10	0	0	0	0	505	511	0	0	
11	0	0	0	0	510	511	0	0	
12	0	0	0	0	511	508	0	0	
13	0	0	0	0	512	508	0	0	
14	0	0	0	0	513	505	0	0	
15	0	0	0	0	515	504	0	0	
0	0	0	0	0	513	507	0	0	
1	0	0	0	0	515	506	0	0	
2	0	0	0	0	512	508	0	0	
3	0	0	0	0	515	506	0	0	
4	0	0	0	0	510	506	0	0	
5	0	0	0	0	505	507	0	0	
6	0	0	0	0	513	508	0	0	
7	0	0	0	0	517	511	0	0	
8	0	0	0	0	519	507	0	0	
9	0	0	0	0	520	510	0	0	
10	0	0	0	0	528	513	0	0	
11	0	0	0	0	518	511	0	0	
12	0	0	0	0	498	509	0	0	
13	0	0	0	0	492	510	0	0	
14	0	0	0	0	495	509	0	0	
15	0	0	0	0	492	510	0	0	
0	0	0	0	0	504	505	0	0	
1	0	0	0	0	513	507	0	0	
2	0	0	0	0	519	507	0	0	
3	0	0	0	0	526	505	0	0	
4	0	0	0	0	515	507	0	0	
5	0	0	0	0	515	508	0	0	
6	0	0	0	0	512	507	0	0	
7	0	0	0	0	510	504	0	0	
8	0	0	0	0	510	506	0	0	
9	0	0	0	0	518	507	0	0	
10	0	0	0	0	526	509	0	0	
11	0	0	0	0	520	508	0	0	
12	0	0	0	0	511	508	0	0	
13	0	0	0	0	483	511	0	0	
14	0	0	0	0	486	511	0	0	
15	0	0	0	0	512	510	0	0	
0	0	0	0	0	524	511	0	0	
1	0	0	0	0	515	511	0	0	
2	0	0	0	0	502	511	0	0	
3	0	0	0	0	494	509	0	0	
4	0	0	0	0	503	506	0	0	
5	0	0	0	0	510	506	0	0	
6	0	0	0	0	517	505	0	0	
7	0	0	0	0	515	506	0	0	
8	0	0	0	0	515	507	0	0	
9	0	0	0	0	519	505	0	0	
10	0	0	0	0	516	509	0	0	
11	0	0	0	0	515	505	0	0	
12	0	0	0	0	514	506	0	0	
13	0	0	0	0	512	507	0	0	
14	0	0	0	0	513	508	0	0	
15	0	0	0	0	513	511	0	0	
0	0	0	0	0	511	511	0	0	
1	0	0	0	0	507	511	0	0	
2	0	0	0	0	506	510	0	0	
3	0	0	0	0	505	510	0	0	
4	0	0	0	0	508	509	0	0	
5	0	0	0	0	505	510	0	0	
6	0	0	0	0	506	509	0	0	
7	0	0	0	0	513	510	0	0	
8	0	0	0	0	511	507	0	0	
9	0	0	0	0	511	505	0	0	
10	0	0	0	0	518	505	0	0	
11	0	0	0	0	521	509	0	0	
12	0	0	0	0	520	505	0	0	
13	0	0	0	0	514	505	0	0	
14	0	0	0	0	509	506	0	0	
15	0	0	0	0	511	505	0	0	
0	0	0	0	0	511	506	0	0	
1	0	0	0	0	518	507	0	0	
2	0	0	0	0	513	511	0	0	
3	0	0	0	0	511	508	0	0	
4	0	0	0	0	508	506	0	0	
5	0	0	0	0	496	509	0	0	
6	0	0	0	0	513	514	0	0	
7	0	0	0	0	512	509	0	0	
8	0	0	0	0	510	509	0	0	
9	0	0	0	0	508	508	0	0	
10	0	0	0	0	501	510	0	0	
11	0	0	0	0	507	511	0	0	
12	0	0	0	0	513	508	0	0	
13	0	0	0	0	513	509	0	0	
14	0	0	0	0	515	508	0	0	
15	0	0	0	0	514	505	0	0	
0	0	0	0	0	512	505	0	0	
1	0	0	0	0	514	505	0	0	
2	0	0	0	0	514	505	0	0	
3	0	0	0	0	518	507	0	0	
4	0	0	0	0	518	507	0	0	
5	0	0	0	0	509	508	0	0	
6	0	0	0	0	507	509	0	0	
7	0	0	0	0	513	506	0	0	
8	0	0	0	0	508	508	0	0	
9	0	0	0	0	506	507	0	0	
10	0	0	0	0	505	510	0	0	
11	0	0	0	0	510	511	0	0	
12	0	0	0	0	508	512	0	0	
13	0	0	0	0	512	509	0	0	
14	0	0	0	0	515	511	0	0	
15	0	0	0	0	505	509	0	0	
0	0	0	0	0	504	508	0	0	
1	0	0	0	0	508	509	0	0	
2	0	0	0	0	519	507	0	0	
3	0	0	0	0	520	504	0	0	
4	0	0	0	0	516	507	0	0	
5	0	0	0	0	518	506	0	0	
6	0	0	0	0	513	506	0	0	
7	0	0	0	0	515	504	0	0	
8	0	0	0	0	517	505	0	0	
9	0	0	0	0	512	507	0	0	
10	0	0	0	0	510	507	0	0	
11	0	0	0	0	507	511	0	0	
12	0	0	0	0	503	510	0	0	
13	0	0	0	0	504	508	0	0	
14	0	0	0	0	499	512	0	0	
15	0	0	0	0	501	510	0	0	
0	0	0	0	0	506	509	0	0	
1	0	0	0	0	508	509	0	0	
2	0	0	0	0	518	510	0	0	
3	0	0	0	0	516	509	0	0	
4	0	0	0	0	511	509	0	0	
5	0	0	0	0	508	508	0	0	
6	0	0	0	0	519	503	0	0	
7	0	0	0	0	519	504	0	0	
8	0	0	0	0	523	507	0	0	
9	0	0	0	0	521	505	0	0	
10	0	0	0	0	507	507	0	0	
11	0	0	0	0	498	508	0	0	
12	0	0	0	0	500	507	0	0	
13	0	0	0	0	506	507	0	0	
14	0	0	0	0	516	508	0	0	
15	0	0	0	0	516	507	0	0	
0	0	0	0	0	513	509	0	0	
1	0	0	0	0	509	511	0	0	
2	0	0	0	0	509	510	0	0	
3	0	0	0	0	500	512	0	0	
4	0	0	0	0	508	511	0	0	
5	0	0	0	0	509	510	0	0	
6	0	0	0	0	513	507	0	0	
7	0	0	0	0	512	511	0	0	
8	0	0	0	0	511	507	0	0	
9	0	0	0	0	513	505	0	0	
10	0	0	0	0	510	507	0	0	
11	0	0	0	0	510	507	0	0	
12	0	0	0	0	511	505	0	0	
13	0	0	0	0	512	506	0	0	
14	0	0	0	0	511	507	0	0	
15	0	0	0	0	511	507	0	0	
0	0	0	0	0	516	506	0	0	
1	0	0	0	0	518	505	0	0	
2	0	0	0	0	515	507	0	0	
3	0	0	0	0	510	510	0	0	
4	0	0	0	0	508	508	0	0	
5	0	0	0	0	510	510	0	0	
6	0	0	0	0	511	511	0	0	
7	0	0	0	0	507	511	0	0	
8	0	0	0	0	511	511	0	0	
9	0	0	0	0	509	510	0	0	
10	0	0	0	0	505	509	0	0	
11	0	0	0	0	508	509	0	0	
12	0	0	0	0	508	509	0	0	
13	0	0	0	0	511	509	0	0	
14	0	0	0	0	512	507	0	0	
15	0	0	0	0	516	506	0	0	
0	0	0	0	0	512	508	0	0	
1	0	0	0	0	516	505	0	0	
2	0	0	0	0	514	507	0	0	
3	0	0	0	0	515	505	0	0	
4	0	0	0	0	515	504	0	0	
5	0	0	0	0	511	506	0	0	
6	0	0	0	0	510	507	0	0	
7	0	0	0	0	511	507	0	0	
8	0	0	0	0	511	510	0	0	
9	0	0	0	0	512	509	0	0	
10	0	0	0	0	508	510	0	0	
11	0	0	0	0	505	510	0	0	
12	0	0	0	0	504	513	0	0	
13	0	0	0	0	510	510	0	0	
14	0	0	0	0	517	510	0	0	
15	0	0	0	0	518	510	0	0	
0	0	0	0	0	514	509	0	0	
1	0	0	0	0	513	507	0	0	
2	0	0	0	0	510	508	0	0	
3	0	0	0	0	499	504	0	0	
4	0	0	0	0	495	506	0	0	
5	0	0	0	0	504	504	0	0	
6	0	0	0	0	513	507	0	0	
7	0	0	0	0	517	507	0	0	
8	0	0	0	0	522	505	0	0	
9	0	0	0	0	520	507	0	0	
10	0	0	0	0	514	509	0	0	
11	0	0	0	0	507	508	0	0	
12	0	0	0	0	511	509	0	0	
13	0	0	0	0	511	510	0	0	
14	0	0	0	0	506	510	0	0	
15	0	0	0	0	515	508	0	0	
0	0	0	0	0	517	507	0	0	
1	0	0	0	0	515	509	0	0	
2	0	0	0	0	513	511	0	0	
3	0	0	0	0	510	508	0	0	
4	0	0	0	0	503	509	0	0	
5	0	0	0	0	498	510	0	0	
6	0	0	0	0	508	507	0	0	
7	0	0	0	0	518	505	0	0	
8	0	0	0	0	514	505	0	0	
9	0	0	0	0	511	507	0	0	
10	0	0	0	0	513	510	0	0	
11	0	0	0	0	514	507	0	0	
12	0	0	0	0	509	506	0	0	
13	0	0	0	0	516	507	0	0	
14	0	0	0	0	515	507	0	0	
15	0	0	0	0	513	509	0	0	
0	0	0	0	0	507	512	0	0	
1	0	0	0	0	505	512	0	0	
2	0	0	0	0	508	509	0	0	
3	0	0	0	0	513	507	0	0	
4	0	0	0	0	511	511	0	0	
5	0	0	0	0	505	511	0	0	
6	0	0	0	0	506	510	0	0	
7	0	0	0	0	510	509	0	0	
8	0	0	0	0	509	508	0	0	
9	0	0	0	0	514	507	0	0	
10	0	0	0	0	512	508	0	0	
11	0	0	0	0	512	505	0	0	
12	0	0	0	0	512	504	0	0	
13	0	0	0	0	516	505	0	0	
14	0	0	0	0	515	504	0	0	
15	0	0	0	0	511	504	0	0	
0	0	0	0	0	514	508	0	0	
1	0	0	0	0	520	504	0	0	
2	0	0	0	0	512	509	0	0	
3	0	0	0	0	513	510	0	0	
4	0	0	0	0	511	512	0	0	
5	0	0	0	0	517	512	0	0	
6	0	0	0	0	513	511	0	0	
7	0	0	0	0	506	511	0	0	
8	0	0	0	0	511	511	0	0	
9	0	0	0	0	508	511	0	0	
10	0	0	0	0	505	511	0	0	
11	0	0	0	0	508	507	0	0	
12	0	0	0	0	504	508	0	0	
13	0	0	0	0	507	508	0	0	
14	0	0	0	0	500	507	0	0	
15	0	0	0	0	506	506	0	0	
0	0	0	0	0	508	506	0	0	
1	0	0	0	0	512	507	0	0	
2	0	0	0	0	524	507	0	0	
3	0	0	0	0	520	505	0	0	
4	0	0	0	0	512	504	0	0	
5	0	0	0	0	514	505	0	0	
6	0	0	0	0	512	507	0	0	
7	0	0	0	0	508	509	0	0	
8	0	0	0	0	505	510	0	0	
9	0	0	0	0	507	511	0	0	
10	0	0	0	0	505	512	0	0	
11	0	0	0	0	507	510	0	0	
12	0	0	0	0	508	508	0	0	
13	0	0	0	0	507	508	0	0	
14	0	0	0	0	509	507	0	0	
15	0	0	0	0	512	506	0	0	
0	0	0	0	0	514	509	0	0	
1	0	0	0	0	517	509	0	0	
2	0	0	0	0	519	510	0	0	
3	0	0	0	0	527	509	0	0	
4	0	0	0	0	528	506	0	0	
5	0	0	0	0	524	506	0	0	
6	0	0	0	0	508	505	0	0	
7	0	0	0	0	506	504	0	0	
8	0	0	0	0	514	504	0	0	
9	0	0	0	0	511	506	0	0	
10	0	0	0	0	507	508	0	0	
11	0	0	0	0	510	509	0	0	
12	0	0	0	0	505	508	0	0	
13	0	0	0	0	498	511	0	0	
14	0	0	0	0	507	511	0	0	
15	0	0	0	0	508	509	0	0	
0	0	0	0	0	512	511	0	0	
1	0	0	0	0	504	509	0	0	
2	0	0	0	0	491	510	0	0	
3	0	0	0	0	500	510	0	0	
4	0	0	0	0	492	508	0	0	
5	0	0	0	0	503	507	0	0	
6	0	0	0	0	512	508	0	0	
7	0	0	0	0	514	507	0	0	
8	0	0	0	0	513	504	0	0	
9	0	0	0	0	519	504	0	0	
10	0	0	0	0	524	507	0	0	
11	0	0	0	0	527	506	0	0	
12	0	0	0	0	527	505	0	0	
13	0	0	0	0	514	507	0	0	
14	0	0	0	0	511	508	0	0	
15	0	0	0	0	514	510	0	0	
0	0	0	0	0	511	511	0	0	
1	0	0	0	0	507	509	0	0	
2	0	0	0	0	506	510	0	0	
3	0	0	0	0	507	510	0	0	
4	0	0	0	0	509	512	0	0	
5	0	0	0	0	507	512	0	0	
6	0	0	0	0	508	511	0	0	
7	0	0	0	0	508	507	0	0	
8	0	0	0	0	506	508	0	0	
9	0	0	0	0	508	504	0	0	
10	0	0	0	0	519	507	0	0	
11	0	0	0	0	519	504	0	0	
12	0	0	0	0	513	508	0	0	
13	0	0	0	0	507	508	0	0	
14	0	0	0	0	505	505	0	0	
15	0	0	0	0	498	505	0	0	
0	0	0	0	0	507	507	0	0	
1	0	0	0	0	515	507	0	0	
2	0	0	0	0	525	510	0	0	
3	0	0	0	0	523	508	0	0	
4	0	0	0	0	526	511	0	0	
5	0	0	0	0	517	509	0	0	
6	0	0	0	0	509	508	0	0	
7	0	0	0	0	505	511	0	0	
8	0	0	0	0	503	508	0	0	
9	0	0	0	0	504	509	0	0	
10	0	0	0	0	511	512	0	0	
11	0	0	0	0	514	509	0	0	
12	0	0	0	0	516	508	0	0	
13	0	0	0	0	519	508	0	0	
14	0	0	0	0	506	506	0	0	
15	0	0	0	0	510	504	0	0	
0	0	0	0	0	511	506	0	0	
1	0	0	0	0	508	507	0	0	
2	0	0	0	0	515	504	0	0	
3	0	0	0	0	519	504	0	0	
4	0	0	0	0	520	504	0	0	
5	0	0	0	0	512	507	0	0	
6	0	0	0	0	494	508	0	0	
7	0	0	0	0	507	511	0	0	
8	0	0	0	0	512	510	0	0	
9	0	0	0	0	508	510	0	0	
10	0	0	0	0	508	508	0	0	
11	0	0	0	0	504	510	0	0	
12	0	0	0	0	504	509	0	0	
13	0	0	0	0	508	511	0	0	
14	0	0	0	0	512	511	0	0	
15	0	0	0	0	514	511	0	0	
0	0	0	0	0	513	506	0	0	
1	0	0	0	0	514	507	0	0	
2	0	0	0	0	512	504	0	0	
3	0	0	0	0	515	506	0	0	
4	0	0	0	0	515	508	0	0	
5	0	0	0	0	517	507	0	0	
6	0	0	0	0	515	506	0	0	
7	0	0	0	0	516	507	0	0	
8	0	0	0	0	519	505	0	0	
9	0	0	0	0	514	505	0	0	
10	0	0	0	0	509	508	0	0	
11	0	0	0	0	510	509	0	0	
12	0	0	0	0	502	512	0	0	
13	0	0	0	0	499	514	0	0	
14	0	0	0	0	499	509	0	0	
15	0	0	0	0	504	512	0	0	
0	0	0	0	0	504	512	0	0	
1	0	0	0	0	512	508	0	0	
2	0	0	0	0	510	509	0	0	
3	0	0	0	0	506	511	0	0	
4	0	0	0	0	514	508	0	0	
5	0	0	0	0	516	507	0	0	
6	0	0	0	0	516	505	0	0	
7	0	0	0	0	519	505	0	0	
8	0	0	0	0	517	506	0	0	
9	0	0	0	0	518	505	0	0	
10	0	0	0	0	519	505	0	0	
11	0	0	0	0	515	506	0	0	
12	0	0	0	0	513	507	0	0	
13	0	0	0	0	511	509	0	0	
14	0	0	0	0	510	508	0	0	
15	0	0	0	0	505	509	0	0	
0	0	0	0	0	504	507	0	0	
1	0	0	0	0	513	511	0	0	
2	0	0	0	0	510	510	0	0	
3	0	0	0	0	505	509	0	0	
4	0	0	0	0	504	511	0	0	
5	0	0	0	0	509	511	0	0	
6	0	0	0	0	507	511	0	0	
7	0	0	0	0	512	510	0	0	
8	0	0	0	0	515	509	0	0	
9	0	0	0	0	516	508	0	0	
10	0	0	0	0	513	504	0	0	
11	0	0	0	0	514	504	0	0	
12	0	0	0	0	522	506	0	0	
13	0	0	0	0	519	506	0	0	
14	0	0	0	0	504	508	0	0	
15	0	0	0	0	498	507	0	0	
0	0	0	0	0	509	506	0	0	
1	0	0	0	0	506	507	0	0	
2	0	0	0	0	511	509	0	0	
3	0	0	0	0	510	510	0	0	
4	0	0	0	0	511	507	0	0	
5	0	0	0	0	510	510	0	0	
6	0	0	0	0	509	512	0	0	
7	0	0	0	0	511	509	0	0	
8	0	0	0	0	509	508	0	0	
9	0	0	0	0	509	509	0	0	
10	0	0	0	0	510	510	0	0	
11	0	0	0	0	511	510	0	0	
12	0	0	0	0	515	508	0	0	
13	0	0	0	0	520	506	0	0	
14	0	0	0	0	521	505	0	0	
15	0	0	0	0	520	506	0	0	
0	0	0	0	0	514	504	0	0	
1	0	0	0	0	501	508	0	0	
2	0	0	0	0	510	509	0	0	
3	0	0	0	0	517	507	0	0	
4	0	0	0	0	504	507	0	0	
5	0	0	0	0	512	506	0	0	
6	0	0	0	0	518	507	0	0	
7	0	0	0	0	509	506	0	0	
8	0	0	0	0	521	507	0	0	
9	0	0	0	0	507	510	0	0	
10	0	0	0	0	497	510	0	0	
11	0	0	0	0	504	510	0	0	
12	0	0	0	0	508	509	0	0	
13	0	0	0	0	508	510	0	0	
14	0	0	0	0	504	510	0	0	
15	0	0	0	0	510	510	0	0	
0	0	0	0	0	511	509	0	0	
1	0	0	0	0	513	505	0	0	
2	0	0	0	0	516	507	0	0	
3	0	0	0	0	508	508	0	0	
4	0	0	0	0	510	505	0	0	
5	0	0	0	0	515	507	0	0	
6	0	0	0	0	515	506	0	0	
7	0	0	0	0	515	505	0	0	
8	0	0	0	0	518	505	0	0	
9	0	0	0	0	521	508	0	0	
10	0	0	0	0	524	508	0	0	
11	0	0	0	0	519	511	0	0	
12	0	0	0	0	515	508	0	0	
13	0	0	0	0	508	508	0	0	
14	0	0	0	0	495	510	0	0	
15	0	0	0	0	495	506	0	0	
0	0	0	0	0	503	508	0	0	
1	0	0	0	0	508	510	0	0	
2	0	0	0	0	506	510	0	0	
3	0	0	0	0	494	512	0	0	
4	0	0	0	0	501	510	0	0	
5	0	0	0	0	513	507	0	0	
6	0	0	0	0	517	507	0	0	
7	0	0	0	0	516	505	0	0	
8	0	0	0	0	516	508	0	0	
9	0	0	0	0	514	508	0	0	
10	0	0	0	0	513	507	0	0	
11	0	0	0	0	520	504	0	0	
12	0	0	0	0	516	503	0	0	
13	0	0	0	0	508	506	0	0	
14	0	0	0	0	515	507	0	0	
15	0	0	0	0	518	507	0	0	
0	0	0	0	0	510	508	0	0	
1	0	0	0	0	510	510	0	0	
2	0	0	0	0	512	511	0	0	
3	0	0	0	0	507	509	0	0	
4	0	0	0	0	500	510	0	0	
5	0	0	0	0	507	510	0	0	
6	0	0	0	0	507	509	0	0	
7	0	0	0	0	500	511	0	0	
8	0	0	0	0	505	508	0	0	
9	0	0	0	0	510	508	0	0	
10	0	0	0	0	520	509	0	0	
11	0	0	0	0	522	508	0	0	
12	0	0	0	0	518	505	0	0	
13	0	0	0	0	514	506	0	0	
14	0	0	0	0	510	507	0	0	
15	0	0	0	0	511	507	0	0	
0	0	0	0	0	516	505	0	0	
1	0	0	0	0	513	507	0	0	
2	0	0	0	0	514	507	0	0	
3	0	0	0	0	509	510	0	0	
4	0	0	0	0	509	509	0	0	
5	0	0	0	0	509	508	0	0	
6	0	0	0	0	511	508	0	0	
7	0	0	0	0	515	510	0	0	
8	0	0	0	0	511	510	0	0	
9	0	0	0	0	504	511	0	0	
10	0	0	0	0	507	512	0	0	
11	0	0	0	0	507	510	0	0	
12	0	0	0	0	508	508	0	0	
13	0	0	0	0	512	507	0	0	
14	0	0	0	0	511	506	0	0	
15	0	0	0	0	511	507	0	0	
0	0	0	0	0	515	506	0	0	
1	0	0	0	0	515	506	0	0	
2	0	0	0	0	515	507	0	0	
3	0	0	0	0	515	507	0	0	
4	0	0	0	0	513	506	0	0	
5	0	0	0	0	509	506	0	0	
6	0	0	0	0	507	507	0	0	
7	0	0	0	0	511	509	0	0	
8	0	0	0	0	513	510	0	0	
9	0	0	0	0	511	509	0	0	
10	0	0	0	0	511	511	0	0	
11	0	0	0	0	514	509	0	0	
12	0	0	0	0	511	510	0	0	
13	0	0	0	0	505	508	0	0	
14	0	0	0	0	491	511	0	0	
15	0	0	0	0	501	506	0	0	
0	0	0	0	0	500	507	0	0	
1	0	0	0	0	503	508	0	0	
2	0	0	0	0	520	506	0	0	
3	0	0	0	0	526	504	0	0	
4	0	0	0	0	523	508	0	0	
5	0	0	0	0	536	504	0	0	
6	0	0	0	0	528	508	0	0	
7	0	0	0	0	496	506	0	0	
8	0	0	0	0	502	506	0	0	
9	0	0	0	0	510	510	0	0	
10	0	0	0	0	513	508	0	0	
11	0	0	0	0	513	507	0	0	
12	0	0	0	0	512	508	0	0	
13	0	0	0	0	509	509	0	0	
14	0	0	0	0	505	512	0	0	
15	0	0	0	0	504	510	0	0	
0	0	0	0	0	507	511	0	0	
1	0	0	0	0	509	510	0	0	
2	0	0	0	0	503	510	0	0	
3	0	0	0	0	505	511	0	0	
4	0	0	0	0	511	506	0	0	
5	0	0	0	0	512	505	0	0	
6	0	0	0	0	516	508	0	0	
7	0	0	0	0	519	509	0	0	
8	0	0	0	0	515	508	0	0	
9	0	0	0	0	514	507	0	0	
10	0	0	0	0	515	506	0	0	
11	0	0	0	0	518	505	0	0	
12	0	0	0	0	517	504	0	0	
13	0	0	0	0	514	505	0	0	
14	0	0	0	0	515	507	0	0	
15	0	0	0	0	509	509	0	0	
0	0	0	0	0	511	507	0	0	
1	0	0	0	0	511	509	0	0	
2	0	0	0	0	504	509	0	0	
3	0	0	0	0	504	511	0	0	
4	0	0	0	0	507	510	0	0	
5	0	0	0	0	507	510	0	0	
6	0	0	0	0	507	510	0	0	
7	0	0	0	0	508	510	0	0	
8	0	0	0	0	508	508	0	0	
9	0	0	0	0	506	510	0	0	
10	0	0	0	0	505	508	0	0	
11	0	0	0	0	515	507	0	0	
12	0	0	0	0	519	508	0	0	
13	0	0	0	0	518	507	0	0	
14	0	0	0	0	516	506	0	0	
15	0	0	0	0	512	505	0	0	
0	0	0	0	0	518	505	0	0	
1	0	0	0	0	519	507	0	0	
2	0	0	0	0	519	507	0	0	
3	0	0	0	0	514	507	0	0	
4	0	0	0	0	511	510	0	0	
5	0	0	0	0	487	512	0	0	
6	0	0	0	0	494	510	0	0	
7	0	0	0	0	502	508	0	0	
8	0	0	0	0	510	511	0	0	
9	0	0	0	0	511	509	0	0	
10	0	0	0	0	509	509	0	0	
11	0	0	0	0	511	509	0	0	
12	0	0	0	0	505	508	0	0	
13	0	0	0	0	511	510	0	0	
14	0	0	0	0	512	506	0	0	
15	0	0	0	0	513	506	0	0	
0	0	0	0	0	516	505	0	0	
1	0	0	0	0	519	506	0	0	
2	0	0	0	0	524	505	0	0	
3	0	0	0	0	519	505	0	0	
4	0	0	0	0	504	504	0	0	
5	0	0	0	0	512	508	0	0	
6	0	0	0	0	515	508	0	0	
7	0	0	0	0	510	509	0	0	
8	0	0	0	0	506	508	0	0	
9	0	0	0	0	508	510	0	0	
10	0	0	0	0	504	511	0	0	
11	0	0	0	0	505	511	0	0	
12	0	0	0	0	505	508	0	0	
13	0	0	0	0	505	508	0	0	
14	0	0	0	0	512	510	0	0	
15	0	0	0	0	509	510	0	0	
0	0	0	0	0	513	510	0	0	
1	0	0	0	0	512	508	0	0	
2	0	0	0	0	514	505	0	0	
3	0	0	0	0	515	505	0	0	
4	0	0	0	0	509	505	0	0	
5	0	0	0	0	510	505	0	0	
6	0	0	0	0	510	507	0	0	
7	0	0	0	0	508	503	0	0	
8	0	0	0	0	515	506	0	0	
9	0	0	0	0	519	506	0	0	
10	0	0	0	0	515	508	0	0	
11	0	0	0	0	509	510	0	0	
12	0	0	0	0	512	509	0	0	
13	0	0	0	0	516	511	0	0	
14	0	0	0	0	510	508	0	0	
15	0	0	0	0	511	508	0	0	
0	0	0	0	0	504	511	0	0	
1	0	0	0	0	509	509	0	0	
2	0	0	0	0	510	513	0	0	
3	0	0	0	0	499	513	0	0	
4	0	0	0	0	497	509	0	0	
5	0	0	0	0	502	508	0	0	
6	0	0	0	0	516	508	0	0	
7	0	0	0	0	511	503	0	0	
8	0	0	0	0	508	504	0	0	
9	0	0	0	0	518	506	0	0	
10	0	0	0	0	519	505	0	0	
11	0	0	0	0	522	504	0	0	
12	0	0	0	0	524	505	0	0	
13	0	0	0	0	520	506	0	0	
14	0	0	0	0	515	507	0	0	
15	0	0	0	0	509	510	0	0	
0	0	0	0	0	509	510	0	0	
1	0	0	0	0	508	510	0	0	
2	0	0	0	0	507	511	0	0	
3	0	0	0	0	510	510	0	0	
4	0	0	0	0	507	510	0	0	
5	0	0	0	0	508	510	0	0	
6	0	0	0	0	507	507	0	0	
7	0	0	0	0	504	509	0	0	
8	0	0	0	0	507	508	0	0	
9	0	0	0	0	508	508	0	0	
10	0	0	0	0	510	508	0	0	
11	0	0	0	0	510	507	0	0	
12	0	0	0	0	523	504	0	0	
13	0	0	0	0	522	504	0	0	
14	0	0	0	0	518	505	0	0	
15	0	0	0	0	519	504	0	0	
0	0	0	0	0	514	506	0	0	
1	0	0	0	0	512	507	0	0	
2	0	0	0	0	513	509	0	0	
3	0	0	0	0	514	508	0	0	
4	0	0	0	0	512	508	0	0	
5	0	0	0	0	497	510	0	0	
6	0	0	0	0	496	509	0	0	
7	0	0	0	0	507	509	0	0	
8	0	0	0	0	515	510	0	0	
9	0	0	0	0	519	509	0	0	
10	0	0	0	0	521	510	0	0	
11	0	0	0	0	514	510	0	0	
12	0	0	0	0	512	509	0	0	
13	0	0	0	0	506	508	0	0	
14	0	0	0	0	492	510	0	0	
15	0	0	0	0	515	507	0	0	
0	0	0	0	0	518	508	0	0	
1	0	0	0	0	516	507	0	0	
2	0	0	0	0	514	507	0	0	
3	0	0	0	0	507	505	0	0	
4	0	0	0	0	507	505	0	0	
5	0	0	0	0	505	506	0	0	
6	0	0	0	0	511	508	0	0	
7	0	0	0	0	515	510	0	0	
8	0	0	0	0	511	507	0	0	
9	0	0	0	0	511	508	0	0	
10	0	0	0	0	507	512	0	0	
11	0	0	0	0	506	510	0	0	
12	0	0	0	0	503	508	0	0	
13	0	0	0	0	509	506	0	0	
14	0	0	0	0	516	509	0	0	
15	0	0	0	0	515	508	0	0	
0	0	0	0	0	511	510	0	0	
1	0	0	0	0	512	510	0	0	
2	0	0	0	0	514	507	0	0	
3	0	0	0	0	506	507	0	0	
4	0	0	0	0	507	507	0	0	
5	0	0	0	0	510	505	0	0	
6	0	0	0	0	514	507	0	0	
7	0	0	0	0	518	505	0	0	
8	0	0	0	0	516	505	0	0	
9	0	0	0	0	517	508	0	0	
10	0	0	0	0	512	506	0	0	
11	0	0	0	0	519	507	0	0	
12	0	0	0	0	505	511	0	0	
13	0	0	0	0	502	510	0	0	
14	0	0	0	0	507	511	0	0	
15	0	0	0	0	508	509	0	0	
0	0	0	0	0	505	511	0	0	
1	0	0	0	0	507	510	0	0	
2	0	0	0	0	507	510	0	0	
3	0	0	0	0	509	509	0	0	
4	0	0	0	0	508	509	0	0	
5	0	0	0	0	508	508	0	0	
6	0	0	0	0	506	507	0	0	
7	0	0	0	0	514	507	0	0	
8	0	0	0	0	519	507	0	0	
9	0	0	0	0	517	506	0	0	
10	0	0	0	0	515	505	0	0	
11	0	0	0	0	515	506	0	0	
12	0	0	0	0	516	506	0	0	
13	0	0	0	0	519	508	0	0	
14	0	0	0	0	516	507	0	0	
15	0	0	0	0	512	510	0	0	
0	0	0	0	0	518	508	0	0	
1	0	0	0	0	516	509	0	0	
2	0	0	0	0	511	509	0	0	
3	0	0	0	0	497	511	0	0	
4	0	0	0	0	485	510	0	0	
5	0	0	0	0	505	510	0	0	
6	0	0	0	0	511	509	0	0	
7	0	0	0	0	511	512	0	0	
8	0	0	0	0	498	510	0	0	
9	0	0	0	0	513	508	0	0	
10	0	0	0	0	518	509	0	0	
11	0	0	0	0	519	504	0	0	
12	0	0	0	0	519	505	0	0	
13	0	0	0	0	513	505	0	0	
14	0	0	0	0	507	505	0	0	
15	0	0	0	0	512	505	0	0	
0	0	0	0	0	516	507	0	0	
1	0	0	0	0	518	508	0	0	
2	0	0	0	0	514	508	0	0	
3	0	0	0	0	513	510	0	0	
4	0	0	0	0	515	508	0	0	
5	0	0	0	0	508	508	0	0	
6	0	0	0	0	514	508	0	0	
7	0	0	0	0	511	510	0	0	
8	0	0	0	0	506	510	0	0	
9	0	0	0	0	504	509	0	0	
10	0	0	0	0	504	510	0	0	
11	0	0	0	0	510	510	0	0	
12	0	0	0	0	509	508	0	0	
13	0	0	0	0	505	508	0	0	
14	0	0	0	0	514	506	0	0	
15	0	0	0	0	515	506	0	0	
0	0	0	0	0	512	506	0	0	
1	0	0	0	0	512	507	0	0	
2	0	0	0	0	513	507	0	0	
3	0	0	0	0	514	506	0	0	
4	0	0	0	0	516	505	0	0	
5	0	0	0	0	517	506	0	0	
6	0	0	0	0	513	508	0	0	
7	0	0	0	0	513	509	0	0	
8	0	0	0	0	513	511	0	0	
9	0	0	0	0	508	511	0	0	
10	0	0	0	0	507	509	0	0	
11	0	0	0	0	507	510	0	0	
12	0	0	0	0	508	509	0	0	
13	0	0	0	0	507	508	0	0	
14	0	0	0	0	504	509	0	0	
15	0	0	0	0	504	509	0	0	
0	0	0	0	0	507	510	0	0	
1	0	0	0	0	509	508	0	0	
2	0	0	0	0	515	508	0	0	
3	0	0	0	0	521	507	0	0	
4	0	0	0	0	514	506	0	0	
5	0	0	0	0	510	508	0	0	
6	0	0	0	0	508	507	0	0	
7	0	0	0	0	518	508	0	0	
8	0	0	0	0	521	507	0	0	
9	0	0	0	0	523	507	0	0	
10	0	0	0	0	526	508	0	0	
11	0	0	0	0	510	509	0	0	
12	0	0	0	0	502	509	0	0	
13	0	0	0	0	502	509	0	0	
14	0	0	0	0	504	508	0	0	
15	0	0	0	0	495	509	0	0	
0	0	0	0	0	505	508	0	0	
1	0	0	0	0	514	511	0	0	
2	0	0	0	0	507	511	0	0	
3	0	0	0	0	513	511	0	0	
4	0	0	0	0	511	508	0	0	
5	0	0	0	0	505	508	0	0	
6	0	0	0	0	512	507	0	0	
7	0	0	0	0	516	507	0	0	
8	0	0	0	0	513	505	0	0	
9	0	0	0	0	519	505	0	0	
10	0	0	0	0	515	507	0	0	
11	0	0	0	0	514	505	0	0	
12	0	0	0	0	515	507	0	0	
13	0	0	0	0	517	505	0	0	
14	0	0	0	0	519	507	0	0	
15	0	0	0	0	494	508	0	0	
0	0	0	0	0	492	508	0	0	
1	0	0	0	0	503	510	0	0	
2	0	0	0	0	509	511	0	0	
3	0	0	0	0	518	510	0	0	
4	0	0	0	0	517	511	0	0	
5	0	0	0	0	511	509	0	0	
6	0	0	0	0	496	512	0	0	
7	0	0	0	0	506	510	0	0	
8	0	0	0	0	510	508	0	0	
9	0	0	0	0	507	507	0	0	
10	0	0	0	0	506	506	0	0	
11	0	0	0	0	510	507	0	0	
12	0	0	0	0	508	508	0	0	
13	0	0	0	0	515	506	0	0	
14	0	0	0	0	515	507	0	0	
15	0	0	0	0	515	505	0	0	
0	0	0	0	0	523	506	0	0	
1	0	0	0	0	518	507	0	0	
2	0	0	0	0	513	508	0	0	
3	0	0	0	0	510	507	0	0	
4	0	0	0	0	512	507	0	0	
5	0	0	0	0	510	510	0	0	
6	0	0	0	0	516	510	0	0	
7	0	0	0	0	510	510	0	0	
8	0	0	0	0	508	512	0	0	
9	0	0	0	0	507	509	0	0	
10	0	0	0	0	508	510	0	0	
11	0	0	0	0	504	508	0	0	
12	0	0	0	0	508	509	0	0	
13	0	0	0	0	517	504	0	0	
14	0	0	0	0	512	507	0	0	
15	0	0	0	0	509	507	0	0	
0	0	0	0	0	513	507	0	0	
1	0	0	0	0	518	507	0	0	
2	0	0	0	0	512	507	0	0	
3	0	0	0	0	511	506	0	0	
4	0	0	0	0	505	505	0	0	
5	0	0	0	0	511	505	0	0	
6	0	0	0	0	509	506	0	0	
7	0	0	0	0	510	510	0	0	
8	0	0	0	0	509	510	0	0	
9	0	0	0	0	510	511	0	0	
10	0	0	0	0	511	510	0	0	
11	0	0	0	0	511	508	0	0	
12	0	0	0	0	516	509	0	0	
13	0	0	0	0	521	511	0	0	
14	0	0	0	0	513	512	0	0	
15	0	0	0	0	508	509	0	0	
0	0	0	0	0	511	508	0	0	
1	0	0	0	0	510	506	0	0	
2	0	0	0	0	505	508	0	0	
3	0	0	0	0	504	507	0	0	
4	0	0	0	0	515	505	0	0	
5	0	0	0	0	515	507	0	0	
6	0	0	0	0	513	508	0	0	
7	0	0	0	0	511	507	0	0	
8	0	0	0	0	513	508	0	0	
9	0	0	0	0	512	507	0	0	
10	0	0	0	0	515	506	0	0	
11	0	0	0	0	516	505	0	0	
12	0	0	0	0	515	504	0	0	
13	0	0	0	0	508	511	0	0	
14	0	0	0	0	508	511	0	0	
15	0	0	0	0	507	511	0	0	
0	0	0	0	0	512	511	0	0	
1	0	0	0	0	512	510	0	0	
2	0	0	0	0	508	508	0	0	
3	0	0	0	0	494	508	0	0	
4	0	0	0	0	504	507	0	0	
5	0	0	0	0	513	505	0	0	
6	0	0	0	0	509	505	0	0	
7	0	0	0	0	516	510	0	0	
8	0	0	0	0	518	507	0	0	
9	0	0	0	0	517	508	0	0	
10	0	0	0	0	521	506	0	0	
11	0	0	0	0	515	506	0	0	
12	0	0	0	0	516	503	0	0	
13	0	0	0	0	513	503	0	0	
14	0	0	0	0	510	507	0	0	
15	0	0	0	0	510	512	0	0	
0	0	0	0	0	508	509	0	0	
1	0	0	0	0	504	510	0	0	
2	0	0	0	0	504	510	0	0	
3	0	0	0	0	507	508	0	0	
4	0	0	0	0	508	509	0	0	
5	0	0	0	0	508	510	0	0	
6	0	0	0	0	511	510	0	0	
7	0	0	0	0	509	512	0	0	
8	0	0	0	0	506	508	0	0	
9	0	0	0	0	508	508	0	0	
10	0	0	0	0	512	507	0	0	
11	0	0	0	0	515	506	0	0	
12	0	0	0	0	513	508	0	0	
13	0	0	0	0	511	507	0	0	
14	0	0	0	0	522	506	0	0	
15	0	0	0	0	517	503	0	0	
0	0	0	0	0	502	508	0	0	
1	0	0	0	0	507	506	0	0	
2	0	0	0	0	511	507	0	0	
3	0	0	0	0	509	508	0	0	
4	0	0	0	0	514	508	0	0	
5	0	0	0	0	511	508	0	0	
6	0	0	0	0	508	510	0	0	
7	0	0	0	0	511	508	0	0	
8	0	0	0	0	511	510	0	0	
9	0	0	0	0	510	510	0	0	
10	0	0	0	0	503	510	0	0	
11	0	0	0	0	509	510	0	0	
12	0	0	0	0	507	508	0	0	
13	0	0	0	0	513	507	0	0	
14	0	0	0	0	511	508	0	0	
15	0	0	0	0	519	506	0	0	
0	0	0	0	0	522	504	0	0	
1	0	0	0	0	516	506	0	0	
2	0	0	0	0	516	508	0	0	
3	0	0	0	0	518	506	0	0	
4	0	0	0	0	515	504	0	0	
5	0	0	0	0	504	506	0	0	
6	0	0	0	0	504	508	0	0	
7	0	0	0	0	511	509	0	0	
8	0	0	0	0	510	508	0	0	
9	0	0	0	0	507	511	0	0	
10	0	0	0	0	507	508	0	0	
11	0	0	0	0	506	508	0	0	
12	0	0	0	0	501	510	0	0	
13	0	0	0	0	504	509	0	0	
14	0	0	0	0	513	510	0	0	
15	0	0	0	0	505	510	0	0	
0	0	0	0	0	507	509	0	0	
1	0	0	0	0	513	505	0	0	
2	0	0	0	0	516	507	0	0	
3	0	0	0	0	516	507	0	0	
4	0	0	0	0	515	507	0	0	
5	0	0	0	0	513	506	0	0	
6	0	0	0	0	512	507	0	0	
7	0	0	0	0	513	506	0	0	
8	0	0	0	0	514	505	0	0	
9	0	0	0	0	513	505	0	0	
10	0	0	0	0	512	505	0	0	
11	0	0	0	0	510	508	0	0	
12	0	0	0	0	512	509	0	0	
13	0	0	0	0	511	512	0	0	
14	0	0	0	0	507	511	0	0	
15	0	0	0	0	506	508	0	0	
0	0	0	0	0	507	509	0	0	
1	0	0	0	0	509	508	0	0	
2	0	0	0	0	510	510	0	0	
3	0	0	0	0	510	511	0	0	
4	0	0	0	0	511	510	0	0	
5	0	0	0	0	510	508	0	0	
6	0	0	0	0	514	510	0	0	
7	0	0	0	0	512	509	0	0	
8	0	0	0	0	520	505	0	0	
9	0	0	0	0	521	507	0	0	
10	0	0	0	0	511	508	0	0	
11	0	0	0	0	504	505	0	0	
12	0	0	0	0	503	506	0	0	
13	0	0	0	0	499	505	0	0	
14	0	0	0	0	513	507	0	0	
15	0	0	0	0	514	507	0	0	
0	0	0	0	0	512	510	0	0	
1	0	0	0	0	506	510	0	0	
2	0	0	0	0	499	509	0	0	
3	0	0	0	0	502	508	0	0	
4	0	0	0	0	510	508	0	0	
5	0	0	0	0	515	510	0	0	
6	0	0	0	0	516	511	0	0	
7	0	0	0	0	522	513	0	0	
8	0	0	0	0	519	510	0	0	
9	0	0	0	0	509	506	0	0	
10	0	0	0	0	506	507	0	0	
11	0	0	0	0	518	505	0	0	
12	0	0	0	0	515	505	0	0	
13	0	0	0	0	515	505	0	0	
14	0	0	0	0	516	505	0	0	
15	0	0	0	0	511	508	0	0	
0	0	0	0	0	510	508	0	0	
1	0	0	0	0	515	507	0	0	
2	0	0	0	0	515	508	0	0	
3	0	0	0	0	509	508	0	0	
4	0	0	0	0	510	509	0	0	
5	0	0	0	0	516	509	0	0	
6	0	0	0	0	511	510	0	0	
7	0	0	0	0	501	507	0	0	
8	0	0	0	0	501	510	0	0	
9	0	0	0	0	503	510	0	0	
10	0	0	0	0	504	511	0	0	
11	0	0	0	0	505	510	0	0	
12	0	0	0	0	513	509	0	0	
13	0	0	0	0	517	508	0	0	
14	0	0	0	0	521	507	0	0	
15	0	0	0	0	518	508	0	0	
0	0	0	0	0	513	507	0	0	
1	0	0	0	0	511	506	0	0	
2	0	0	0	0	509	505	0	0	
3	0	0	0	0	508	506	0	0	
4	0	0	0	0	515	504	0	0	
5	0	0	0	0	516	504	0	0	
6	0	0	0	0	509	505	0	0	
7	0	0	0	0	509	510	0	0	
8	0	0	0	0	507	510	0	0	
9	0	0	0	0	509	511	0	0	
10	0	0	0	0	515	511	0	0	
11	0	0	0	0	506	509	0	0	
12	0	0	0	0	500	510	0	0	
13	0	0	0	0	510	508	0	0	
14	0	0	0	0	507	508	0	0	
15	0	0	0	0	508	509	0	0	
0	0	0	0	0	509	507	0	0	
1	0	0	0	0	507	508	0	0	
2	0	0	0	0	513	509	0	0	
3	0	0	0	0	514	507	0	0	
4	0	0	0	0	511	506	0	0	
5	0	0	0	0	518	505	0	0	
6	0	0	0	0	520	506	0	0	
7	0	0	0	0	516	507	0	0	
8	0	0	0	0	521	508	0	0	
9	0	0	0	0	513	506	0	0	
10	0	0	0	0	514	510	0	0	
11	0	0	0	0	517	507	0	0	
12	0	0	0	0	503	510	0	0	
13	0	0	0	0	498	513	0	0	
14	0	0	0	0	503	509	0	0	
15	0	0	0	0	502	510	0	0	
0	0	0	0	0	505	511	0	0	
1	0	0	0	0	510	510	0	0	
2	0	0	0	0	511	510	0	0	
3	0	0	0	0	507	510	0	0	
4	0	0	0	0	511	508	0	0	
5	0	0	0	0	515	508	0	0	
6	0	0	0	0	510	505	0	0	
7	0	0	0	0	514	505	0	0	
8	0	0	0	0	517	506	0	0	
9	0	0	0	0	515	506	0	0	
10	0	0	0	0	515	505	0	0	
11	0	0	0	0	512	506	0	0	
12	0	0	0	0	518	505	0	0	
13	0	0	0	0	515	504	0	0	
14	0	0	0	0	513	506	0	0	
15	0	0	0	0	514	510	0	0	
0	0	0	0	0	509	511	0	0	
1	0	0	0	0	507	510	0	0	
2	0	0	0	0	507	509	0	0	
3	0	0	0	0	504	510	0	0	
4	0	0	0	0	504	511	0	0	
5	0	0	0	0	505	510	0	0	
6	0	0	0	0	509	510	0	0	
7	0	0	0	0	512	508	0	0	
8	0	0	0	0	510	508	0	0	
9	0	0	0	0	510	508	0	0	
10	0	0	0	0	511	507	0	0	
11	0	0	0	0	511	506	0	0	
12	0	0	0	0	512	507	0	0	
13	0	0	0	0	513	508	0	0	
14	0	0	0	0	517	508	0	0	
15	0	0	0	0	513	506	0	0	
0	0	0	0	0	518	507	0	0	
1	0	0	0	0	514	507	0	0	
2	0	0	0	0	506	505	0	0	
3	0	0	0	0	516	506	0	0	
4	0	0	0	0	520	507	0	0	
5	0	0	0	0	515	511	0	0	
6	0	0	0	0	508	511	0	0	
7	0	0	0	0	504	510	0	0	
8	0	0	0	0	508	508	0	0	
9	0	0	0	0	512	509	0	0	
10	0	0	0	0	505	510	0	0	
11	0	0	0	0	501	513	0	0	
12	0	0	0	0	508	508	0	0	
13	0	0	0	0	514	508	0	0	
14	0	0	0	0	513	505	0	0	
15	0	0	0	0	516	506	0	0	
0	0	0	0	0	513	505	0	0	
1	0	0	0	0	517	507	0	0	
2	0	0	0	0	516	506	0	0	
3	0	0	0	0	513	506	0	0	
4	0	0	0	0	508	505	0	0	
5	0	0	0	0	506	506	0	0	
6	0	0	0	0	508	509	0	0	
7	0	0	0	0	511	507	0	0	
8	0	0	0	0	518	508	0	0	
9	0	0	0	0	514	511	0	0	
10	0	0	0	0	514	509	0	0	
11	0	0	0	0	511	511	0	0	
12	0	0	0	0	516	509	0	0	
13	0	0	0	0	513	510	0	0	
14	0	0	0	0	492	511	0	0	
15	0	0	0	0	504	511	0	0	
0	0	0	0	0	505	512	0	0	
1	0	0	0	0	508	508	0	0	
2	0	0	0	0	507	508	0	0	
3	0	0	0	0	514	504	0	0	
4	0	0	0	0	513	504	0	0	
5	0	0	0	0	514	505	0	0	
6	0	0	0	0	510	509	0	0	
7	0	0	0	0	512	505	0	0	
8	0	0	0	0	513	505	0	0	
9	0	0	0	0	514	505	0	0	
10	0	0	0	0	516	507	0	0	
11	0	0	0	0	512	508	0	0	
12	0	0	0	0	514	508	0	0	
13	0	0	0	0	513	509	0	0	
14	0	0	0	0	507	511	0	0	
15	0	0	0	0	508	510	0	0	
0	0	0	0	0	513	512	0	0	
1	0	0	0	0	517	513	0	0	
2	0	0	0	0	514	510	0	0	
3	0	0	0	0	507	508	0	0	
4	0	0	0	0	504	508	0	0	
5	0	0	0	0	507	505	0	0	
6	0	0	0	0	512	507	0	0	
7	0	0	0	0	512	508	0	0	
8	0	0	0	0	509	507	0	0	
9	0	0	0	0	510	504	0	0	
10	0	0	0	0	514	505	0	0	
11	0	0	0	0	519	505	0	0	
12	0	0	0	0	516	505	0	0	
13	0	0	0	0	515	508	0	0	
14	0	0	0	0	513	510	0	0	
15	0	0	0	0	511	510	0	0	
0	0	0	0	0	505	509	0	0	
1	0	0	0	0	507	510	0	0	
2	0	0	0	0	504	511	0	0	
3	0	0	0	0	511	509	0	0	
4	0	0	0	0	512	507	0	0	
5	0	0	0	0	508	511	0	0	
6	0	0	0	0	501	515	0	0	
7	0	0	0	0	500	514	0	0	
8	0	0	0	0	506	512	0	0	
9	0	0	0	0	507	511	0	0	
10	0	0	0	0	508	508	0	0	
11	0	0	0	0	514	503	0	0	
12	0	0	0	0	517	504	0	0	
13	0	0	0	0	525	503	0	0	
14	0	0	0	0	526	501	0	0	
15	0	0	0	0	525	497	0	0	
0	0	0	0	0	521	499	0	0	
1	0	0	0	0	519	499	0	0	
2	0	0	0	0	514	506	0	0	
3	0	0	0	0	516	510	0	0	
4	0	0	0	0	515	511	0	0	
5	0	0	0	0	509	513	0	0	
6	0	0	0	0	506	514	0	0	
7	0	0	0	0	509	512	0	0	
8	0	0	0	0	500	513	0	0	
9	0	0	0	0	499	511	0	0	
10	0	0	0	0	502	511	0	0	
11	0	0	0	0	505	511	0	0	
12	0	0	0	0	505	511	0	0	
13	0	0	0	0	507	508	0	0	
14	0	0	0	0	505	508	0	0	
15	0	0	0	0	516	509	0	0	
0	0	0	0	0	520	508	0	0	
1	0	0	0	0	519	509	0	0	
2	0	0	0	0	518	508	0	0	
3	0	0	0	0	513	505	0	0	
4	0	0	0	0	510	505	0	0	
5	0	0	0	0	506	507	0	0	
6	0	0	0	0	507	507	0	0	
7	0	0	0	0	513	503	0	0	
8	0	0	0	0	514	505	0	0	
9	0	0	0	0	511	507	0	0	
10	0	0	0	0	505	510	0	0	
11	0	0	0	0	513	507	0	0	
12	0	0	0	0	505	508	0	0	
13	0	0	0	0	497	512	0	0	
14	0	0	0	0	503	507	0	0	
15	0	0	0	0	507	512	0	0	
0	0	0	0	0	502	510	0	0	
1	0	0	0	0	504	509	0	0	
2	0	0	0	0	496	509	0	0	
3	0	0	0	0	515	505	0	0	
4	0	0	0	0	532	508	0	0	
5	0	0	0	0	547	508	0	0	
6	0	0	0	0	552	507	0	0	
7	0	0	0	0	530	509	0	0	
8	0	0	0	0	511	504	0	0	
9	0	0	0	0	500	504	0	0	
10	0	0	0	0	504	503	0	0	
11	0	0	0	0	502	507	0	0	
12	0	0	0	0	501	509	0	0	
13	0	0	0	0	502	511	0	0	
14	0	0	0	0	499	511	0	0	
15	0	0	0	0	510	511	0	0	
0	0	0	0	0	505	510	0	0	
1	0	0	0	0	506	514	0	0	
2	0	0	0	0	504	515	0	0	
3	0	0	0	0	503	512	0	0	
4	0	0	0	0	505	507	0	0	
5	0	0	0	0	506	507	0	0	
6	0	0	0	0	513	510	0	0	
7	0	0	0	0	515	511	0	0	
8	0	0	0	0	518	510	0	0	
9	0	0	0	0	514	509	0	0	
10	0	0	0	0	518	507	0	0	
11	0	0	0	0	511	513	0	0	
12	0	0	0	0	510	509	0	0	
13	0	0	0	0	508	504	0	0	
14	0	0	0	0	505	503	0	0	
15	0	0	0	0	503	502	0	0	
0	0	0	0	0	500	500	0	0	
1	0	0	0	0	512	501	0	0	
2	0	0	0	0	526	499	0	0	
3	0	0	0	0	529	500	0	0	
4	0	0	0	0	520	504	0	0	
5	0	0	0	0	511	507	0	0	
6	0	0	0	0	495	513	0	0	
7	0	0	0	0	492	514	0	0	
8	0	0	0	0	500	512	0	0	
9	0	0	0	0	503	512	0	0	
10	0	0	0	0	507	510	0	0	
11	0	0	0	0	518	508	0	0	
12	0	0	0	0	549	506	0	0	
13	0	0	0	0	544	502	0	0	
14	0	0	0	0	525	508	0	0	
15	0	0	0	0	511	501	0	0	
0	0	0	0	0	517	502	0	0	
1	0	0	0	0	519	507	0	0	
2	0	0	0	0	515	515	0	0	
3	0	0	0	0	513	521	3	0	
4	0	0	0	0	502	519	4	0	
5	0	0	0	0	501	518	4	0	
6	0	0	0	0	503	511	7	0	
7	0	0	0	0	499	500	7	0	
8	0	0	0	0	500	494	8	0	
9	0	0	0	0	503	502	11	0	
10	0	0	0	0	499	505	14	0	
11	0	0	0	0	495	510	15	0	
12	0	0	0	0	501	507	17	0	
13	0	0	0	0	505	507	19	0	
14	0	0	0	0	504	512	23	0	
15	0	0	0	0	500	513	24	0	
0	0	0	0	0	503	506	24	0	
1	0	0	0	0	499	514	24	0	
2	0	0	0	0	510	513	29	0	
3	0	0	0	0	511	516	31	0	
4	0	0	0	0	521	519	34	0	
5	0	0	0	0	527	521	35	0	
6	0	0	0	0	526	520	38	0	
7	0	0	0	0	528	509	40	0	
8	0	0	0	0	514	501	44	0	
9	0	0	0	0	523	494	48	0	
10	0	0	0	0	535	493	51	0	
11	0	0	0	0	530	495	53	0	
12	0	0	0	0	513	485	57	0	
13	0	0	0	0	501	480	59	0	
14	0	0	0	0	501	495	62	0	
15	0	0	0	0	491	506	64	0	
0	0	0	0	0	480	516	62	0	
1	0	0	0	0	479	529	63	0	
2	0	0	0	0	468	536	64	0	
3	0	0	0	0	490	525	67	0	
4	0	0	0	0	496	510	68	0	
5	0	0	0	0	508	510	71	0	
6	0	0	0	0	536	493	72	0	
7	0	0	0	0	551	496	72	0	
8	0	0	0	0	545	508	73	0	
9	0	0	0	0	536	509	81	0	
10	0	0	0	0	532	522	83	0	
11	0	0	0	0	535	555	89	0	
12	0	0	0	0	519	529	95	0	
13	0	0	0	0	506	495	99	0	
14	0	0	0	0	477	492	105	0	
15	0	0	0	0	433	498	107	0	
0	0	0	0	0	419	515	111	0	
1	0	0	0	0	456	512	114	0	
2	0	0	0	0	488	513	120	0	
3	0	0	0	0	495	494	124	0	
4	0	0	0	0	497	510	131	0	
5	0	0	0	0	632	526	134	0	
6	0	0	0	0	709	536	142	0	
7	0	0	0	0	688	513	146	0	
8	0	0	0	0	582	507	156	0	
9	0	0	0	0	489	497	153	0	
10	0	0	0	0	464	474	155	1	
11	0	0	0	0	455	453	159	3	
12	0	0	0	0	462	443	163	1	
13	0	0	0	0	482	482	166	39	
14	0	0	0	0	499	555	171	43	
15	0	0	0	0	511	592	185	73	
0	0	0	0	0	481	652	188	72	
1	0	0	0	0	453	628	192	69	
2	0	0	0	0	449	550	198	78	
3	0	0	0	0	465	469	205	74	
4	0	0	0	0	491	428	209	78	
5	0	0	0	0	477	417	213	91	
6	0	0	0	0	466	444	221	94	
7	0	0	0	0	498	505	223	98	
8	0	0	0	0	547	527	226	100	
9	0	0	0	0	524	551	228	98	
10	0	0	0	0	493	491	230	102	
11	0	0	0	0	609	424	236	98	
12	0	0	0	0	628	447	240	96	
13	0	0	0	0	541	555	238	104	
14	0	0	0	0	401	548	242	104	
15	0	0	0	0	351	507	247	102	
0	0	0	0	0	488	535	255	101	
1	0	0	0	0	552	529	258	104	
2	0	0	0	0	530	479	266	107	
3	0	0	0	0	600	489	268	101	
4	0	0	0	0	683	382	273	103	
5	0	0	0	0	632	287	278	106	
6	0	0	0	0	514	345	283	112	
7	0	0	0	0	460	437	288	119	
8	0	0	0	0	475	574	292	119	
9	0	0	0	0	505	758	298	123	
10	0	0	0	0	517	748	307	123	
11	0	0	0	0	510	646	312	122	
12	0	0	0	0	493	536	326	135	
13	0	0	0	0	433	450	332	138	
14	0	0	0	0	452	371	337	128	
15	0	0	0	0	472	353	341	127	
0	0	0	0	0	477	342	344	137	
1	0	0	0	0	494	486	350	138	
2	0	0	0	0	526	666	351	139	
3	0	0	0	0	546	755	354	139	
4	0	0	0	0	529	698	359	135	
5	0	0	0	0	463	605	362	139	
6	0	0	0	0	464	542	369	138	
7	0	0	0	0	515	430	373	135	
8	0	0	0	0	450	335	376	131	
9	0	0	0	0	399	383	380	119	
10	0	0	0	0	492	317	382	128	
11	0	0	0	0	571	296	388	132	
12	0	0	0	0	557	428	393	135	
13	0	0	0	0	543	569	402	147	
14	0	0	0	0	606	600	405	151	
15	0	0	0	0	621	610	411	158	
0	0	0	0	0	526	697	415	167	
1	0	0	0	0	467	669	418	171	
2	0	0	0	0	467	567	423	172	
3	0	0	0	0	472	458	428	177	
4	0	0	0	0	503	448	433	193	
5	0	0	0	0	510	486	441	205	
6	0	0	0	0	475	604	446	208	
7	0	0	0	0	443	724	460	231	
8	0	0	0	0	503	637	463	241	
9	0	0	0	0	483	513	467	263	
10	0	0	0	0	527	552	475	272	
11	0	0	0	0	622	458	481	287	
12	0	0	0	0	755	380	483	291	
13	0	0	0	0	753	359	488	308	
14	0	0	0	0	627	349	494	326	
15	0	0	0	0	490	306	497	342	
0	0	0	0	0	403	355	499	352	
1	0	0	0	0	435	384	504	349	
2	0	0	0	0	452	455	506	362	
3	0	0	0	0	450	519	508	366	
4	0	0	0	0	429	543	515	371	
5	0	0	0	0	463	562	518	386	
6	0	0	0	0	472	578	521	390	
7	0	0	0	0	396	692	524	394	
8	0	0	0	0	426	665	527	390	
9	0	0	0	0	497	611	531	400	
10	0	0	0	0	525	648	531	408	
11	0	0	0	0	511	626	531	420	
12	0	0	0	0	542	450	533	435	
13	0	0	0	0	586	386	537	440	
14	0	0	0	0	577	366	542	440	
15	0	0	0	0	480	287	543	448	
0	0	0	0	0	432	382	545	457	
1	0	0	0	0	446	550	547	457	
2	0	0	0	0	478	576	551	465	
3	0	0	0	0	483	517	552	465	
4	0	0	0	0	629	572	556	472	
5	0	0	0	0	639	759	559	478	
6	0	0	0	0	594	729	561	483	
7	0	0	0	0	508	555	564	491	
8	0	0	0	0	435	455	568	494	
9	0	0	0	0	457	323	571	496	
10	0	0	0	0	325	211	572	499	
11	0	0	0	0	294	404	574	497	
12	0	0	0	0	392	496	575	500	
13	0	0	0	0	548	529	575	511	
14	0	0	0	0	648	611	578	510	
15	0	0	0	0	801	777	579	510	
0	0	0	0	0	816	639	579	515	
1	0	0	0	0	642	450	580	515	
2	0	0	0	0	487	331	584	518	
3	0	0	0	0	427	368	585	520	
4	0	0	0	0	457	514	587	523	
5	0	0	0	0	451	556	589	523	
6	0	0	0	0	472	509	591	523	
7	0	0	0	0	471	486	591	524	
8	0	0	0	0	537	422	595	528	
9	0	0	0	0	696	451	596	527	
10	0	0	0	0	659	473	598	527	
11	0	0	0	0	540	519	600	533	
12	0	0	0	0	444	603	603	534	
13	0	0	0	0	382	601	603	539	
14	0	0	0	0	364	543	603	543	
15	0	0	0	0	407	463	604	548	
0	0	0	0	0	440	545	606	553	
1	0	0	0	0	500	527	607	551	
2	0	0	0	0	534	492	609	550	
3	0	0	0	0	611	529	611	556	
4	0	0	0	0	614	667	613	556	
5	0	0	0	0	595	593	615	559	
6	0	0	0	0	561	523	614	558	
7	0	0	0	0	504	434	615	563	
8	0	0	0	0	447	332	615	564	
9	0	0	0	0	415	358	615	564	
10	0	0	0	0	423	358	615	566	
11	0	0	0	0	400	485	614	568	
12	0	0	0	0	468	587	615	568	
13	0	0	0	0	521	621	615	571	
14	0	0	0	0	545	550	615	572	
15	0	0	0	0	534	519	615	577	
0	0	0	0	0	557	487	614	576	
1	0	0	0	0	549	477	615	577	
2	0	0	0	0	483	562	615	579	
3	0	0	0	0	443	566	615	578	
4	0	0	0	0	439	531	615	575	
5	0	0	0	0	504	515	614	580	
6	0	0	0	0	608	463	615	583	
7	0	0	0	0	686	444	614	584	
8	0	0	0	0	636	521	615	584	
9	0	0	0	0	550	553	615	586	
10	0	0	0	0	536	540	614	588	
11	0	0	0	0	485	517	615	588	
12	0	0	0	0	437	488	615	589	
13	0	0	0	0	380	573	615	588	
14	0	0	0	0	399	543	615	587	
15	0	0	0	0	422	463	614	593	
0	0	0	0	0	476	423	615	597	
1	0	0	0	0	549	400	615	599	
2	0	0	0	0	620	458	615	601	
3	0	0	0	0	587	529	615	603	
4	0	0	0	0	584	579	614	604	
5	0	0	0	0	555	596	615	603	
6	0	0	0	0	529	578	615	604	
7	0	0	0	0	488	504	615	604	
8	0	0	0	0	438	472	615	605	
9	0	0	0	0	427	504	614	607	
10	0	0	0	0	468	497	615	608	
11	0	0	0	0	491	584	615	608	
12	0	0	0	0	484	552	615	609	
13	0	0	0	0	463	458	615	609	
14	0	0	0	0	404	464	614	611	
15	0	0	0	0	432	410	615	611	
0	0	0	0	0	469	387	615	611	
1	0	0	0	0	550	487	615	611	
2	0	0	0	0	623	565	615	611	
3	0	0	0	0	712	562	615	608	
4	0	0	0	0	786	575	615	609	
5	0	0	0	0	609	536	615	611	
6	0	0	0	0	471	500	615	611	
7	0	0	0	0	398	518	615	615	
8	0	0	0	0	400	470	614	615	
9	0	0	0	0	414	400	615	615	
10	0	0	0	0	406	465	615	615	
11	0	0	0	0	500	469	615	615	
12	0	0	0	0	578	566	615	615	
13	0	0	0	0	588	524	615	615	
14	0	0	0	0	583	515	615	615	
15	0	0	0	0	571	565	615	615	
0	0	0	0	0	520	560	615	615	
1	0	0	0	0	479	485	615	615	
2	0	0	0	0	467	482	615	615	
3	0	0	0	0	462	449	615	615	
4	0	0	0	0	428	499	615	615	
5	0	0	0	0	506	563	615	615	
6	0	0	0	0	501	564	615	615	
7	0	0	0	0	532	593	615	615	
8	0	0	0	0	569	689	615	615	
9	0	0	0	0	482	602	615	615	
10	0	0	0	0	554	516	615	615	
11	0	0	0	0	588	337	615	615	
12	0	0	0	0	583	197	614	615	
13	0	0	0	0	445	392	615	615	
14	0	0	0	0	395	539	615	615	
15	0	0	0	0	406	561	615	615	
0	0	0	0	0	427	572	615	615	
1	0	0	0	0	515	517	615	615	
2	0	0	0	0	710	506	615	615	
3	0	0	0	0	712	500	615	615	
4	0	0	0	0	562	521	615	615	
5	0	0	0	0	457	475	615	615	
6	0	0	0	0	434	506	615	615	
7	0	0	0	0	463	603	615	615	
8	0	0	0	0	463	596	615	615	
9	0	0	0	0	499	548	615	615	
10	0	0	0	0	545	496	615	615	
11	0	0	0	0	523	421	614	615	
12	0	0	0	0	492	454	615	615	
13	0	0	0	0	537	454	615	615	
14	0	0	0	0	510	517	615	615	
15	0	0	0	0	474	564	615	615	
0	0	0	0	0	434	495	614	615	
1	0	0	0	0	449	475	615	615	
2	0	0	0	0	504	504	615	615	
3	0	0	0	0	553	499	615	615	
4	0	0	0	0	634	471	615	615	
5	0	0	0	0	612	530	614	615	
6	0	0	0	0	503	617	615	615	
7	0	0	0	0	433	636	615	615	
8	0	0	0	0	423	620	615	615	
9	0	0	0	0	416	574	615	615	
10	0	0	0	0	502	437	615	615	
11	0	0	0	0	567	420	615	615	
12	0	0	0	0	620	430	615	615	
13	0	0	0	0	608	431	615	615	
14	0	0	0	0	534	406	615	615	
15	0	0	0	0	476	445	614	615	
0	0	0	0	0	484	481	615	615	
1	0	0	0	0	478	523	615	615	
2	0	0	0	0	485	547	615	615	
3	0	0	0	0	455	581	615	615	
4	0	0	0	0	433	674	614	615	
5	0	0	0	0	398	655	615	611	
6	0	0	0	0	402	534	615	612	
7	0	0	0	0	463	405	615	612	
8	0	0	0	0	520	350	615	612	
9	0	0	0	0	622	337	614	610	
10	0	0	0	0	616	467	615	609	
11	0	0	0	0	544	503	615	609	
12	0	0	0	0	620	564	615	609	
13	0	0	0	0	614	535	615	609	
14	0	0	0	0	509	500	614	609	
15	0	0	0	0	426	615	615	609	
0	0	0	0	0	491	519	615	608	
1	0	0	0	0	471	562	615	608	
2	0	0	0	0	584	627	615	607	
3	0	0	0	0	673	542	614	606	
4	0	0	0	0	520	477	615	605	
5	0	0	0	0	363	475	615	605	
6	0	0	0	0	374	551	615	605	
7	0	0	0	0	561	425	615	605	
8	0	0	0	0	605	385	614	605	
9	0	0	0	0	551	408	615	605	
10	0	0	0	0	565	491	614	606	
11	0	0	0	0	580	520	615	605	
12	0	0	0	0	509	618	615	612	
13	0	0	0	0	474	625	615	615	
14	0	0	0	0	476	587	615	615	
15	0	0	0	0	436	530	615	615	
0	0	0	0	0	442	427	615	615	
1	0	0	0	0	403	386	615	615	
2	0	0	0	0	357	393	615	615	
3	0	0	0	0	440	407	615	615	
4	0	0	0	0	547	557	615	615	
5	0	0	0	0	723	467	615	615	
6	0	0	0	0	787	516	615	615	
7	0	0	0	0	685	537	615	615	
8	0	0	0	0	514	529	615	615	
9	0	0	0	0	445	556	615	615	
10	0	0	0	0	444	481	615	615	
11	0	0	0	0	426	544	615	615	
12	0	0	0	0	394	606	615	615	
13	0	0	0	0	421	633	615	615	
14	0	0	0	0	414	617	615	615	
15	0	0	0	0	463	556	615	615	
0	0	0	0	0	540	408	615	615	
1	0	0	0	0	619	476	615	615	
2	0	0	0	0	700	451	615	615	
3	0	0	0	0	701	434	614	615	
4	0	0	0	0	587	436	615	615	
5	0	0	0	0	489	576	615	615	
6	0	0	0	0	445	563	615	615	
7	0	0	0	0	451	568	615	615	
8	0	0	0	0	448	498	615	615	
9	0	0	0	0	464	526	615	615	
10	0	0	0	0	444	538	615	615	
11	0	0	0	0	432	479	614	615	
12	0	0	0	0	465	446	615	615	
13	0	0	0	0	444	381	615	615	
14	0	0	0	0	478	453	615	615	
15	0	0	0	0	527	431	615	615	
0	0	0	0	0	537	483	614	615	
1	0	0	0	0	519	552	615	615	
2	0	0	0	0	499	579	615	615	
3	0	0	0	0	484	558	615	615	
4	0	0	0	0	538	517	615	615	
5	0	0	0	0	579	495	615	615	
6	0	0	0	0	627	494	615	615	
7	0	0	0	0	575	555	615	615	
8	0	0	0	0	527	591	615	615	
9	0	0	0	0	527	502	615	615	
10	0	0	0	0	496	484	614	615	
11	0	0	0	0	480	504	615	615	
12	0	0	0	0	467	591	615	615	
13	0	0	0	0	503	638	615	615	
14	0	0	0	0	525	483	615	615	
15	0	0	0	0	513	493	615	615	
0	0	0	0	0	491	425	615	615	
1	0	0	0	0	488	411	615	614	
2	0	0	0	0	444	379	615	613	
3	0	0	0	0	416	407	615	611	
4	0	0	0	0	452	496	614	611	
5	0	0	0	0	464	496	615	611	
6	0	0	0	0	512	545	615	610	
7	0	0	0	0	538	582	615	610	
8	0	0	0	0	405	579	615	611	
9	0	0	0	0	307	564	614	610	
10	0	0	0	0	345	564	615	604	
11	0	0	0	0	557	531	615	606	
12	0	0	0	0	832	496	615	604	
13	0	0	0	0	977	533	615	604	
14	0	0	0	0	841	590	615	604	
15	0	0	0	0	599	615	615	603	
0	0	0	0	0	446	520	615	604	
1	0	0	0	0	437	383	615	605	
2	0	0	0	0	431	316	615	606	
3	0	0	0	0	445	403	614	606	
4	0	0	0	0	499	487	615	607	
5	0	0	0	0	461	531	615	606	
6	0	0	0	0	340	564	615	606	
7	0	0	0	0	339	501	615	605	
8	0	0	0	0	403	489	614	605	
9	0	0	0	0	550	519	615	604	
10	0	0	0	0	657	483	615	605	
11	0	0	0	0	601	531	615	606	
12	0	0	0	0	573	542	615	605	
13	0	0	0	0	577	551	614	604	
14	0	0	0	0	550	563	615	604	
15	0	0	0	0	503	525	615	603	
0	0	0	0	0	465	536	615	603	
1	0	0	0	0	503	507	615	603	
2	0	0	0	0	462	479	614	601	
3	0	0	0	0	496	470	615	602	
4	0	0	0	0	550	501	615	601	
5	0	0	0	0	559	492	615	600	
6	0	0	0	0	463	518	615	599	
7	0	0	0	0	411	492	614	598	
8	0	0	0	0	414	513	615	598	
9	0	0	0	0	512	597	615	599	
10	0	0	0	0	559	611	615	600	
11	0	0	0	0	578	511	615	599	
12	0	0	0	0	533	454	614	599	
13	0	0	0	0	544	456	615	599	
14	0	0	0	0	544	459	615	600	
15	0	0	0	0	496	443	615	599	
0	0	0	0	0	467	510	615	600	
1	0	0	0	0	457	562	615	600	
2	0	0	0	0	487	527	615	601	
3	0	0	0	0	547	453	614	601	
4	0	0	0	0	557	556	615	601	
5	0	0	0	0	504	593	615	601	
6	0	0	0	0	500	526	615	601	
7	0	0	0	0	487	416	615	601	
8	0	0	0	0	490	427	614	601	
9	0	0	0	0	524	484	615	600	
10	0	0	0	0	490	521	615	600	
11	0	0	0	0	487	528	615	600	
12	0	0	0	0	484	449	615	598	
13	0	0	0	0	482	514	615	599	
14	0	0	0	0	491	523	615	598	
15	0	0	0	0	524	502	615	599	
0	0	0	0	0	524	538	615	599	
1	0	0	0	0	520	569	615	599	
2	0	0	0	0	538	575	615	599	
3	0	0	0	0	549	519	615	600	
4	0	0	0	0	555	509	615	600	
5	0	0	0	0	537	510	615	600	
6	0	0	0	0	534	411	615	600	
7	0	0	0	0	500	496	614	600	
8	0	0	0	0	469	530	615	601	
9	0	0	0	0	470	536	615	600	
10	0	0	0	0	451	435	615	601	
11	0	0	0	0	439	491	615	600	
12	0	0	0	0	494	589	614	600	
13	0	0	0	0	523	624	615	601	
14	0	0	0	0	542	533	615	601	
15	0	0	0	0	584	515	615	602	
0	0	0	0	0	544	431	615	601	
1	0	0	0	0	438	455	614	601	
2	0	0	0	0	392	460	615	601	
3	0	0	0	0	461	445	615	603	
4	0	0	0	0	569	472	614	602	
5	0	0	0	0	755	436	615	602	
6	0	0	0	0	674	416	615	601	
7	0	0	0	0	559	514	615	600	
8	0	0	0	0	473	542	615	600	
9	0	0	0	0	390	556	614	600	
10	0	0	0	0	349	618	615	600	
11	0	0	0	0	367	780	615	601	
12	0	0	0	0	427	663	615	601	
13	0	0	0	0	546	499	615	601	
14	0	0	0	0	630	312	614	600	
15	0	0	0	0	739	311	615	599	
0	0	0	0	0	620	389	615	600	
1	0	0	0	0	583	364	615	600	
2	0	0	0	0	507	490	615	600	
3	0	0	0	0	515	605	614	600	
4	0	0	0	0	468	585	615	600	
5	0	0	0	0	399	557	615	599	
6	0	0	0	0	408	532	615	600	
7	0	0	0	0	404	539	615	600	
8	0	0	0	0	447	550	614	600	
9	0	0	0	0	520	537	615	601	
10	0	0	0	0	599	524	615	601	
11	0	0	0	0	522	520	615	600	
12	0	0	0	0	382	527	615	601	
13	0	0	0	0	347	511	614	601	
14	0	0	0	0	509	473	615	601	
15	0	0	0	0	559	490	614	601	
0	0	0	0	0	647	507	615	601	
1	0	0	0	0	788	522	615	601	
2	0	0	0	0	662	515	614	600	
3	0	0	0	0	500	444	615	600	
4	0	0	0	0	503	479	615	601	
5	0	0	0	0	484	514	615	601	
6	0	0	0	0	481	522	615	600	
7	0	0	0	0	546	552	614	601	
8	0	0	0	0	505	591	615	601	
9	0	0	0	0	427	537	615	601	
10	0	0	0	0	435	522	615	601	
11	0	0	0	0	433	568	615	600	
12	0	0	0	0	438	560	614	600	
13	0	0	0	0	376	530	615	598	
14	0	0	0	0	409	352	615	597	
15	0	0	0	0	411	224	615	598	
0	0	0	0	0	492	451	615	598	
1	0	0	0	0	684	509	614	597	
2	0	0	0	0	756	529	615	598	
3	0	0	0	0	554	519	614	599	
4	0	0	0	0	512	566	615	599	
5	0	0	0	0	542	543	615	600	
6	0	0	0	0	618	502	614	600	
7	0	0	0	0	643	417	615	600	
8	0	0	0	0	568	486	615	601	
9	0	0	0	0	497	562	615	600	
10	0	0	0	0	470	556	615	600	
11	0	0	0	0	457	549	614	599	
12	0	0	0	0	456	644	615	599	
13	0	0	0	0	444	688	615	601	
14	0	0	0	0	457	596	615	599	
15	0	0	0	0	456	506	615	600	
0	0	0	0	0	456	335	614	598	
1	0	0	0	0	467	334	615	598	
2	0	0	0	0	528	383	614	596	
3	0	0	0	0	553	479	615	598	
4	0	0	0	0	503	505	615	599	
5	0	0	0	0	505	506	614	594	
6	0	0	0	0	488	551	615	595	
7	0	0	0	0	492	549	615	596	
8	0	0	0	0	526	545	615	595	
9	0	0	0	0	533	536	615	597	
10	0	0	0	0	528	512	614	596	
11	0	0	0	0	554	514	615	595	
12	0	0	0	0	528	495	615	597	
13	0	0	0	0	507	527	615	593	
14	0	0	0	0	492	540	615	595	
15	0	0	0	0	468	506	614	594	
0	0	0	0	0	485	456	615	595	
1	0	0	0	0	502	523	615	595	
2	0	0	0	0	543	509	614	595	
3	0	0	0	0	515	482	615	593	
4	0	0	0	0	495	498	614	592	
5	0	0	0	0	484	521	615	592	
6	0	0	0	0	479	527	615	593	
7	0	0	0	0	504	526	615	593	
8	0	0	0	0	559	519	615	593	
9	0	0	0	0	548	523	614	594	
10	0	0	0	0	552	466	615	593	
11	0	0	0	0	493	507	615	591	
12	0	0	0	0	498	504	615	594	
13	0	0	0	0	504	494	615	595	
14	0	0	0	0	574	502	614	593	
15	0	0	0	0	553	510	614	593	
0	0	0	0	0	548	534	615	594	
1	0	0	0	0	510	625	615	594	
2	0	0	0	0	449	597	615	594	
3	0	0	0	0	389	516	614	594	
4	0	0	0	0	387	464	615	595	
5	0	0	0	0	464	468	614	594	
6	0	0	0	0	571	410	615	594	
7	0	0	0	0	656	366	615	595	
8	0	0	0	0	648	483	614	597	
9	0	0	0	0	488	518	615	596	
10	0	0	0	0	386	489	614	596	
11	0	0	0	0	352	458	615	594	
12	0	0	0	0	374	509	615	591	
13	0	0	0	0	492	554	614	591	
14	0	0	0	0	630	547	615	588	
15	0	0	0	0	676	532	615	588	
0	0	0	0	0	697	549	615	588	
1	0	0	0	0	642	542	615	587	
2	0	0	0	0	542	541	614	585	
3	0	0	0	0	476	562	615	585	
4	0	0	0	0	436	535	615	576	
5	0	0	0	0	420	531	615	577	
6	0	0	0	0	472	503	615	576	
7	0	0	0	0	502	501	614	576	
8	0	0	0	0	569	432	615	575	
9	0	0	0	0	551	416	615	576	
10	0	0	0	0	577	465	615	575	
11	0	0	0	0	495	491	615	575	
12	0	0	0	0	405	500	614	574	
13	0	0	0	0	416	561	615	575	
14	0	0	0	0	426	580	615	574	
15	0	0	0	0	461	571	615	574	
0	0	0	0	0	630	422	615	572	
1	0	0	0	0	704	420	614	572	
2	0	0	0	0	579	537	615	572	
3	0	0	0	0	523	563	615	571	
4	0	0	0	0	503	572	615	571	
5	0	0	0	0	469	577	615	571	
6	0	0	0	0	466	525	614	570	
7	0	0	0	0	483	476	615	570	
8	0	0	0	0	507	428	614	571	
9	0	0	0	0	494	475	615	570	
10	0	0	0	0	482	464	615	570	
11	0	0	0	0	502	446	614	570	
12	0	0	0	0	499	537	615	570	
13	0	0	0	0	506	572	615	571	
14	0	0	0	0	503	542	615	570	
15	0	0	0	0	489	517	615	570	
0	0	0	0	0	480	453	614	570	
1	0	0	0	0	484	466	615	570	
2	0	0	0	0	486	515	615	570	
3	0	0	0	0	486	546	615	570	
4	0	0	0	0	479	566	615	571	
5	0	0	0	0	486	537	614	571	
6	0	0	0	0	524	526	615	571	
7	0	0	0	0	560	471	615	571	
8	0	0	0	0	593	443	615	570	
9	0	0	0	0	534	563	615	569	
10	0	0	0	0	487	605	614	569	
11	0	0	0	0	466	531	615	570	
12	0	0	0	0	471	470	615	570	
13	0	0	0	0	543	398	615	569	
14	0	0	0	0	654	380	615	571	
15	0	0	0	0	598	406	614	570	
0	0	0	0	0	533	477	615	570	
1	0	0	0	0	511	569	615	569	
2	0	0	0	0	484	622	615	569	
3	0	0	0	0	434	577	615	569	
4	0	0	0	0	439	522	614	569	
5	0	0	0	0	451	559	615	568	
6	0	0	0	0	467	511	615	569	
7	0	0	0	0	507	351	615	569	
8	0	0	0	0	548	486	615	569	
9	0	0	0	0	546	526	614	571	
10	0	0	0	0	495	524	615	571	
11	0	0	0	0	524	524	615	572	
12	0	0	0	0	694	520	615	572	
13	0	0	0	0	587	538	615	572	
14	0	0	0	0	507	521	614	572	
15	0	0	0	0	485	517	615	572	
0	0	0	0	0	437	520	614	572	
1	0	0	0	0	392	527	615	572	
2	0	0	0	0	416	512	615	573	
3	0	0	0	0	427	505	615	572	
4	0	0	0	0	482	513	615	573	
5	0	0	0	0	588	503	614	570	
6	0	0	0	0	570	514	615	571	
7	0	0	0	0	574	517	615	570	
8	0	0	0	0	545	514	615	571	
9	0	0	0	0	519	511	615	571	
10	0	0	0	0	490	518	614	570	
11	0	0	0	0	468	489	615	571	
12	0	0	0	0	475	505	615	571	
13	0	0	0	0	568	539	614	570	
14	0	0	0	0	624	522	615	570	
15	0	0	0	0	629	454	615	571	
0	0	0	0	0	565	453	614	571	
1	0	0	0	0	527	546	615	570	
2	0	0	0	0	512	507	614	572	
3	0	0	0	0	430	502	614	572	
4	0	0	0	0	333	502	615	572	
5	0	0	0	0	358	459	615	572	
6	0	0	0	0	388	449	615	571	
7	0	0	0	0	531	464	614	571	
8	0	0	0	0	696	513	615	569	
9	0	0	0	0	695	487	615	570	
10	0	0	0	0	581	522	615	569	
11	0	0	0	0	467	582	615	568	
12	0	0	0	0	338	584	614	568	
13	0	0	0	0	376	618	615	566	
14	0	0	0	0	432	570	615	566	
15	0	0	0	0	496	522	615	567	
0	0	0	0	0	719	400	614	568	
1	0	0	0	0	768	402	614	568	
2	0	0	0	0	615	432	615	567	
3	0	0	0	0	517	496	615	568	
4	0	0	0	0	496	564	615	568	
5	0	0	0	0	464	558	615	568	
6	0	0	0	0	461	562	615	568	
7	0	0	0	0	442	642	615	567	
8	0	0	0	0	463	611	615	568	
9	0	0	0	0	479	503	615	567	
10	0	0	0	0	483	255	615	568	
11	0	0	0	0	493	351	614	569	
12	0	0	0	0	515	438	615	569	
13	0	0	0	0	500	429	615	570	
14	0	0	0	0	481	494	615	569	
15	0	0	0	0	470	551	615	570	
0	0	0	0	0	486	546	614	571	
1	0	0	0	0	500	558	615	570	
2	0	0	0	0	519	600	615	569	
3	0	0	0	0	502	576	615	570	
4	0	0	0	0	487	532	615	566	
5	0	0	0	0	499	526	614	566	
6	0	0	0	0	498	569	615	564	
7	0	0	0	0	507	614	615	565	
8	0	0	0	0	535	551	615	566	
9	0	0	0	0	497	455	615	564	
10	0	0	0	0	535	428	614	565	
11	0	0	0	0	554	374	615	564	
12	0	0	0	0	604	484	615	565	
13	0	0	0	0	519	482	615	564	
14	0	0	0	0	508	469	615	564	
15	0	0	0	0	496	494	614	562	
0	0	0	0	0	470	486	615	563	
1	0	0	0	0	514	526	615	563	
2	0	0	0	0	576	534	615	563	
3	0	0	0	0	496	495	615	563	
4	0	0	0	0	444	520	614	563	
5	0	0	0	0	451	624	615	563	
6	0	0	0	0	492	641	615	562	
7	0	0	0	0	545	581	615	561	
8	0	0	0	0	646	455	615	559	
9	0	0	0	0	610	386	614	559	
10	0	0	0	0	535	411	615	560	
11	0	0	0	0	498	466	615	560	
12	0	0	0	0	436	524	615	562	
13	0	0	0	0	377	617	615	563	
14	0	0	0	0	328	625	614	563	
15	0	0	0	0	376	574	615	562	
0	0	0	0	0	527	465	615	563	
1	0	0	0	0	626	388	615	562	
2	0	0	0	0	624	351	615	562	
3	0	0	0	0	719	351	614	562	
4	0	0	0	0	658	475	615	561	
5	0	0	0	0	547	548	615	563	
6	0	0	0	0	475	557	615	563	
7	0	0	0	0	477	560	615	565	
8	0	0	0	0	468	559	614	564	
9	0	0	0	0	463	557	615	564	
10	0	0	0	0	466	545	615	564	
11	0	0	0	0	441	538	615	563	
12	0	0	0	0	434	517	615	562	
13	0	0	0	0	465	507	614	563	
14	0	0	0	0	518	507	615	561	
15	0	0	0	0	562	525	615	562	
0	0	0	0	0	578	537	615	562	
1	0	0	0	0	527	574	615	562	
2	0	0	0	0	479	583	614	561	
3	0	0	0	0	455	540	615	562	
4	0	0	0	0	506	487	614	561	
5	0	0	0	0	575	431	615	563	
6	0	0	0	0	549	431	615	563	
7	0	0	0	0	559	352	615	561	
8	0	0	0	0	622	384	615	562	
9	0	0	0	0	589	516	614	563	
10	0	0	0	0	510	571	615	562	
11	0	0	0	0	446	575	615	562	
12	0	0	0	0	387	619	615	562	
13	0	0	0	0	344	676	615	561	
14	0	0	0	0	367	602	614	561	
15	0	0	0	0	431	420	615	561	
0	0	0	0	0	561	410	615	562	
1	0	0	0	0	652	419	615	562	
2	0	0	0	0	733	377	615	561	
3	0	0	0	0	663	374	614	562	
4	0	0	0	0	521	480	615	562	
5	0	0	0	0	481	542	615	563	
6	0	0	0	0	491	565	615	562	
7	0	0	0	0	485	571	615	563	
8	0	0	0	0	483	567	615	563	
9	0	0	0	0	488	556	615	563	
10	0	0	0	0	473	538	615	564	
11	0	0	0	0	475	522	615	565	
12	0	0	0	0	474	512	615	567	
13	0	0	0	0	467	527	614	565	
14	0	0	0	0	473	586	615	566	
15	0	0	0	0	480	605	615	566	
0	0	0	0	0	491	509	614	566	
1	0	0	0	0	485	448	615	567	
2	0	0	0	0	513	418	614	568	
3	0	0	0	0	559	410	615	567	
4	0	0	0	0	488	480	615	568	
5	0	0	0	0	347	664	614	568	
6	0	0	0	0	280	743	615	568	
7	0	0	0	0	415	571	615	568	
8	0	0	0	0	602	360	615	569	
9	0	0	0	0	773	265	615	570	
10	0	0	0	0	825	305	614	569	
11	0	0	0	0	789	289	615	568	
12	0	0	0	0	604	460	615	570	
13	0	0	0	0	510	587	615	571	
14	0	0	0	0	431	599	615	569	
15	0	0	0	0	380	605	614	569	
0	0	0	0	0	358	590	615	569	
1	0	0	0	0	406	575	615	569	
2	0	0	0	0	493	575	615	571	
3	0	0	0	0	580	586	615	569	
4	0	0	0	0	601	527	614	571	
5	0	0	0	0	586	496	615	571	
6	0	0	0	0	547	463	615	571	
7	0	0	0	0	507	457	614	574	
8	0	0	0	0	450	495	615	575	
9	0	0	0	0	419	494	614	576	
10	0	0	0	0	417	522	615	577	
11	0	0	0	0	426	542	615	577	
12	0	0	0	0	473	543	615	578	
13	0	0	0	0	543	475	615	579	
14	0	0	0	0	542	467	614	580	
15	0	0	0	0	539	512	615	581	
0	0	0	0	0	545	509	615	581	
1	0	0	0	0	512	525	615	581	
2	0	0	0	0	445	496	615	580	
3	0	0	0	0	436	494	614	581	
4	0	0	0	0	480	507	615	581	
5	0	0	0	0	519	555	615	580	
6	0	0	0	0	513	581	615	580	
7	0	0	0	0	683	457	615	580	
8	0	0	0	0	627	443	614	581	
9	0	0	0	0	579	492	615	580	
10	0	0	0	0	529	477	615	580	
11	0	0	0	0	437	510	615	581	
12	0	0	0	0	444	522	615	581	
13	0	0	0	0	462	526	614	582	
14	0	0	0	0	488	517	615	581	
15	0	0	0	0	595	502	615	580	
0	0	0	0	0	576	510	615	582	
1	0	0	0	0	537	510	615	581	
2	0	0	0	0	543	516	614	582	
3	0	0	0	0	515	520	615	583	
4	0	0	0	0	472	526	615	583	
5	0	0	0	0	447	547	615	582	
6	0	0	0	0	428	568	615	582	
7	0	0	0	0	447	561	614	583	
8	0	0	0	0	448	536	615	583	
9	0	0	0	0	517	444	615	583	
10	0	0	0	0	524	455	615	583	
11	0	0	0	0	512	443	615	583	
12	0	0	0	0	550	423	614	583	
13	0	0	0	0	562	446	615	583	
14	0	0	0	0	518	489	615	583	
15	0	0	0	0	486	559	615	582	
0	0	0	0	0	413	587	615	583	
1	0	0	0	0	412	548	614	583	
2	0	0	0	0	511	507	615	583	
3	0	0	0	0	551	513	615	583	
4	0	0	0	0	603	540	615	583	
5	0	0	0	0	647	608	615	583	
6	0	0	0	0	585	568	614	583	
7	0	0	0	0	547	503	615	584	
8	0	0	0	0	502	422	615	583	
9	0	0	0	0	489	392	615	584	
10	0	0	0	0	495	547	615	584	
11	0	0	0	0	458	580	614	584	
12	0	0	0	0	461	575	615	583	
13	0	0	0	0	536	475	615	583	
14	0	0	0	0	572	308	615	582	
15	0	0	0	0	569	332	615	583	
0	0	0	0	0	530	413	614	583	
1	0	0	0	0	516	483	615	583	
2	0	0	0	0	474	542	615	583	
3	0	0	0	0	460	598	615	581	
4	0	0	0	0	495	576	615	582	
5	0	0	0	0	499	536	614	583	
6	0	0	0	0	514	526	615	583	
7	0	0	0	0	518	541	615	583	
8	0	0	0	0	497	567	615	583	
9	0	0	0	0	519	554	615	585	
10	0	0	0	0	528	516	614	585	
11	0	0	0	0	484	500	615	585	
12	0	0	0	0	472	505	615	586	
13	0	0	0	0	479	502	615	587	
14	0	0	0	0	480	499	615	588	
15	0	0	0	0	480	511	614	587	
0	0	0	0	0	501	509	615	588	
1	0	0	0	0	520	534	615	588	
2	0	0	0	0	556	520	615	587	
3	0	0	0	0	535	502	615	588	
4	0	0	0	0	520	493	614	589	
5	0	0	0	0	535	500	615	590	
6	0	0	0	0	540	502	615	593	
7	0	0	0	0	507	513	615	595	
8	0	0	0	0	491	518	615	595	
9	0	0	0	0	489	513	614	594	
10	0	0	0	0	510	504	615	595	
11	0	0	0	0	485	498	615	597	
12	0	0	0	0	515	483	615	597	
13	0	0	0	0	556	487	615	598	
14	0	0	0	0	531	480	614	600	
15	0	0	0	0	496	499	615	600	
0	0	0	0	0	494	529	615	598	
1	0	0	0	0	497	521	615	595	
2	0	0	0	0	472	519	615	594	
3	0	0	0	0	468	522	614	595	
4	0	0	0	0	471	512	615	595	
5	0	0	0	0	462	496	615	598	
6	0	0	0	0	489	497	615	598	
7	0	0	0	0	519	506	615	597	
8	0	0	0	0	508	515	614	595	
9	0	0	0	0	546	516	615	595	
10	0	0	0	0	642	510	615	592	
11	0	0	0	0	585	515	615	592	
12	0	0	0	0	601	506	615	593	
13	0	0	0	0	584	503	614	595	
14	0	0	0	0	534	512	614	594	
15	0	0	0	0	482	514	615	595	
0	0	0	0	0	473	517	615	595	
1	0	0	0	0	452	528	615	592	
2	0	0	0	0	443	547	614	592	
3	0	0	0	0	427	518	615	594	
4	0	0	0	0	487	512	615	595	
5	0	0	0	0	507	477	615	593	
6	0	0	0	0	525	443	615	593	
7	0	0	0	0	599	443	614	595	
8	0	0	0	0	618	473	614	595	
9	0	0	0	0	546	500	615	595	
10	0	0	0	0	518	545	615	595	
11	0	0	0	0	512	510	615	595	
12	0	0	0	0	484	521	614	595	
13	0	0	0	0	481	514	615	595	
14	0	0	0	0	476	519	615	596	
15	0	0	0	0	484	536	615	595	
0	0	0	0	0	496	532	615	596	
1	0	0	0	0	493	538	614	597	
2	0	0	0	0	481	534	615	597	
3	0	0	0	0	504	511	615	598	
4	0	0	0	0	511	499	615	597	
5	0	0	0	0	516	513	615	598	
6	0	0	0	0	536	512	614	598	
7	0	0	0	0	537	487	615	599	
8	0	0	0	0	507	452	615	598	
9	0	0	0	0	506	462	615	598	
10	0	0	0	0	491	513	615	598	
11	0	0	0	0	467	547	614	599	
12	0	0	0	0	458	540	615	600	
13	0	0	0	0	453	512	615	600	
14	0	0	0	0	492	501	615	600	
15	0	0	0	0	512	496	615	600	
0	0	0	0	0	568	505	614	599	
1	0	0	0	0	602	525	615	599	
2	0	0	0	0	575	527	615	601	
3	0	0	0	0	525	533	615	603	
4	0	0	0	0	503	535	615	604	
5	0	0	0	0	497	514	614	604	
6	0	0	0	0	492	511	615	604	
7	0	0	0	0	485	495	615	605	
8	0	0	0	0	493	495	615	605	
9	0	0	0	0	509	495	615	604	
10	0	0	0	0	539	438	614	604	
11	0	0	0	0	546	470	615	606	
12	0	0	0	0	540	496	615	606	
13	0	0	0	0	527	521	615	607	
14	0	0	0	0	519	513	615	608	
15	0	0	0	0	507	487	614	610	
0	0	0	0	0	483	456	615	609	
1	0	0	0	0	483	517	615	609	
2	0	0	0	0	499	527	615	609	
3	0	0	0	0	503	501	615	609	
4	0	0	0	0	500	520	614	610	
5	0	0	0	0	502	527	615	609	
6	0	0	0	0	500	526	615	611	
7	0	0	0	0	503	527	615	609	
8	0	0	0	0	507	522	615	609	
9	0	0	0	0	507	512	614	609	
10	0	0	0	0	518	516	615	611	
11	0	0	0	0	523	515	615	609	
12	0	0	0	0	515	510	615	610	
13	0	0	0	0	517	509	615	610	
14	0	0	0	0	522	510	614	611	
15	0	0	0	0	522	508	615	612	
0	0	0	0	0	518	501	615	612	
1	0	0	0	0	515	494	615	614	
2	0	0	0	0	508	502	615	614	
3	0	0	0	0	483	502	614	613	
4	0	0	0	0	492	506	615	614	
5	0	0	0	0	489	516	615	614	
6	0	0	0	0	483	515	615	613	
7	0	0	0	0	492	508	615	615	
8	0	0	0	0	513	511	615	615	
9	0	0	0	0	507	513	615	614	
10	0	0	0	0	529	509	615	615	
11	0	0	0	0	562	505	615	615	
12	0	0	0	0	546	506	615	614	
13	0	0	0	0	520	504	614	612	
14	0	0	0	0	505	505	615	612	
15	0	0	0	0	505	504	615	610	
0	0	0	0	0	501	505	615	609	
1	0	0	0	0	504	507	615	608	
2	0	0	0	0	518	522	614	608	
3	0	0	0	0	531	538	615	607	
4	0	0	0	0	534	534	615	608	
5	0	0	0	0	539	517	615	608	
6	0	0	0	0	538	506	615	607	
7	0	0	0	0	519	508	614	604	
8	0	0	0	0	485	511	615	604	
9	0	0	0	0	452	506	615	603	
10	0	0	0	0	492	486	615	602	
11	0	0	0	0	490	467	615	597	
12	0	0	0	0	468	473	614	594	
13	0	0	0	0	452	496	615	592	
14	0	0	0	0	463	507	615	590	
15	0	0	0	0	494	506	615	591	
0	0	0	0	0	508	502	615	591	
1	0	0	0	0	536	523	614	590	
2	0	0	0	0	604	536	615	589	
3	0	0	0	0	659	533	615	584	
4	0	0	0	0	624	524	615	582	
5	0	0	0	0	548	536	615	575	
6	0	0	0	0	474	530	614	575	
7	0	0	0	0	474	507	615	572	
8	0	0	0	0	523	495	615	568	
9	0	0	0	0	504	487	615	565	
10	0	0	0	0	511	482	615	560	
11	0	0	0	0	544	474	614	558	
12	0	0	0	0	522	492	615	555	
13	0	0	0	0	487	502	615	556	
14	0	0	0	0	473	492	615	553	
15	0	0	0	0	453	497	615	550	
0	0	0	0	0	452	512	614	545	
1	0	0	0	0	446	537	614	542	
2	0	0	0	0	442	527	613	540	
3	0	0	0	0	457	519	611	535	
4	0	0	0	0	502	512	609	533	
5	0	0	0	0	520	501	608	530	
6	0	0	0	0	513	511	607	524	
7	0	0	0	0	547	521	605	519	
8	0	0	0	0	568	516	604	512	
9	0	0	0	0	577	511	603	515	
10	0	0	0	0	572	514	600	503	
11	0	0	0	0	555	512	599	500	
12	0	0	0	0	543	507	596	497	
13	0	0	0	0	552	487	595	492	
14	0	0	0	0	577	483	595	488	
15	0	0	0	0	537	496	592	478	
0	0	0	0	0	491	511	591	478	
1	0	0	0	0	484	504	590	477	
2	0	0	0	0	490	505	587	473	
3	0	0	0	0	496	532	586	465	
4	0	0	0	0	491	533	586	463	
5	0	0	0	0	498	519	585	459	
6	0	0	0	0	512	505	583	454	
7	0	0	0	0	511	509	581	451	
8	0	0	0	0	464	516	579	448	
9	0	0	0	0	415	509	577	443	
10	0	0	0	0	481	508	574	437	
11	0	0	0	0	513	498	572	432	
12	0	0	0	0	530	483	570	432	
13	0	0	0	0	537	486	568	419	
14	0	0	0	0	517	496	564	406	
15	0	0	0	0	537	491	562	400	
0	0	0	0	0	532	493	560	395	
1	0	0	0	0	492	503	560	394	
2	0	0	0	0	487	508	559	391	
3	0	0	0	0	511	516	558	372	
4	0	0	0	0	523	518	557	369	
5	0	0	0	0	527	519	556	367	
6	0	0	0	0	513	518	556	364	
7	0	0	0	0	484	519	555	361	
8	0	0	0	0	461	526	553	351	
9	0	0	0	0	495	528	553	344	
10	0	0	0	0	515	519	551	332	
11	0	0	0	0	524	512	549	334	
12	0	0	0	0	535	507	548	313	
13	0	0	0	0	525	506	545	309	
14	0	0	0	0	531	504	540	309	
15	0	0	0	0	543	505	537	312	
0	0	0	0	0	511	506	537	310	
1	0	0	0	0	513	504	534	321	
2	0	0	0	0	521	503	534	326	
3	0	0	0	0	519	502	533	319	
4	0	0	0	0	515	507	532	321	
5	0	0	0	0	513	510	531	313	
6	0	0	0	0	509	510	531	316	
