# OpenSignals Text File Format. Version 1
# {"20:18:06:13:21:78": {"position": 0, "device": "bitalino_rev", "device name": "20:18:06:13:21:78", "device connection": "BTH20:18:06:13:21:78", "sampling rate": 1000, "resolution": [4, 1, 1, 1, 1, 10, 10, 10, 10], "firmware version": 1281, "comments": "", "keywords": "", "mode": 0, "sync interval": 2, "date": "2023-5-30", "time": "19:57:42.624", "channels": [1, 2, 3, 4], "sensor": ["EMGBITREV", "EMGBITREV", "RAW", "RAW"], "label": ["A1", "A2", "A3", "A4"], "column": ["nSeq", "I1", "I2", "O1", "O2", "A1", "A2", "A3", "A4"], "special": [{}, {}, {}, {}], "digital IO": [0, 0, 1, 1]}}
# EndOfHeader
0	0	0	0	0	509	504	0	0	
1	0	0	0	0	509	505	0	0	
2	0	0	0	0	509	506	0	0	
3	0	0	0	0	510	507	0	0	
4	0	0	0	0	510	507	0	0	
5	0	0	0	0	510	509	0	0	
6	0	0	0	0	512	510	0	0	
7	0	0	0	0	511	507	0	0	
8	0	0	0	0	511	509	0	0	
9	0	0	0	0	510	510	0	0	
10	0	0	0	0	510	508	0	0	
11	0	0	0	0	511	508	0	0	
12	0	0	0	0	510	511	0	0	
13	0	0	0	0	508	508	0	0	
14	0	0	0	0	511	507	0	0	
15	0	0	0	0	513	508	0	0	
0	0	0	0	0	513	508	0	0	
1	0	0	0	0	511	507	0	0	
2	0	0	0	0	511	505	0	0	
3	0	0	0	0	510	507	0	0	
4	0	0	0	0	511	506	0	0	
5	0	0	0	0	511	509	0	0	
6	0	0	0	0	513	508	0	0	
7	0	0	0	0	509	508	0	0	
8	0	0	0	0	511	507	0	0	
9	0	0	0	0	509	509	0	0	
10	0	0	0	0	508	511	0	0	
11	0	0	0	0	511	510	0	0	
12	0	0	0	0	512	509	0	0	
13	0	0	0	0	512	511	0	0	
14	0	0	0	0	512	506	0	0	
15	0	0	0	0	511	509	0	0	
0	0	0	0	0	511	507	0	0	
1	0	0	0	0	511	508	0	0	
2	0	0	0	0	512	507	0	0	
3	0	0	0	0	511	507	0	0	
4	0	0	0	0	512	506	0	0	
5	0	0	0	0	510	507	0	0	
6	0	0	0	0	510	508	0	0	
7	0	0	0	0	509	509	0	0	
8	0	0	0	0	508	506	0	0	
9	0	0	0	0	510	508	0	0	
10	0	0	0	0	510	508	0	0	
11	0	0	0	0	513	506	0	0	
12	0	0	0	0	510	508	0	0	
13	0	0	0	0	508	508	0	0	
14	0	0	0	0	512	510	0	0	
15	0	0	0	0	512	508	0	0	
0	0	0	0	0	513	509	0	0	
1	0	0	0	0	511	510	0	0	
2	0	0	0	0	512	509	0	0	
3	0	0	0	0	512	507	0	0	
4	0	0	0	0	514	509	0	0	
5	0	0	0	0	512	510	0	0	
6	0	0	0	0	511	507	0	0	
7	0	0	0	0	509	505	0	0	
8	0	0	0	0	510	505	0	0	
9	0	0	0	0	511	505	0	0	
10	0	0	0	0	510	504	0	0	
11	0	0	0	0	510	507	0	0	
12	0	0	0	0	510	510	0	0	
13	0	0	0	0	508	508	0	0	
14	0	0	0	0	509	506	0	0	
15	0	0	0	0	509	508	0	0	
0	0	0	0	0	510	509	0	0	
1	0	0	0	0	511	508	0	0	
2	0	0	0	0	511	509	0	0	
3	0	0	0	0	511	509	0	0	
4	0	0	0	0	513	510	0	0	
5	0	0	0	0	514	509	0	0	
6	0	0	0	0	510	509	0	0	
7	0	0	0	0	511	508	0	0	
8	0	0	0	0	512	508	0	0	
9	0	0	0	0	513	509	0	0	
10	0	0	0	0	511	509	0	0	
11	0	0	0	0	510	506	0	0	
12	0	0	0	0	511	508	0	0	
13	0	0	0	0	512	507	0	0	
14	0	0	0	0	512	508	0	0	
15	0	0	0	0	510	509	0	0	
0	0	0	0	0	511	506	0	0	
1	0	0	0	0	511	508	0	0	
2	0	0	0	0	509	507	0	0	
3	0	0	0	0	508	505	0	0	
4	0	0	0	0	511	508	0	0	
5	0	0	0	0	510	507	0	0	
6	0	0	0	0	511	509	0	0	
7	0	0	0	0	510	509	0	0	
8	0	0	0	0	510	509	0	0	
9	0	0	0	0	512	509	0	0	
10	0	0	0	0	511	509	0	0	
11	0	0	0	0	511	508	0	0	
12	0	0	0	0	511	508	0	0	
13	0	0	0	0	508	508	0	0	
14	0	0	0	0	513	511	0	0	
15	0	0	0	0	512	507	0	0	
0	0	0	0	0	513	506	0	0	
1	0	0	0	0	512	505	0	0	
2	0	0	0	0	510	508	0	0	
3	0	0	0	0	513	508	0	0	
4	0	0	0	0	515	508	0	0	
5	0	0	0	0	512	508	0	0	
6	0	0	0	0	512	507	0	0	
7	0	0	0	0	509	508	0	0	
8	0	0	0	0	508	508	0	0	
9	0	0	0	0	511	509	0	0	
10	0	0	0	0	511	509	0	0	
11	0	0	0	0	508	508	0	0	
12	0	0	0	0	510	509	0	0	
13	0	0	0	0	510	509	0	0	
14	0	0	0	0	510	508	0	0	
15	0	0	0	0	512	508	0	0	
0	0	0	0	0	510	508	0	0	
1	0	0	0	0	512	508	0	0	
2	0	0	0	0	511	505	0	0	
3	0	0	0	0	512	509	0	0	
4	0	0	0	0	511	507	0	0	
5	0	0	0	0	512	509	0	0	
6	0	0	0	0	511	505	0	0	
7	0	0	0	0	510	507	0	0	
8	0	0	0	0	511	507	0	0	
9	0	0	0	0	511	508	0	0	
10	0	0	0	0	510	507	0	0	
11	0	0	0	0	510	508	0	0	
12	0	0	0	0	510	510	0	0	
13	0	0	0	0	509	510	0	0	
14	0	0	0	0	508	509	0	0	
15	0	0	0	0	509	509	0	0	
0	0	0	0	0	511	508	0	0	
1	0	0	0	0	512	508	0	0	
2	0	0	0	0	512	509	0	0	
3	0	0	0	0	512	508	0	0	
4	0	0	0	0	510	508	0	0	
5	0	0	0	0	509	509	0	0	
6	0	0	0	0	511	508	0	0	
7	0	0	0	0	510	507	0	0	
8	0	0	0	0	511	508	0	0	
9	0	0	0	0	513	508	0	0	
10	0	0	0	0	512	506	0	0	
11	0	0	0	0	512	508	0	0	
12	0	0	0	0	511	508	0	0	
13	0	0	0	0	510	509	0	0	
14	0	0	0	0	512	505	0	0	
15	0	0	0	0	509	508	0	0	
0	0	0	0	0	512	508	0	0	
1	0	0	0	0	509	508	0	0	
2	0	0	0	0	511	508	0	0	
3	0	0	0	0	512	509	0	0	
4	0	0	0	0	513	509	0	0	
5	0	0	0	0	512	508	0	0	
6	0	0	0	0	510	507	0	0	
7	0	0	0	0	511	508	0	0	
8	0	0	0	0	510	509	0	0	
9	0	0	0	0	511	508	0	0	
10	0	0	0	0	512	509	0	0	
11	0	0	0	0	510	507	0	0	
12	0	0	0	0	509	508	0	0	
13	0	0	0	0	510	506	0	0	
14	0	0	0	0	509	507	0	0	
15	0	0	0	0	511	509	0	0	
0	0	0	0	0	512	508	0	0	
1	0	0	0	0	511	508	0	0	
2	0	0	0	0	511	507	0	0	
3	0	0	0	0	512	509	0	0	
4	0	0	0	0	511	508	0	0	
5	0	0	0	0	508	508	0	0	
6	0	0	0	0	511	509	0	0	
7	0	0	0	0	510	508	0	0	
8	0	0	0	0	512	509	0	0	
9	0	0	0	0	514	509	0	0	
10	0	0	0	0	513	509	0	0	
11	0	0	0	0	513	507	0	0	
12	0	0	0	0	511	508	0	0	
13	0	0	0	0	509	507	0	0	
14	0	0	0	0	511	508	0	0	
15	0	0	0	0	511	508	0	0	
0	0	0	0	0	513	508	0	0	
1	0	0	0	0	510	510	0	0	
2	0	0	0	0	511	505	0	0	
3	0	0	0	0	509	506	0	0	
4	0	0	0	0	510	507	0	0	
5	0	0	0	0	515	505	0	0	
6	0	0	0	0	513	507	0	0	
7	0	0	0	0	511	509	0	0	
8	0	0	0	0	510	506	0	0	
9	0	0	0	0	512	511	0	0	
10	0	0	0	0	510	510	0	0	
11	0	0	0	0	508	510	0	0	
12	0	0	0	0	511	509	0	0	
13	0	0	0	0	512	508	0	0	
14	0	0	0	0	511	510	0	0	
15	0	0	0	0	509	508	0	0	
0	0	0	0	0	512	508	0	0	
1	0	0	0	0	512	508	0	0	
2	0	0	0	0	511	509	0	0	
3	0	0	0	0	511	509	0	0	
4	0	0	0	0	512	507	0	0	
5	0	0	0	0	512	506	0	0	
6	0	0	0	0	511	505	0	0	
7	0	0	0	0	511	510	0	0	
8	0	0	0	0	509	507	0	0	
9	0	0	0	0	511	507	0	0	
10	0	0	0	0	511	508	0	0	
11	0	0	0	0	511	506	0	0	
12	0	0	0	0	508	508	0	0	
13	0	0	0	0	508	508	0	0	
14	0	0	0	0	508	509	0	0	
15	0	0	0	0	512	509	0	0	
0	0	0	0	0	510	511	0	0	
1	0	0	0	0	510	508	0	0	
2	0	0	0	0	513	507	0	0	
3	0	0	0	0	512	509	0	0	
4	0	0	0	0	512	510	0	0	
5	0	0	0	0	511	509	0	0	
6	0	0	0	0	512	507	0	0	
7	0	0	0	0	510	508	0	0	
8	0	0	0	0	511	506	0	0	
9	0	0	0	0	511	507	0	0	
10	0	0	0	0	509	506	0	0	
11	0	0	0	0	511	507	0	0	
12	0	0	0	0	509	507	0	0	
13	0	0	0	0	511	508	0	0	
14	0	0	0	0	511	507	0	0	
15	0	0	0	0	511	507	0	0	
0	0	0	0	0	511	509	0	0	
1	0	0	0	0	508	511	0	0	
2	0	0	0	0	509	509	0	0	
3	0	0	0	0	511	509	0	0	
4	0	0	0	0	513	509	0	0	
5	0	0	0	0	513	509	0	0	
6	0	0	0	0	514	509	0	0	
7	0	0	0	0	516	508	0	0	
8	0	0	0	0	515	508	0	0	
9	0	0	0	0	512	509	0	0	
10	0	0	0	0	510	510	0	0	
11	0	0	0	0	511	506	0	0	
12	0	0	0	0	512	506	0	0	
13	0	0	0	0	510	506	0	0	
14	0	0	0	0	510	507	0	0	
15	0	0	0	0	511	505	0	0	
0	0	0	0	0	509	505	0	0	
1	0	0	0	0	510	508	0	0	
2	0	0	0	0	508	506	0	0	
3	0	0	0	0	511	508	0	0	
4	0	0	0	0	513	509	0	0	
5	0	0	0	0	510	508	0	0	
6	0	0	0	0	510	510	0	0	
7	0	0	0	0	512	509	0	0	
8	0	0	0	0	507	506	0	0	
9	0	0	0	0	511	509	0	0	
10	0	0	0	0	512	510	0	0	
11	0	0	0	0	512	507	0	0	
12	0	0	0	0	512	508	0	0	
13	0	0	0	0	512	508	0	0	
14	0	0	0	0	511	507	0	0	
15	0	0	0	0	511	507	0	0	
0	0	0	0	0	511	510	0	0	
1	0	0	0	0	510	508	0	0	
2	0	0	0	0	508	509	0	0	
3	0	0	0	0	507	508	0	0	
4	0	0	0	0	510	506	0	0	
5	0	0	0	0	509	505	0	0	
6	0	0	0	0	511	506	0	0	
7	0	0	0	0	510	509	0	0	
8	0	0	0	0	510	509	0	0	
9	0	0	0	0	512	508	0	0	
10	0	0	0	0	512	508	0	0	
11	0	0	0	0	511	510	0	0	
12	0	0	0	0	512	510	0	0	
13	0	0	0	0	515	509	0	0	
14	0	0	0	0	511	508	0	0	
15	0	0	0	0	511	506	0	0	
0	0	0	0	0	510	509	0	0	
1	0	0	0	0	513	509	0	0	
2	0	0	0	0	512	507	0	0	
3	0	0	0	0	511	508	0	0	
4	0	0	0	0	511	508	0	0	
5	0	0	0	0	511	507	0	0	
6	0	0	0	0	515	507	0	0	
7	0	0	0	0	513	509	0	0	
8	0	0	0	0	509	508	0	0	
9	0	0	0	0	508	508	0	0	
10	0	0	0	0	511	508	0	0	
11	0	0	0	0	510	506	0	0	
12	0	0	0	0	510	507	0	0	
13	0	0	0	0	509	509	0	0	
14	0	0	0	0	511	509	0	0	
15	0	0	0	0	510	509	0	0	
0	0	0	0	0	512	509	0	0	
1	0	0	0	0	511	508	0	0	
2	0	0	0	0	513	508	0	0	
3	0	0	0	0	511	509	0	0	
4	0	0	0	0	511	508	0	0	
5	0	0	0	0	513	510	0	0	
6	0	0	0	0	512	508	0	0	
7	0	0	0	0	511	508	0	0	
8	0	0	0	0	511	507	0	0	
9	0	0	0	0	510	507	0	0	
10	0	0	0	0	510	506	0	0	
11	0	0	0	0	512	509	0	0	
12	0	0	0	0	511	508	0	0	
13	0	0	0	0	511	508	0	0	
14	0	0	0	0	511	505	0	0	
15	0	0	0	0	511	508	0	0	
0	0	0	0	0	508	510	0	0	
1	0	0	0	0	510	508	0	0	
2	0	0	0	0	509	510	0	0	
3	0	0	0	0	510	509	0	0	
4	0	0	0	0	512	511	0	0	
5	0	0	0	0	515	510	0	0	
6	0	0	0	0	515	507	0	0	
7	0	0	0	0	512	508	0	0	
8	0	0	0	0	509	508	0	0	
9	0	0	0	0	511	508	0	0	
10	0	0	0	0	512	508	0	0	
11	0	0	0	0	511	507	0	0	
12	0	0	0	0	511	508	0	0	
13	0	0	0	0	509	505	0	0	
14	0	0	0	0	510	505	0	0	
15	0	0	0	0	510	509	0	0	
0	0	0	0	0	509	509	0	0	
1	0	0	0	0	510	508	0	0	
2	0	0	0	0	512	508	0	0	
3	0	0	0	0	511	506	0	0	
4	0	0	0	0	508	508	0	0	
5	0	0	0	0	508	509	0	0	
6	0	0	0	0	512	509	0	0	
7	0	0	0	0	512	508	0	0	
8	0	0	0	0	510	509	0	0	
9	0	0	0	0	511	508	0	0	
10	0	0	0	0	514	510	0	0	
11	0	0	0	0	511	508	0	0	
12	0	0	0	0	511	508	0	0	
13	0	0	0	0	511	510	0	0	
14	0	0	0	0	510	510	0	0	
15	0	0	0	0	511	507	0	0	
0	0	0	0	0	511	506	0	0	
1	0	0	0	0	512	508	0	0	
2	0	0	0	0	512	506	0	0	
3	0	0	0	0	513	506	0	0	
4	0	0	0	0	511	508	0	0	
5	0	0	0	0	511	507	0	0	
6	0	0	0	0	512	508	0	0	
7	0	0	0	0	510	510	0	0	
8	0	0	0	0	509	508	0	0	
9	0	0	0	0	511	507	0	0	
10	0	0	0	0	508	509	0	0	
11	0	0	0	0	511	509	0	0	
12	0	0	0	0	510	509	0	0	
13	0	0	0	0	511	509	0	0	
14	0	0	0	0	512	508	0	0	
15	0	0	0	0	510	507	0	0	
0	0	0	0	0	513	509	0	0	
1	0	0	0	0	511	508	0	0	
2	0	0	0	0	513	508	0	0	
3	0	0	0	0	512	508	0	0	
4	0	0	0	0	509	506	0	0	
5	0	0	0	0	511	507	0	0	
6	0	0	0	0	511	507	0	0	
7	0	0	0	0	508	507	0	0	
8	0	0	0	0	511	504	0	0	
9	0	0	0	0	509	507	0	0	
10	0	0	0	0	508	509	0	0	
11	0	0	0	0	511	509	0	0	
12	0	0	0	0	512	508	0	0	
13	0	0	0	0	510	508	0	0	
14	0	0	0	0	510	510	0	0	
15	0	0	0	0	511	510	0	0	
0	0	0	0	0	513	509	0	0	
1	0	0	0	0	512	508	0	0	
2	0	0	0	0	511	509	0	0	
3	0	0	0	0	510	508	0	0	
4	0	0	0	0	510	508	0	0	
5	0	0	0	0	511	508	0	0	
6	0	0	0	0	513	509	0	0	
7	0	0	0	0	516	506	0	0	
8	0	0	0	0	512	505	0	0	
9	0	0	0	0	511	507	0	0	
10	0	0	0	0	511	506	0	0	
11	0	0	0	0	512	507	0	0	
12	0	0	0	0	512	507	0	0	
13	0	0	0	0	506	508	0	0	
14	0	0	0	0	508	507	0	0	
15	0	0	0	0	508	507	0	0	
0	0	0	0	0	509	508	0	0	
1	0	0	0	0	510	510	0	0	
2	0	0	0	0	511	508	0	0	
3	0	0	0	0	511	509	0	0	
4	0	0	0	0	512	509	0	0	
5	0	0	0	0	512	510	0	0	
6	0	0	0	0	512	508	0	0	
7	0	0	0	0	512	508	0	0	
8	0	0	0	0	511	508	0	0	
9	0	0	0	0	509	510	0	0	
10	0	0	0	0	512	509	0	0	
11	0	0	0	0	512	507	0	0	
12	0	0	0	0	512	504	0	0	
13	0	0	0	0	509	505	0	0	
14	0	0	0	0	509	507	0	0	
15	0	0	0	0	511	507	0	0	
0	0	0	0	0	509	507	0	0	
1	0	0	0	0	511	507	0	0	
2	0	0	0	0	512	506	0	0	
3	0	0	0	0	511	505	0	0	
4	0	0	0	0	511	508	0	0	
5	0	0	0	0	510	508	0	0	
6	0	0	0	0	511	508	0	0	
7	0	0	0	0	509	509	0	0	
8	0	0	0	0	510	509	0	0	
9	0	0	0	0	511	509	0	0	
10	0	0	0	0	510	509	0	0	
11	0	0	0	0	513	508	0	0	
12	0	0	0	0	511	507	0	0	
13	0	0	0	0	510	509	0	0	
14	0	0	0	0	511	508	0	0	
15	0	0	0	0	511	508	0	0	
0	0	0	0	0	512	507	0	0	
1	0	0	0	0	512	507	0	0	
2	0	0	0	0	511	507	0	0	
3	0	0	0	0	510	508	0	0	
4	0	0	0	0	510	507	0	0	
5	0	0	0	0	511	508	0	0	
6	0	0	0	0	510	507	0	0	
7	0	0	0	0	510	507	0	0	
8	0	0	0	0	510	510	0	0	
9	0	0	0	0	510	508	0	0	
10	0	0	0	0	511	508	0	0	
11	0	0	0	0	510	510	0	0	
12	0	0	0	0	511	508	0	0	
13	0	0	0	0	513	508	0	0	
14	0	0	0	0	512	509	0	0	
15	0	0	0	0	513	508	0	0	
0	0	0	0	0	512	508	0	0	
1	0	0	0	0	510	508	0	0	
2	0	0	0	0	513	506	0	0	
3	0	0	0	0	513	510	0	0	
4	0	0	0	0	510	507	0	0	
5	0	0	0	0	509	506	0	0	
6	0	0	0	0	510	508	0	0	
7	0	0	0	0	511	508	0	0	
8	0	0	0	0	509	508	0	0	
9	0	0	0	0	509	507	0	0	
10	0	0	0	0	511	508	0	0	
11	0	0	0	0	508	507	0	0	
12	0	0	0	0	508	508	0	0	
13	0	0	0	0	509	509	0	0	
14	0	0	0	0	510	508	0	0	
15	0	0	0	0	514	509	0	0	
0	0	0	0	0	514	508	0	0	
1	0	0	0	0	511	508	0	0	
2	0	0	0	0	512	506	0	0	
3	0	0	0	0	514	507	0	0	
4	0	0	0	0	513	509	0	0	
5	0	0	0	0	508	510	0	0	
6	0	0	0	0	510	509	0	0	
7	0	0	0	0	512	508	0	0	
8	0	0	0	0	511	507	0	0	
9	0	0	0	0	511	508	0	0	
10	0	0	0	0	510	508	0	0	
11	0	0	0	0	509	507	0	0	
12	0	0	0	0	509	508	0	0	
13	0	0	0	0	510	508	0	0	
14	0	0	0	0	510	507	0	0	
15	0	0	0	0	511	509	0	0	
0	0	0	0	0	511	507	0	0	
1	0	0	0	0	511	507	0	0	
2	0	0	0	0	511	508	0	0	
3	0	0	0	0	512	508	0	0	
4	0	0	0	0	512	510	0	0	
5	0	0	0	0	512	508	0	0	
6	0	0	0	0	513	507	0	0	
7	0	0	0	0	515	507	0	0	
8	0	0	0	0	513	509	0	0	
9	0	0	0	0	511	509	0	0	
10	0	0	0	0	510	509	0	0	
11	0	0	0	0	510	508	0	0	
12	0	0	0	0	510	509	0	0	
13	0	0	0	0	509	506	0	0	
14	0	0	0	0	512	507	0	0	
15	0	0	0	0	511	508	0	0	
0	0	0	0	0	510	507	0	0	
1	0	0	0	0	513	510	0	0	
2	0	0	0	0	512	507	0	0	
3	0	0	0	0	511	504	0	0	
4	0	0	0	0	511	508	0	0	
5	0	0	0	0	511	507	0	0	
6	0	0	0	0	511	509	0	0	
7	0	0	0	0	513	508	0	0	
8	0	0	0	0	509	510	0	0	
9	0	0	0	0	511	509	0	0	
10	0	0	0	0	510	509	0	0	
11	0	0	0	0	513	508	0	0	
12	0	0	0	0	511	509	0	0	
13	0	0	0	0	511	509	0	0	
14	0	0	0	0	511	507	0	0	
15	0	0	0	0	512	509	0	0	
0	0	0	0	0	511	507	0	0	
1	0	0	0	0	511	507	0	0	
2	0	0	0	0	509	508	0	0	
3	0	0	0	0	508	508	0	0	
4	0	0	0	0	508	507	0	0	
5	0	0	0	0	510	507	0	0	
6	0	0	0	0	511	507	0	0	
7	0	0	0	0	512	508	0	0	
8	0	0	0	0	508	508	0	0	
9	0	0	0	0	511	508	0	0	
10	0	0	0	0	511	511	0	0	
11	0	0	0	0	511	509	0	0	
12	0	0	0	0	510	510	0	0	
13	0	0	0	0	511	510	0	0	
14	0	0	0	0	513	508	0	0	
15	0	0	0	0	510	507	0	0	
0	0	0	0	0	510	507	0	0	
1	0	0	0	0	512	508	0	0	
2	0	0	0	0	512	509	0	0	
3	0	0	0	0	511	508	0	0	
4	0	0	0	0	511	507	0	0	
5	0	0	0	0	512	505	0	0	
6	0	0	0	0	511	508	0	0	
7	0	0	0	0	511	508	0	0	
8	0	0	0	0	511	507	0	0	
9	0	0	0	0	512	507	0	0	
10	0	0	0	0	512	507	0	0	
11	0	0	0	0	511	507	0	0	
12	0	0	0	0	508	507	0	0	
13	0	0	0	0	511	510	0	0	
14	0	0	0	0	514	510	0	0	
15	0	0	0	0	511	506	0	0	
0	0	0	0	0	511	509	0	0	
1	0	0	0	0	511	508	0	0	
2	0	0	0	0	510	510	0	0	
3	0	0	0	0	512	509	0	0	
4	0	0	0	0	512	507	0	0	
5	0	0	0	0	511	509	0	0	
6	0	0	0	0	509	508	0	0	
7	0	0	0	0	513	508	0	0	
8	0	0	0	0	510	507	0	0	
9	0	0	0	0	511	506	0	0	
10	0	0	0	0	511	507	0	0	
11	0	0	0	0	507	506	0	0	
12	0	0	0	0	510	505	0	0	
13	0	0	0	0	512	508	0	0	
14	0	0	0	0	515	508	0	0	
15	0	0	0	0	510	509	0	0	
0	0	0	0	0	509	507	0	0	
1	0	0	0	0	510	509	0	0	
2	0	0	0	0	508	511	0	0	
3	0	0	0	0	509	509	0	0	
4	0	0	0	0	512	510	0	0	
5	0	0	0	0	512	508	0	0	
6	0	0	0	0	514	509	0	0	
7	0	0	0	0	513	508	0	0	
8	0	0	0	0	509	507	0	0	
9	0	0	0	0	508	509	0	0	
10	0	0	0	0	512	508	0	0	
11	0	0	0	0	513	506	0	0	
12	0	0	0	0	512	507	0	0	
13	0	0	0	0	511	504	0	0	
14	0	0	0	0	512	507	0	0	
15	0	0	0	0	509	508	0	0	
0	0	0	0	0	510	507	0	0	
1	0	0	0	0	510	507	0	0	
2	0	0	0	0	510	507	0	0	
3	0	0	0	0	509	510	0	0	
4	0	0	0	0	509	507	0	0	
5	0	0	0	0	511	506	0	0	
6	0	0	0	0	512	510	0	0	
7	0	0	0	0	508	510	0	0	
8	0	0	0	0	510	508	0	0	
9	0	0	0	0	512	510	0	0	
10	0	0	0	0	513	509	0	0	
11	0	0	0	0	513	507	0	0	
12	0	0	0	0	510	509	0	0	
13	0	0	0	0	514	508	0	0	
14	0	0	0	0	511	509	0	0	
15	0	0	0	0	512	508	0	0	
0	0	0	0	0	510	507	0	0	
1	0	0	0	0	511	508	0	0	
2	0	0	0	0	511	506	0	0	
3	0	0	0	0	510	506	0	0	
4	0	0	0	0	509	507	0	0	
5	0	0	0	0	508	509	0	0	
6	0	0	0	0	510	508	0	0	
7	0	0	0	0	509	507	0	0	
8	0	0	0	0	511	508	0	0	
9	0	0	0	0	508	510	0	0	
10	0	0	0	0	508	509	0	0	
11	0	0	0	0	511	509	0	0	
12	0	0	0	0	510	509	0	0	
13	0	0	0	0	512	508	0	0	
14	0	0	0	0	512	508	0	0	
15	0	0	0	0	513	508	0	0	
0	0	0	0	0	513	508	0	0	
1	0	0	0	0	513	510	0	0	
2	0	0	0	0	511	510	0	0	
3	0	0	0	0	511	507	0	0	
4	0	0	0	0	512	505	0	0	
5	0	0	0	0	507	508	0	0	
6	0	0	0	0	509	505	0	0	
7	0	0	0	0	507	508	0	0	
8	0	0	0	0	512	508	0	0	
9	0	0	0	0	514	509	0	0	
10	0	0	0	0	514	508	0	0	
11	0	0	0	0	513	508	0	0	
12	0	0	0	0	510	507	0	0	
13	0	0	0	0	508	509	0	0	
14	0	0	0	0	511	509	0	0	
15	0	0	0	0	512	509	0	0	
0	0	0	0	0	511	508	0	0	
1	0	0	0	0	509	510	0	0	
2	0	0	0	0	512	510	0	0	
3	0	0	0	0	512	507	0	0	
4	0	0	0	0	510	508	0	0	
5	0	0	0	0	512	508	0	0	
6	0	0	0	0	511	506	0	0	
7	0	0	0	0	513	508	0	0	
8	0	0	0	0	510	507	0	0	
9	0	0	0	0	509	507	0	0	
10	0	0	0	0	512	507	0	0	
11	0	0	0	0	507	507	0	0	
12	0	0	0	0	508	508	0	0	
13	0	0	0	0	509	509	0	0	
14	0	0	0	0	510	508	0	0	
15	0	0	0	0	511	506	0	0	
0	0	0	0	0	511	508	0	0	
1	0	0	0	0	508	509	0	0	
2	0	0	0	0	510	507	0	0	
3	0	0	0	0	510	509	0	0	
4	0	0	0	0	512	508	0	0	
5	0	0	0	0	513	508	0	0	
6	0	0	0	0	512	508	0	0	
7	0	0	0	0	512	507	0	0	
8	0	0	0	0	510	509	0	0	
9	0	0	0	0	511	508	0	0	
10	0	0	0	0	513	508	0	0	
11	0	0	0	0	513	508	0	0	
12	0	0	0	0	510	508	0	0	
13	0	0	0	0	510	508	0	0	
14	0	0	0	0	509	506	0	0	
15	0	0	0	0	509	507	0	0	
0	0	0	0	0	510	506	0	0	
1	0	0	0	0	513	508	0	0	
2	0	0	0	0	511	507	0	0	
3	0	0	0	0	510	506	0	0	
4	0	0	0	0	512	509	0	0	
5	0	0	0	0	507	509	0	0	
6	0	0	0	0	507	509	0	0	
7	0	0	0	0	510	510	0	0	
8	0	0	0	0	512	507	0	0	
9	0	0	0	0	509	506	0	0	
10	0	0	0	0	512	508	0	0	
11	0	0	0	0	512	508	0	0	
12	0	0	0	0	512	507	0	0	
13	0	0	0	0	510	508	0	0	
14	0	0	0	0	513	508	0	0	
15	0	0	0	0	513	508	0	0	
0	0	0	0	0	513	508	0	0	
1	0	0	0	0	512	506	0	0	
2	0	0	0	0	511	507	0	0	
3	0	0	0	0	509	506	0	0	
4	0	0	0	0	511	508	0	0	
5	0	0	0	0	507	510	0	0	
6	0	0	0	0	509	507	0	0	
7	0	0	0	0	511	508	0	0	
8	0	0	0	0	510	506	0	0	
9	0	0	0	0	513	509	0	0	
10	0	0	0	0	511	508	0	0	
11	0	0	0	0	511	508	0	0	
12	0	0	0	0	513	508	0	0	
13	0	0	0	0	512	508	0	0	
14	0	0	0	0	512	507	0	0	
15	0	0	0	0	511	510	0	0	
0	0	0	0	0	511	509	0	0	
1	0	0	0	0	513	509	0	0	
2	0	0	0	0	511	507	0	0	
3	0	0	0	0	514	508	0	0	
4	0	0	0	0	515	505	0	0	
5	0	0	0	0	512	506	0	0	
6	0	0	0	0	511	508	0	0	
7	0	0	0	0	508	509	0	0	
8	0	0	0	0	508	507	0	0	
9	0	0	0	0	508	508	0	0	
10	0	0	0	0	510	508	0	0	
11	0	0	0	0	508	507	0	0	
12	0	0	0	0	510	507	0	0	
13	0	0	0	0	511	509	0	0	
14	0	0	0	0	511	507	0	0	
15	0	0	0	0	510	509	0	0	
0	0	0	0	0	511	508	0	0	
1	0	0	0	0	511	510	0	0	
2	0	0	0	0	512	507	0	0	
3	0	0	0	0	515	508	0	0	
4	0	0	0	0	513	509	0	0	
5	0	0	0	0	514	509	0	0	
6	0	0	0	0	512	509	0	0	
7	0	0	0	0	511	506	0	0	
8	0	0	0	0	510	507	0	0	
9	0	0	0	0	511	506	0	0	
10	0	0	0	0	510	506	0	0	
11	0	0	0	0	508	508	0	0	
12	0	0	0	0	510	508	0	0	
13	0	0	0	0	511	507	0	0	
14	0	0	0	0	510	508	0	0	
15	0	0	0	0	512	507	0	0	
0	0	0	0	0	511	508	0	0	
1	0	0	0	0	511	510	0	0	
2	0	0	0	0	511	509	0	0	
3	0	0	0	0	508	507	0	0	
4	0	0	0	0	511	508	0	0	
5	0	0	0	0	514	509	0	0	
6	0	0	0	0	512	511	0	0	
7	0	0	0	0	511	508	0	0	
8	0	0	0	0	509	506	0	0	
9	0	0	0	0	510	508	0	0	
10	0	0	0	0	511	508	0	0	
11	0	0	0	0	510	508	0	0	
12	0	0	0	0	512	505	0	0	
13	0	0	0	0	509	504	0	0	
14	0	0	0	0	511	508	0	0	
15	0	0	0	0	510	507	0	0	
0	0	0	0	0	512	508	0	0	
1	0	0	0	0	511	507	0	0	
2	0	0	0	0	511	508	0	0	
3	0	0	0	0	510	508	0	0	
4	0	0	0	0	508	507	0	0	
5	0	0	0	0	511	509	0	0	
6	0	0	0	0	510	508	0	0	
7	0	0	0	0	513	508	0	0	
8	0	0	0	0	512	507	0	0	
9	0	0	0	0	511	507	0	0	
10	0	0	0	0	514	509	0	0	
11	0	0	0	0	511	510	0	0	
12	0	0	0	0	509	508	0	0	
13	0	0	0	0	511	508	0	0	
14	0	0	0	0	512	507	0	0	
15	0	0	0	0	514	508	0	0	
0	0	0	0	0	512	507	0	0	
1	0	0	0	0	511	506	0	0	
2	0	0	0	0	512	507	0	0	
3	0	0	0	0	511	506	0	0	
4	0	0	0	0	508	507	0	0	
5	0	0	0	0	509	509	0	0	
6	0	0	0	0	508	507	0	0	
7	0	0	0	0	509	508	0	0	
8	0	0	0	0	511	508	0	0	
9	0	0	0	0	511	511	0	0	
10	0	0	0	0	511	508	0	0	
11	0	0	0	0	511	508	0	0	
12	0	0	0	0	513	509	0	0	
13	0	0	0	0	514	507	0	0	
14	0	0	0	0	513	507	0	0	
15	0	0	0	0	514	507	0	0	
0	0	0	0	0	509	509	0	0	
1	0	0	0	0	509	510	0	0	
2	0	0	0	0	509	510	0	0	
3	0	0	0	0	511	507	0	0	
4	0	0	0	0	511	507	0	0	
5	0	0	0	0	510	505	0	0	
6	0	0	0	0	511	507	0	0	
7	0	0	0	0	512	511	0	0	
8	0	0	0	0	511	508	0	0	
9	0	0	0	0	510	508	0	0	
10	0	0	0	0	511	506	0	0	
11	0	0	0	0	508	506	0	0	
12	0	0	0	0	507	508	0	0	
13	0	0	0	0	511	507	0	0	
14	0	0	0	0	510	509	0	0	
15	0	0	0	0	512	508	0	0	
0	0	0	0	0	511	510	0	0	
1	0	0	0	0	513	509	0	0	
2	0	0	0	0	512	508	0	0	
3	0	0	0	0	513	508	0	0	
4	0	0	0	0	511	509	0	0	
5	0	0	0	0	510	509	0	0	
6	0	0	0	0	508	508	0	0	
7	0	0	0	0	511	507	0	0	
8	0	0	0	0	510	507	0	0	
9	0	0	0	0	511	507	0	0	
10	0	0	0	0	509	508	0	0	
11	0	0	0	0	511	508	0	0	
12	0	0	0	0	513	508	0	0	
13	0	0	0	0	512	508	0	0	
14	0	0	0	0	509	507	0	0	
15	0	0	0	0	509	507	0	0	
0	0	0	0	0	506	506	0	0	
1	0	0	0	0	510	509	0	0	
2	0	0	0	0	508	510	0	0	
3	0	0	0	0	512	509	0	0	
4	0	0	0	0	511	507	0	0	
5	0	0	0	0	513	508	0	0	
6	0	0	0	0	513	511	0	0	
7	0	0	0	0	515	508	0	0	
8	0	0	0	0	511	509	0	0	
9	0	0	0	0	510	507	0	0	
10	0	0	0	0	512	508	0	0	
11	0	0	0	0	512	506	0	0	
12	0	0	0	0	512	505	0	0	
13	0	0	0	0	508	508	0	0	
14	0	0	0	0	512	509	0	0	
15	0	0	0	0	509	508	0	0	
0	0	0	0	0	510	507	0	0	
1	0	0	0	0	513	508	0	0	
2	0	0	0	0	511	508	0	0	
3	0	0	0	0	513	508	0	0	
4	0	0	0	0	509	510	0	0	
5	0	0	0	0	510	508	0	0	
6	0	0	0	0	508	510	0	0	
7	0	0	0	0	509	509	0	0	
8	0	0	0	0	511	508	0	0	
9	0	0	0	0	511	509	0	0	
10	0	0	0	0	511	506	0	0	
11	0	0	0	0	512	510	0	0	
12	0	0	0	0	509	509	0	0	
13	0	0	0	0	509	508	0	0	
14	0	0	0	0	511	508	0	0	
15	0	0	0	0	515	507	0	0	
0	0	0	0	0	515	508	0	0	
1	0	0	0	0	511	508	0	0	
2	0	0	0	0	510	507	0	0	
3	0	0	0	0	509	506	0	0	
4	0	0	0	0	507	507	0	0	
5	0	0	0	0	510	507	0	0	
6	0	0	0	0	510	508	0	0	
7	0	0	0	0	511	508	0	0	
8	0	0	0	0	510	508	0	0	
9	0	0	0	0	511	510	0	0	
10	0	0	0	0	513	509	0	0	
11	0	0	0	0	512	509	0	0	
12	0	0	0	0	511	510	0	0	
13	0	0	0	0	510	509	0	0	
14	0	0	0	0	511	508	0	0	
15	0	0	0	0	511	508	0	0	
0	0	0	0	0	512	510	0	0	
1	0	0	0	0	511	506	0	0	
2	0	0	0	0	513	508	0	0	
3	0	0	0	0	511	507	0	0	
4	0	0	0	0	510	506	0	0	
5	0	0	0	0	510	507	0	0	
6	0	0	0	0	510	507	0	0	
7	0	0	0	0	507	508	0	0	
8	0	0	0	0	510	506	0	0	
9	0	0	0	0	507	508	0	0	
10	0	0	0	0	510	508	0	0	
11	0	0	0	0	511	508	0	0	
12	0	0	0	0	512	508	0	0	
13	0	0	0	0	512	508	0	0	
14	0	0	0	0	512	508	0	0	
15	0	0	0	0	513	508	0	0	
0	0	0	0	0	516	510	0	0	
1	0	0	0	0	512	507	0	0	
2	0	0	0	0	510	508	0	0	
3	0	0	0	0	511	508	0	0	
4	0	0	0	0	510	510	0	0	
5	0	0	0	0	512	508	0	0	
6	0	0	0	0	514	506	0	0	
7	0	0	0	0	512	509	0	0	
8	0	0	0	0	510	508	0	0	
9	0	0	0	0	512	507	0	0	
10	0	0	0	0	511	507	0	0	
11	0	0	0	0	508	507	0	0	
12	0	0	0	0	509	508	0	0	
13	0	0	0	0	511	507	0	0	
14	0	0	0	0	510	509	0	0	
15	0	0	0	0	509	508	0	0	
0	0	0	0	0	512	510	0	0	
1	0	0	0	0	511	506	0	0	
2	0	0	0	0	510	508	0	0	
3	0	0	0	0	508	508	0	0	
4	0	0	0	0	511	508	0	0	
5	0	0	0	0	513	509	0	0	
6	0	0	0	0	515	509	0	0	
7	0	0	0	0	511	507	0	0	
8	0	0	0	0	512	509	0	0	
9	0	0	0	0	510	509	0	0	
10	0	0	0	0	511	507	0	0	
11	0	0	0	0	512	508	0	0	
12	0	0	0	0	511	507	0	0	
13	0	0	0	0	511	507	0	0	
14	0	0	0	0	511	508	0	0	
15	0	0	0	0	510	509	0	0	
0	0	0	0	0	508	508	0	0	
1	0	0	0	0	511	508	0	0	
2	0	0	0	0	509	508	0	0	
3	0	0	0	0	510	507	0	0	
4	0	0	0	0	512	508	0	0	
5	0	0	0	0	508	507	0	0	
6	0	0	0	0	510	510	0	0	
7	0	0	0	0	508	508	0	0	
8	0	0	0	0	510	510	0	0	
9	0	0	0	0	509	510	0	0	
10	0	0	0	0	510	508	0	0	
11	0	0	0	0	511	509	0	0	
12	0	0	0	0	513	508	0	0	
13	0	0	0	0	511	508	0	0	
14	0	0	0	0	515	508	0	0	
15	0	0	0	0	513	505	0	0	
0	0	0	0	0	512	506	0	0	
1	0	0	0	0	512	509	0	0	
2	0	0	0	0	510	507	0	0	
3	0	0	0	0	511	508	0	0	
4	0	0	0	0	510	507	0	0	
5	0	0	0	0	512	508	0	0	
6	0	0	0	0	512	508	0	0	
7	0	0	0	0	512	506	0	0	
8	0	0	0	0	510	508	0	0	
9	0	0	0	0	507	508	0	0	
10	0	0	0	0	510	510	0	0	
11	0	0	0	0	510	507	0	0	
12	0	0	0	0	510	510	0	0	
13	0	0	0	0	510	509	0	0	
14	0	0	0	0	511	508	0	0	
15	0	0	0	0	511	506	0	0	
0	0	0	0	0	512	510	0	0	
1	0	0	0	0	513	509	0	0	
2	0	0	0	0	511	509	0	0	
3	0	0	0	0	511	508	0	0	
4	0	0	0	0	511	507	0	0	
5	0	0	0	0	508	505	0	0	
6	0	0	0	0	512	504	0	0	
7	0	0	0	0	510	509	0	0	
8	0	0	0	0	512	507	0	0	
9	0	0	0	0	510	508	0	0	
10	0	0	0	0	510	507	0	0	
11	0	0	0	0	508	508	0	0	
12	0	0	0	0	509	507	0	0	
13	0	0	0	0	508	511	0	0	
14	0	0	0	0	509	508	0	0	
15	0	0	0	0	514	510	0	0	
0	0	0	0	0	514	508	0	0	
1	0	0	0	0	512	508	0	0	
2	0	0	0	0	511	508	0	0	
3	0	0	0	0	511	509	0	0	
4	0	0	0	0	511	507	0	0	
5	0	0	0	0	511	509	0	0	
6	0	0	0	0	510	507	0	0	
7	0	0	0	0	511	505	0	0	
8	0	0	0	0	510	510	0	0	
9	0	0	0	0	510	507	0	0	
10	0	0	0	0	508	506	0	0	
11	0	0	0	0	509	508	0	0	
12	0	0	0	0	509	506	0	0	
13	0	0	0	0	509	507	0	0	
14	0	0	0	0	511	508	0	0	
15	0	0	0	0	513	508	0	0	
0	0	0	0	0	510	508	0	0	
1	0	0	0	0	512	509	0	0	
2	0	0	0	0	516	510	0	0	
3	0	0	0	0	513	508	0	0	
4	0	0	0	0	509	510	0	0	
5	0	0	0	0	509	508	0	0	
6	0	0	0	0	509	508	0	0	
7	0	0	0	0	512	510	0	0	
8	0	0	0	0	514	509	0	0	
9	0	0	0	0	511	508	0	0	
10	0	0	0	0	512	506	0	0	
11	0	0	0	0	511	507	0	0	
12	0	0	0	0	511	507	0	0	
13	0	0	0	0	510	507	0	0	
14	0	0	0	0	510	509	0	0	
15	0	0	0	0	509	507	0	0	
0	0	0	0	0	510	505	0	0	
1	0	0	0	0	510	507	0	0	
2	0	0	0	0	508	508	0	0	
3	0	0	0	0	509	509	0	0	
4	0	0	0	0	511	511	0	0	
5	0	0	0	0	511	508	0	0	
6	0	0	0	0	513	507	0	0	
7	0	0	0	0	514	506	0	0	
8	0	0	0	0	513	508	0	0	
9	0	0	0	0	511	510	0	0	
10	0	0	0	0	511	508	0	0	
11	0	0	0	0	510	508	0	0	
12	0	0	0	0	508	511	0	0	
13	0	0	0	0	511	510	0	0	
14	0	0	0	0	511	508	0	0	
15	0	0	0	0	511	507	0	0	
0	0	0	0	0	510	506	0	0	
1	0	0	0	0	514	506	0	0	
2	0	0	0	0	510	507	0	0	
3	0	0	0	0	510	507	0	0	
4	0	0	0	0	512	509	0	0	
5	0	0	0	0	511	508	0	0	
6	0	0	0	0	511	507	0	0	
7	0	0	0	0	512	508	0	0	
8	0	0	0	0	512	508	0	0	
9	0	0	0	0	510	508	0	0	
10	0	0	0	0	511	508	0	0	
11	0	0	0	0	509	510	0	0	
12	0	0	0	0	509	509	0	0	
13	0	0	0	0	512	508	0	0	
14	0	0	0	0	513	508	0	0	
15	0	0	0	0	512	509	0	0	
0	0	0	0	0	512	508	0	0	
1	0	0	0	0	511	508	0	0	
2	0	0	0	0	511	507	0	0	
3	0	0	0	0	512	508	0	0	
4	0	0	0	0	511	506	0	0	
5	0	0	0	0	512	506	0	0	
6	0	0	0	0	509	507	0	0	
7	0	0	0	0	509	507	0	0	
8	0	0	0	0	510	507	0	0	
9	0	0	0	0	510	507	0	0	
10	0	0	0	0	510	507	0	0	
11	0	0	0	0	511	506	0	0	
12	0	0	0	0	510	508	0	0	
13	0	0	0	0	511	509	0	0	
14	0	0	0	0	510	511	0	0	
15	0	0	0	0	512	510	0	0	
0	0	0	0	0	515	508	0	0	
1	0	0	0	0	514	509	0	0	
2	0	0	0	0	511	509	0	0	
3	0	0	0	0	511	511	0	0	
4	0	0	0	0	510	508	0	0	
5	0	0	0	0	511	509	0	0	
6	0	0	0	0	510	506	0	0	
7	0	0	0	0	512	507	0	0	
8	0	0	0	0	511	508	0	0	
9	0	0	0	0	512	507	0	0	
10	0	0	0	0	511	505	0	0	
11	0	0	0	0	511	506	0	0	
12	0	0	0	0	508	507	0	0	
13	0	0	0	0	507	507	0	0	
14	0	0	0	0	511	507	0	0	
15	0	0	0	0	512	507	0	0	
0	0	0	0	0	512	511	0	0	
1	0	0	0	0	510	510	0	0	
2	0	0	0	0	509	508	0	0	
3	0	0	0	0	510	510	0	0	
4	0	0	0	0	511	507	0	0	
5	0	0	0	0	511	508	0	0	
6	0	0	0	0	513	507	0	0	
7	0	0	0	0	513	506	0	0	
8	0	0	0	0	511	508	0	0	
9	0	0	0	0	511	510	0	0	
10	0	0	0	0	510	507	0	0	
11	0	0	0	0	512	506	0	0	
12	0	0	0	0	513	504	0	0	
13	0	0	0	0	512	507	0	0	
14	0	0	0	0	512	507	0	0	
15	0	0	0	0	512	510	0	0	
0	0	0	0	0	510	506	0	0	
1	0	0	0	0	510	508	0	0	
2	0	0	0	0	510	508	0	0	
3	0	0	0	0	510	506	0	0	
4	0	0	0	0	508	510	0	0	
5	0	0	0	0	510	507	0	0	
6	0	0	0	0	509	508	0	0	
7	0	0	0	0	510	510	0	0	
8	0	0	0	0	513	509	0	0	
9	0	0	0	0	512	510	0	0	
10	0	0	0	0	513	508	0	0	
11	0	0	0	0	512	508	0	0	
12	0	0	0	0	512	508	0	0	
13	0	0	0	0	509	507	0	0	
14	0	0	0	0	510	508	0	0	
15	0	0	0	0	511	506	0	0	
0	0	0	0	0	511	506	0	0	
1	0	0	0	0	510	505	0	0	
2	0	0	0	0	509	505	0	0	
3	0	0	0	0	511	509	0	0	
4	0	0	0	0	509	509	0	0	
5	0	0	0	0	512	509	0	0	
6	0	0	0	0	511	505	0	0	
7	0	0	0	0	509	507	0	0	
8	0	0	0	0	513	509	0	0	
9	0	0	0	0	514	509	0	0	
10	0	0	0	0	511	508	0	0	
11	0	0	0	0	510	510	0	0	
12	0	0	0	0	510	509	0	0	
13	0	0	0	0	510	508	0	0	
14	0	0	0	0	513	508	0	0	
15	0	0	0	0	512	509	0	0	
0	0	0	0	0	512	508	0	0	
1	0	0	0	0	512	508	0	0	
2	0	0	0	0	512	510	0	0	
3	0	0	0	0	512	508	0	0	
4	0	0	0	0	509	505	0	0	
5	0	0	0	0	511	507	0	0	
6	0	0	0	0	510	507	0	0	
7	0	0	0	0	510	507	0	0	
8	0	0	0	0	508	508	0	0	
9	0	0	0	0	510	508	0	0	
10	0	0	0	0	512	507	0	0	
11	0	0	0	0	511	508	0	0	
12	0	0	0	0	510	509	0	0	
13	0	0	0	0	510	508	0	0	
14	0	0	0	0	509	508	0	0	
15	0	0	0	0	509	509	0	0	
0	0	0	0	0	511	508	0	0	
1	0	0	0	0	511	508	0	0	
2	0	0	0	0	513	510	0	0	
3	0	0	0	0	514	510	0	0	
4	0	0	0	0	512	509	0	0	
5	0	0	0	0	512	507	0	0	
6	0	0	0	0	512	507	0	0	
7	0	0	0	0	510	510	0	0	
8	0	0	0	0	511	508	0	0	
9	0	0	0	0	511	506	0	0	
10	0	0	0	0	509	507	0	0	
11	0	0	0	0	510	509	0	0	
12	0	0	0	0	511	507	0	0	
13	0	0	0	0	511	507	0	0	
14	0	0	0	0	514	508	0	0	
15	0	0	0	0	511	505	0	0	
0	0	0	0	0	508	506	0	0	
1	0	0	0	0	508	509	0	0	
2	0	0	0	0	511	511	0	0	
3	0	0	0	0	511	510	0	0	
4	0	0	0	0	510	509	0	0	
5	0	0	0	0	510	507	0	0	
6	0	0	0	0	513	507	0	0	
7	0	0	0	0	513	508	0	0	
8	0	0	0	0	512	509	0	0	
9	0	0	0	0	512	507	0	0	
10	0	0	0	0	510	508	0	0	
11	0	0	0	0	511	507	0	0	
12	0	0	0	0	510	506	0	0	
13	0	0	0	0	512	508	0	0	
14	0	0	0	0	511	506	0	0	
15	0	0	0	0	510	507	0	0	
0	0	0	0	0	509	508	0	0	
1	0	0	0	0	510	507	0	0	
2	0	0	0	0	511	509	0	0	
3	0	0	0	0	508	508	0	0	
4	0	0	0	0	510	509	0	0	
5	0	0	0	0	510	510	0	0	
6	0	0	0	0	510	507	0	0	
7	0	0	0	0	512	509	0	0	
8	0	0	0	0	512	509	0	0	
9	0	0	0	0	511	511	0	0	
10	0	0	0	0	511	507	0	0	
11	0	0	0	0	511	507	0	0	
12	0	0	0	0	512	508	0	0	
13	0	0	0	0	512	508	0	0	
14	0	0	0	0	512	506	0	0	
15	0	0	0	0	511	506	0	0	
0	0	0	0	0	511	508	0	0	
1	0	0	0	0	514	508	0	0	
2	0	0	0	0	510	506	0	0	
3	0	0	0	0	512	507	0	0	
4	0	0	0	0	510	508	0	0	
5	0	0	0	0	510	506	0	0	
6	0	0	0	0	512	507	0	0	
7	0	0	0	0	510	508	0	0	
8	0	0	0	0	507	510	0	0	
9	0	0	0	0	510	508	0	0	
10	0	0	0	0	512	508	0	0	
11	0	0	0	0	512	511	0	0	
12	0	0	0	0	512	509	0	0	
13	0	0	0	0	512	509	0	0	
14	0	0	0	0	511	509	0	0	
15	0	0	0	0	512	507	0	0	
0	0	0	0	0	512	508	0	0	
1	0	0	0	0	511	510	0	0	
2	0	0	0	0	511	507	0	0	
3	0	0	0	0	513	507	0	0	
4	0	0	0	0	512	508	0	0	
5	0	0	0	0	514	506	0	0	
6	0	0	0	0	513	507	0	0	
7	0	0	0	0	509	507	0	0	
8	0	0	0	0	510	508	0	0	
9	0	0	0	0	508	509	0	0	
10	0	0	0	0	508	508	0	0	
11	0	0	0	0	509	505	0	0	
12	0	0	0	0	511	509	0	0	
13	0	0	0	0	509	510	0	0	
14	0	0	0	0	510	508	0	0	
15	0	0	0	0	508	508	0	0	
0	0	0	0	0	512	508	0	0	
1	0	0	0	0	512	508	0	0	
2	0	0	0	0	511	510	0	0	
3	0	0	0	0	510	508	0	0	
4	0	0	0	0	512	508	0	0	
5	0	0	0	0	512	509	0	0	
6	0	0	0	0	514	507	0	0	
7	0	0	0	0	513	506	0	0	
8	0	0	0	0	511	508	0	0	
9	0	0	0	0	510	506	0	0	
10	0	0	0	0	508	505	0	0	
11	0	0	0	0	511	509	0	0	
12	0	0	0	0	509	509	0	0	
13	0	0	0	0	508	509	0	0	
14	0	0	0	0	510	506	0	0	
15	0	0	0	0	510	506	0	0	
0	0	0	0	0	510	510	0	0	
1	0	0	0	0	509	509	0	0	
2	0	0	0	0	513	508	0	0	
3	0	0	0	0	512	508	0	0	
4	0	0	0	0	511	508	0	0	
5	0	0	0	0	512	508	0	0	
6	0	0	0	0	513	510	0	0	
7	0	0	0	0	512	509	0	0	
8	0	0	0	0	511	509	0	0	
9	0	0	0	0	512	508	0	0	
10	0	0	0	0	512	508	0	0	
11	0	0	0	0	509	505	0	0	
12	0	0	0	0	510	505	0	0	
13	0	0	0	0	513	506	0	0	
14	0	0	0	0	511	507	0	0	
15	0	0	0	0	512	506	0	0	
0	0	0	0	0	507	507	0	0	
1	0	0	0	0	509	508	0	0	
2	0	0	0	0	511	509	0	0	
3	0	0	0	0	509	508	0	0	
4	0	0	0	0	510	508	0	0	
5	0	0	0	0	510	510	0	0	
6	0	0	0	0	511	510	0	0	
7	0	0	0	0	514	508	0	0	
8	0	0	0	0	512	509	0	0	
9	0	0	0	0	513	508	0	0	
10	0	0	0	0	513	507	0	0	
11	0	0	0	0	513	508	0	0	
12	0	0	0	0	511	511	0	0	
13	0	0	0	0	510	506	0	0	
14	0	0	0	0	511	507	0	0	
15	0	0	0	0	511	509	0	0	
0	0	0	0	0	511	507	0	0	
1	0	0	0	0	510	508	0	0	
2	0	0	0	0	508	508	0	0	
3	0	0	0	0	511	504	0	0	
4	0	0	0	0	510	506	0	0	
5	0	0	0	0	511	506	0	0	
6	0	0	0	0	511	507	0	0	
7	0	0	0	0	510	506	0	0	
8	0	0	0	0	511	508	0	0	
9	0	0	0	0	510	508	0	0	
10	0	0	0	0	509	511	0	0	
11	0	0	0	0	512	510	0	0	
12	0	0	0	0	512	511	0	0	
13	0	0	0	0	511	510	0	0	
14	0	0	0	0	512	508	0	0	
15	0	0	0	0	513	509	0	0	
0	0	0	0	0	512	508	0	0	
1	0	0	0	0	511	509	0	0	
2	0	0	0	0	511	506	0	0	
3	0	0	0	0	510	505	0	0	
4	0	0	0	0	508	507	0	0	
5	0	0	0	0	511	508	0	0	
6	0	0	0	0	512	508	0	0	
7	0	0	0	0	511	508	0	0	
8	0	0	0	0	509	507	0	0	
9	0	0	0	0	510	507	0	0	
10	0	0	0	0	509	507	0	0	
11	0	0	0	0	510	508	0	0	
12	0	0	0	0	511	510	0	0	
13	0	0	0	0	510	508	0	0	
14	0	0	0	0	511	508	0	0	
15	0	0	0	0	511	510	0	0	
0	0	0	0	0	509	510	0	0	
1	0	0	0	0	512	508	0	0	
2	0	0	0	0	513	507	0	0	
3	0	0	0	0	513	507	0	0	
4	0	0	0	0	511	509	0	0	
5	0	0	0	0	510	510	0	0	
6	0	0	0	0	510	508	0	0	
7	0	0	0	0	512	508	0	0	
8	0	0	0	0	511	506	0	0	
9	0	0	0	0	511	507	0	0	
10	0	0	0	0	512	507	0	0	
11	0	0	0	0	512	507	0	0	
12	0	0	0	0	510	507	0	0	
13	0	0	0	0	508	507	0	0	
14	0	0	0	0	511	507	0	0	
15	0	0	0	0	511	509	0	0	
0	0	0	0	0	510	507	0	0	
1	0	0	0	0	511	508	0	0	
2	0	0	0	0	509	508	0	0	
3	0	0	0	0	508	509	0	0	
4	0	0	0	0	512	510	0	0	
5	0	0	0	0	512	511	0	0	
6	0	0	0	0	511	510	0	0	
7	0	0	0	0	511	509	0	0	
8	0	0	0	0	511	507	0	0	
9	0	0	0	0	511	508	0	0	
10	0	0	0	0	513	509	0	0	
11	0	0	0	0	514	506	0	0	
12	0	0	0	0	512	505	0	0	
13	0	0	0	0	510	508	0	0	
14	0	0	0	0	512	509	0	0	
15	0	0	0	0	512	508	0	0	
0	0	0	0	0	511	505	0	0	
1	0	0	0	0	507	508	0	0	
2	0	0	0	0	511	507	0	0	
3	0	0	0	0	509	508	0	0	
4	0	0	0	0	510	509	0	0	
5	0	0	0	0	510	508	0	0	
6	0	0	0	0	511	509	0	0	
7	0	0	0	0	512	509	0	0	
8	0	0	0	0	512	509	0	0	
9	0	0	0	0	513	509	0	0	
10	0	0	0	0	514	508	0	0	
11	0	0	0	0	513	508	0	0	
12	0	0	0	0	511	508	0	0	
13	0	0	0	0	511	507	0	0	
14	0	0	0	0	511	508	0	0	
15	0	0	0	0	511	508	0	0	
0	0	0	0	0	512	506	0	0	
1	0	0	0	0	510	507	0	0	
2	0	0	0	0	509	508	0	0	
3	0	0	0	0	511	508	0	0	
4	0	0	0	0	509	507	0	0	
5	0	0	0	0	510	507	0	0	
6	0	0	0	0	508	508	0	0	
7	0	0	0	0	511	508	0	0	
8	0	0	0	0	509	507	0	0	
9	0	0	0	0	511	507	0	0	
10	0	0	0	0	510	509	0	0	
11	0	0	0	0	510	508	0	0	
12	0	0	0	0	514	507	0	0	
13	0	0	0	0	514	509	0	0	
14	0	0	0	0	514	508	0	0	
15	0	0	0	0	511	508	0	0	
0	0	0	0	0	513	509	0	0	
1	0	0	0	0	514	508	0	0	
2	0	0	0	0	513	508	0	0	
3	0	0	0	0	512	508	0	0	
4	0	0	0	0	513	508	0	0	
5	0	0	0	0	511	506	0	0	
6	0	0	0	0	507	508	0	0	
7	0	0	0	0	508	509	0	0	
8	0	0	0	0	509	508	0	0	
9	0	0	0	0	511	508	0	0	
10	0	0	0	0	512	506	0	0	
11	0	0	0	0	509	508	0	0	
12	0	0	0	0	510	508	0	0	
13	0	0	0	0	510	508	0	0	
14	0	0	0	0	510	510	0	0	
15	0	0	0	0	510	510	0	0	
0	0	0	0	0	512	508	0	0	
1	0	0	0	0	513	509	0	0	
2	0	0	0	0	510	507	0	0	
3	0	0	0	0	513	510	0	0	
4	0	0	0	0	511	508	0	0	
5	0	0	0	0	510	507	0	0	
6	0	0	0	0	511	506	0	0	
7	0	0	0	0	511	506	0	0	
8	0	0	0	0	512	505	0	0	
9	0	0	0	0	514	508	0	0	
10	0	0	0	0	515	506	0	0	
11	0	0	0	0	511	507	0	0	
12	0	0	0	0	512	508	0	0	
13	0	0	0	0	509	508	0	0	
14	0	0	0	0	511	508	0	0	
15	0	0	0	0	512	507	0	0	
0	0	0	0	0	510	508	0	0	
1	0	0	0	0	508	509	0	0	
2	0	0	0	0	509	511	0	0	
3	0	0	0	0	510	508	0	0	
4	0	0	0	0	512	508	0	0	
5	0	0	0	0	511	509	0	0	
6	0	0	0	0	512	509	0	0	
7	0	0	0	0	510	508	0	0	
8	0	0	0	0	510	509	0	0	
9	0	0	0	0	510	508	0	0	
10	0	0	0	0	512	507	0	0	
11	0	0	0	0	511	507	0	0	
12	0	0	0	0	511	507	0	0	
13	0	0	0	0	511	507	0	0	
14	0	0	0	0	512	506	0	0	
15	0	0	0	0	509	508	0	0	
0	0	0	0	0	510	508	0	0	
1	0	0	0	0	510	508	0	0	
2	0	0	0	0	514	507	0	0	
3	0	0	0	0	510	507	0	0	
4	0	0	0	0	509	509	0	0	
5	0	0	0	0	508	509	0	0	
6	0	0	0	0	508	509	0	0	
7	0	0	0	0	512	507	0	0	
8	0	0	0	0	513	510	0	0	
9	0	0	0	0	512	509	0	0	
10	0	0	0	0	512	507	0	0	
11	0	0	0	0	511	508	0	0	
12	0	0	0	0	508	508	0	0	
13	0	0	0	0	512	509	0	0	
14	0	0	0	0	513	508	0	0	
15	0	0	0	0	512	507	0	0	
0	0	0	0	0	510	507	0	0	
1	0	0	0	0	510	507	0	0	
2	0	0	0	0	511	507	0	0	
3	0	0	0	0	511	508	0	0	
4	0	0	0	0	511	508	0	0	
5	0	0	0	0	509	507	0	0	
6	0	0	0	0	509	507	0	0	
7	0	0	0	0	511	507	0	0	
8	0	0	0	0	511	509	0	0	
9	0	0	0	0	512	509	0	0	
10	0	0	0	0	509	509	0	0	
11	0	0	0	0	511	510	0	0	
12	0	0	0	0	511	508	0	0	
13	0	0	0	0	510	508	0	0	
14	0	0	0	0	512	508	0	0	
15	0	0	0	0	512	507	0	0	
0	0	0	0	0	512	509	0	0	
1	0	0	0	0	511	508	0	0	
2	0	0	0	0	512	509	0	0	
3	0	0	0	0	513	507	0	0	
4	0	0	0	0	510	507	0	0	
5	0	0	0	0	509	507	0	0	
6	0	0	0	0	509	509	0	0	
7	0	0	0	0	510	506	0	0	
8	0	0	0	0	512	507	0	0	
9	0	0	0	0	510	507	0	0	
10	0	0	0	0	510	505	0	0	
11	0	0	0	0	511	506	0	0	
12	0	0	0	0	509	507	0	0	
13	0	0	0	0	509	510	0	0	
14	0	0	0	0	511	510	0	0	
15	0	0	0	0	514	509	0	0	
0	0	0	0	0	510	511	0	0	
1	0	0	0	0	511	510	0	0	
2	0	0	0	0	511	508	0	0	
3	0	0	0	0	512	508	0	0	
4	0	0	0	0	510	509	0	0	
5	0	0	0	0	510	509	0	0	
6	0	0	0	0	512	507	0	0	
7	0	0	0	0	512	506	0	0	
8	0	0	0	0	510	507	0	0	
9	0	0	0	0	508	507	0	0	
10	0	0	0	0	509	507	0	0	
11	0	0	0	0	510	508	0	0	
12	0	0	0	0	511	507	0	0	
13	0	0	0	0	512	508	0	0	
14	0	0	0	0	512	506	0	0	
15	0	0	0	0	513	508	0	0	
0	0	0	0	0	511	508	0	0	
1	0	0	0	0	510	511	0	0	
2	0	0	0	0	513	508	0	0	
3	0	0	0	0	514	509	0	0	
4	0	0	0	0	511	510	0	0	
5	0	0	0	0	510	509	0	0	
6	0	0	0	0	511	508	0	0	
7	0	0	0	0	511	508	0	0	
8	0	0	0	0	511	509	0	0	
9	0	0	0	0	510	508	0	0	
10	0	0	0	0	510	508	0	0	
11	0	0	0	0	511	507	0	0	
12	0	0	0	0	510	508	0	0	
13	0	0	0	0	510	507	0	0	
14	0	0	0	0	508	507	0	0	
15	0	0	0	0	510	507	0	0	
0	0	0	0	0	509	508	0	0	
1	0	0	0	0	510	508	0	0	
2	0	0	0	0	508	508	0	0	
3	0	0	0	0	510	508	0	0	
4	0	0	0	0	513	508	0	0	
5	0	0	0	0	514	508	0	0	
6	0	0	0	0	508	509	0	0	
7	0	0	0	0	510	508	0	0	
8	0	0	0	0	511	509	0	0	
9	0	0	0	0	511	508	0	0	
10	0	0	0	0	512	509	0	0	
11	0	0	0	0	511	508	0	0	
12	0	0	0	0	511	509	0	0	
13	0	0	0	0	511	509	0	0	
14	0	0	0	0	511	508	0	0	
15	0	0	0	0	510	504	0	0	
0	0	0	0	0	512	506	0	0	
1	0	0	0	0	513	505	0	0	
2	0	0	0	0	511	506	0	0	
3	0	0	0	0	507	508	0	0	
4	0	0	0	0	511	507	0	0	
5	0	0	0	0	509	508	0	0	
6	0	0	0	0	511	507	0	0	
7	0	0	0	0	509	510	0	0	
8	0	0	0	0	508	507	0	0	
9	0	0	0	0	511	507	0	0	
10	0	0	0	0	511	508	0	0	
11	0	0	0	0	512	510	0	0	
12	0	0	0	0	513	509	0	0	
13	0	0	0	0	514	508	0	0	
14	0	0	0	0	514	508	0	0	
15	0	0	0	0	513	511	0	0	
0	0	0	0	0	511	509	0	0	
1	0	0	0	0	511	510	0	0	
2	0	0	0	0	511	508	0	0	
3	0	0	0	0	510	507	0	0	
4	0	0	0	0	511	506	0	0	
5	0	0	0	0	512	508	0	0	
6	0	0	0	0	510	508	0	0	
7	0	0	0	0	512	508	0	0	
8	0	0	0	0	509	507	0	0	
9	0	0	0	0	509	508	0	0	
10	0	0	0	0	508	507	0	0	
11	0	0	0	0	512	507	0	0	
12	0	0	0	0	508	509	0	0	
13	0	0	0	0	509	509	0	0	
14	0	0	0	0	511	508	0	0	
15	0	0	0	0	510	509	0	0	
0	0	0	0	0	509	510	0	0	
1	0	0	0	0	512	507	0	0	
2	0	0	0	0	512	508	0	0	
3	0	0	0	0	515	509	0	0	
4	0	0	0	0	514	509	0	0	
5	0	0	0	0	513	508	0	0	
6	0	0	0	0	512	509	0	0	
7	0	0	0	0	512	507	0	0	
8	0	0	0	0	510	508	0	0	
9	0	0	0	0	512	507	0	0	
10	0	0	0	0	511	507	0	0	
11	0	0	0	0	510	507	0	0	
12	0	0	0	0	509	508	0	0	
13	0	0	0	0	508	509	0	0	
14	0	0	0	0	512	506	0	0	
15	0	0	0	0	511	508	0	0	
0	0	0	0	0	509	508	0	0	
1	0	0	0	0	510	506	0	0	
2	0	0	0	0	511	510	0	0	
3	0	0	0	0	510	509	0	0	
4	0	0	0	0	513	509	0	0	
5	0	0	0	0	514	510	0	0	
6	0	0	0	0	511	509	0	0	
7	0	0	0	0	512	510	0	0	
8	0	0	0	0	511	508	0	0	
9	0	0	0	0	514	508	0	0	
10	0	0	0	0	511	507	0	0	
11	0	0	0	0	510	506	0	0	
12	0	0	0	0	511	505	0	0	
13	0	0	0	0	510	507	0	0	
14	0	0	0	0	511	506	0	0	
15	0	0	0	0	511	508	0	0	
0	0	0	0	0	510	508	0	0	
1	0	0	0	0	509	508	0	0	
2	0	0	0	0	511	509	0	0	
3	0	0	0	0	512	508	0	0	
4	0	0	0	0	509	507	0	0	
5	0	0	0	0	508	508	0	0	
6	0	0	0	0	511	508	0	0	
7	0	0	0	0	513	507	0	0	
8	0	0	0	0	511	511	0	0	
9	0	0	0	0	513	509	0	0	
10	0	0	0	0	512	508	0	0	
11	0	0	0	0	511	507	0	0	
12	0	0	0	0	511	508	0	0	
13	0	0	0	0	509	509	0	0	
14	0	0	0	0	510	510	0	0	
15	0	0	0	0	508	508	0	0	
0	0	0	0	0	513	507	0	0	
1	0	0	0	0	515	506	0	0	
2	0	0	0	0	515	506	0	0	
3	0	0	0	0	513	507	0	0	
4	0	0	0	0	510	506	0	0	
5	0	0	0	0	511	510	0	0	
6	0	0	0	0	512	510	0	0	
7	0	0	0	0	511	507	0	0	
8	0	0	0	0	508	507	0	0	
9	0	0	0	0	510	508	0	0	
10	0	0	0	0	512	508	0	0	
11	0	0	0	0	510	509	0	0	
12	0	0	0	0	511	510	0	0	
13	0	0	0	0	513	508	0	0	
14	0	0	0	0	512	508	0	0	
15	0	0	0	0	510	508	0	0	
0	0	0	0	0	509	508	0	0	
1	0	0	0	0	511	509	0	0	
2	0	0	0	0	512	508	0	0	
3	0	0	0	0	512	508	0	0	
4	0	0	0	0	511	508	0	0	
5	0	0	0	0	510	507	0	0	
6	0	0	0	0	510	509	0	0	
7	0	0	0	0	510	508	0	0	
8	0	0	0	0	508	507	0	0	
9	0	0	0	0	509	507	0	0	
10	0	0	0	0	511	507	0	0	
11	0	0	0	0	514	507	0	0	
12	0	0	0	0	512	508	0	0	
13	0	0	0	0	508	507	0	0	
14	0	0	0	0	508	508	0	0	
15	0	0	0	0	509	509	0	0	
0	0	0	0	0	512	510	0	0	
1	0	0	0	0	511	509	0	0	
2	0	0	0	0	511	508	0	0	
3	0	0	0	0	512	511	0	0	
4	0	0	0	0	512	510	0	0	
5	0	0	0	0	510	508	0	0	
6	0	0	0	0	513	507	0	0	
7	0	0	0	0	514	507	0	0	
8	0	0	0	0	514	505	0	0	
9	0	0	0	0	513	506	0	0	
10	0	0	0	0	511	507	0	0	
11	0	0	0	0	512	507	0	0	
12	0	0	0	0	508	507	0	0	
13	0	0	0	0	507	509	0	0	
14	0	0	0	0	508	508	0	0	
15	0	0	0	0	509	507	0	0	
0	0	0	0	0	510	508	0	0	
1	0	0	0	0	511	509	0	0	
2	0	0	0	0	511	510	0	0	
3	0	0	0	0	510	507	0	0	
4	0	0	0	0	512	509	0	0	
5	0	0	0	0	511	510	0	0	
6	0	0	0	0	510	508	0	0	
7	0	0	0	0	511	508	0	0	
8	0	0	0	0	510	510	0	0	
9	0	0	0	0	512	508	0	0	
10	0	0	0	0	511	508	0	0	
11	0	0	0	0	512	505	0	0	
12	0	0	0	0	510	506	0	0	
13	0	0	0	0	512	507	0	0	
14	0	0	0	0	508	509	0	0	
15	0	0	0	0	511	508	0	0	
0	0	0	0	0	510	507	0	0	
1	0	0	0	0	510	508	0	0	
2	0	0	0	0	511	506	0	0	
3	0	0	0	0	512	508	0	0	
4	0	0	0	0	508	505	0	0	
5	0	0	0	0	510	508	0	0	
6	0	0	0	0	514	508	0	0	
7	0	0	0	0	512	510	0	0	
8	0	0	0	0	511	509	0	0	
9	0	0	0	0	511	507	0	0	
10	0	0	0	0	512	508	0	0	
11	0	0	0	0	513	507	0	0	
12	0	0	0	0	512	508	0	0	
13	0	0	0	0	512	509	0	0	
14	0	0	0	0	511	508	0	0	
15	0	0	0	0	511	505	0	0	
0	0	0	0	0	509	508	0	0	
1	0	0	0	0	508	508	0	0	
2	0	0	0	0	509	508	0	0	
3	0	0	0	0	509	507	0	0	
4	0	0	0	0	511	507	0	0	
5	0	0	0	0	512	507	0	0	
6	0	0	0	0	512	508	0	0	
7	0	0	0	0	511	507	0	0	
8	0	0	0	0	509	510	0	0	
9	0	0	0	0	511	509	0	0	
10	0	0	0	0	512	509	0	0	
11	0	0	0	0	509	508	0	0	
12	0	0	0	0	510	509	0	0	
13	0	0	0	0	511	507	0	0	
14	0	0	0	0	511	509	0	0	
15	0	0	0	0	512	510	0	0	
0	0	0	0	0	509	507	0	0	
1	0	0	0	0	511	508	0	0	
2	0	0	0	0	511	508	0	0	
3	0	0	0	0	512	506	0	0	
4	0	0	0	0	511	507	0	0	
5	0	0	0	0	510	505	0	0	
6	0	0	0	0	510	507	0	0	
7	0	0	0	0	511	508	0	0	
8	0	0	0	0	512	507	0	0	
9	0	0	0	0	511	507	0	0	
10	0	0	0	0	510	507	0	0	
11	0	0	0	0	511	509	0	0	
12	0	0	0	0	509	508	0	0	
13	0	0	0	0	510	508	0	0	
14	0	0	0	0	512	508	0	0	
15	0	0	0	0	511	508	0	0	
0	0	0	0	0	513	508	0	0	
1	0	0	0	0	513	509	0	0	
2	0	0	0	0	511	508	0	0	
3	0	0	0	0	510	506	0	0	
4	0	0	0	0	508	508	0	0	
5	0	0	0	0	510	510	0	0	
6	0	0	0	0	513	510	0	0	
7	0	0	0	0	513	507	0	0	
8	0	0	0	0	511	507	0	0	
9	0	0	0	0	512	508	0	0	
10	0	0	0	0	512	507	0	0	
11	0	0	0	0	511	506	0	0	
12	0	0	0	0	509	508	0	0	
13	0	0	0	0	509	507	0	0	
14	0	0	0	0	511	506	0	0	
15	0	0	0	0	511	504	0	0	
0	0	0	0	0	508	508	0	0	
1	0	0	0	0	508	510	0	0	
2	0	0	0	0	515	508	0	0	
3	0	0	0	0	512	508	0	0	
4	0	0	0	0	510	509	0	0	
5	0	0	0	0	512	509	0	0	
6	0	0	0	0	511	508	0	0	
7	0	0	0	0	511	509	0	0	
8	0	0	0	0	510	508	0	0	
9	0	0	0	0	510	511	0	0	
10	0	0	0	0	513	507	0	0	
11	0	0	0	0	510	506	0	0	
12	0	0	0	0	509	509	0	0	
13	0	0	0	0	510	507	0	0	
14	0	0	0	0	513	508	0	0	
15	0	0	0	0	510	507	0	0	
0	0	0	0	0	510	506	0	0	
1	0	0	0	0	512	507	0	0	
2	0	0	0	0	514	507	0	0	
3	0	0	0	0	509	507	0	0	
4	0	0	0	0	507	508	0	0	
5	0	0	0	0	509	508	0	0	
6	0	0	0	0	512	508	0	0	
7	0	0	0	0	510	509	0	0	
8	0	0	0	0	512	509	0	0	
9	0	0	0	0	512	507	0	0	
10	0	0	0	0	514	509	0	0	
11	0	0	0	0	514	509	0	0	
12	0	0	0	0	512	509	0	0	
13	0	0	0	0	512	508	0	0	
14	0	0	0	0	510	509	0	0	
15	0	0	0	0	510	507	0	0	
0	0	0	0	0	509	506	0	0	
1	0	0	0	0	511	507	0	0	
2	0	0	0	0	510	509	0	0	
3	0	0	0	0	512	508	0	0	
4	0	0	0	0	512	507	0	0	
5	0	0	0	0	509	507	0	0	
6	0	0	0	0	511	507	0	0	
7	0	0	0	0	509	506	0	0	
8	0	0	0	0	510	509	0	0	
9	0	0	0	0	511	509	0	0	
10	0	0	0	0	513	509	0	0	
11	0	0	0	0	510	510	0	0	
12	0	0	0	0	511	508	0	0	
13	0	0	0	0	512	508	0	0	
14	0	0	0	0	510	507	0	0	
15	0	0	0	0	510	508	0	0	
0	0	0	0	0	511	508	0	0	
1	0	0	0	0	514	507	0	0	
2	0	0	0	0	517	508	0	0	
3	0	0	0	0	510	507	0	0	
4	0	0	0	0	510	507	0	0	
5	0	0	0	0	509	508	0	0	
6	0	0	0	0	511	509	0	0	
7	0	0	0	0	511	506	0	0	
8	0	0	0	0	512	507	0	0	
9	0	0	0	0	511	507	0	0	
10	0	0	0	0	511	506	0	0	
11	0	0	0	0	510	508	0	0	
12	0	0	0	0	510	507	0	0	
13	0	0	0	0	511	509	0	0	
14	0	0	0	0	513	510	0	0	
15	0	0	0	0	511	510	0	0	
0	0	0	0	0	511	508	0	0	
1	0	0	0	0	512	510	0	0	
2	0	0	0	0	511	508	0	0	
3	0	0	0	0	510	508	0	0	
4	0	0	0	0	510	509	0	0	
5	0	0	0	0	510	508	0	0	
6	0	0	0	0	512	508	0	0	
7	0	0	0	0	511	509	0	0	
8	0	0	0	0	512	505	0	0	
9	0	0	0	0	512	507	0	0	
10	0	0	0	0	510	507	0	0	
11	0	0	0	0	510	508	0	0	
12	0	0	0	0	511	508	0	0	
13	0	0	0	0	509	509	0	0	
14	0	0	0	0	511	507	0	0	
15	0	0	0	0	510	507	0	0	
0	0	0	0	0	513	511	0	0	
1	0	0	0	0	511	509	0	0	
2	0	0	0	0	510	506	0	0	
3	0	0	0	0	509	508	0	0	
4	0	0	0	0	511	508	0	0	
5	0	0	0	0	511	508	0	0	
6	0	0	0	0	512	508	0	0	
7	0	0	0	0	512	506	0	0	
8	0	0	0	0	512	510	0	0	
9	0	0	0	0	512	507	0	0	
10	0	0	0	0	511	509	0	0	
11	0	0	0	0	510	507	0	0	
12	0	0	0	0	513	506	0	0	
13	0	0	0	0	513	508	0	0	
14	0	0	0	0	512	507	0	0	
15	0	0	0	0	511	506	0	0	
0	0	0	0	0	508	508	0	0	
1	0	0	0	0	511	508	0	0	
2	0	0	0	0	511	508	0	0	
3	0	0	0	0	508	505	0	0	
4	0	0	0	0	510	508	0	0	
5	0	0	0	0	511	508	0	0	
6	0	0	0	0	512	509	0	0	
7	0	0	0	0	512	510	0	0	
8	0	0	0	0	514	508	0	0	
9	0	0	0	0	510	509	0	0	
10	0	0	0	0	510	507	0	0	
11	0	0	0	0	510	510	0	0	
12	0	0	0	0	511	509	0	0	
13	0	0	0	0	511	508	0	0	
14	0	0	0	0	512	508	0	0	
15	0	0	0	0	510	506	0	0	
0	0	0	0	0	510	507	0	0	
1	0	0	0	0	513	508	0	0	
2	0	0	0	0	513	507	0	0	
3	0	0	0	0	509	507	0	0	
4	0	0	0	0	508	507	0	0	
5	0	0	0	0	510	507	0	0	
6	0	0	0	0	512	506	0	0	
7	0	0	0	0	509	508	0	0	
8	0	0	0	0	509	509	0	0	
9	0	0	0	0	510	509	0	0	
10	0	0	0	0	510	507	0	0	
11	0	0	0	0	510	509	0	0	
12	0	0	0	0	511	509	0	0	
13	0	0	0	0	514	509	0	0	
14	0	0	0	0	512	508	0	0	
15	0	0	0	0	511	508	0	0	
0	0	0	0	0	510	508	0	0	
1	0	0	0	0	512	507	0	0	
2	0	0	0	0	512	508	0	0	
3	0	0	0	0	511	506	0	0	
4	0	0	0	0	513	508	0	0	
5	0	0	0	0	512	507	0	0	
6	0	0	0	0	508	508	0	0	
7	0	0	0	0	508	507	0	0	
8	0	0	0	0	511	507	0	0	
9	0	0	0	0	508	506	0	0	
10	0	0	0	0	512	505	0	0	
11	0	0	0	0	512	508	0	0	
12	0	0	0	0	508	508	0	0	
13	0	0	0	0	510	511	0	0	
14	0	0	0	0	514	508	0	0	
15	0	0	0	0	511	509	0	0	
0	0	0	0	0	512	511	0	0	
1	0	0	0	0	512	510	0	0	
2	0	0	0	0	511	508	0	0	
3	0	0	0	0	511	509	0	0	
4	0	0	0	0	511	510	0	0	
5	0	0	0	0	511	508	0	0	
6	0	0	0	0	510	507	0	0	
7	0	0	0	0	510	507	0	0	
8	0	0	0	0	511	507	0	0	
9	0	0	0	0	512	506	0	0	
10	0	0	0	0	513	506	0	0	
11	0	0	0	0	513	507	0	0	
12	0	0	0	0	510	508	0	0	
13	0	0	0	0	509	507	0	0	
14	0	0	0	0	512	506	0	0	
15	0	0	0	0	512	505	0	0	
0	0	0	0	0	507	508	0	0	
1	0	0	0	0	511	509	0	0	
2	0	0	0	0	511	509	0	0	
3	0	0	0	0	510	512	0	0	
4	0	0	0	0	512	508	0	0	
5	0	0	0	0	510	508	0	0	
6	0	0	0	0	510	508	0	0	
7	0	0	0	0	513	508	0	0	
8	0	0	0	0	513	510	0	0	
9	0	0	0	0	511	510	0	0	
10	0	0	0	0	510	507	0	0	
11	0	0	0	0	512	508	0	0	
12	0	0	0	0	509	507	0	0	
13	0	0	0	0	512	506	0	0	
14	0	0	0	0	512	507	0	0	
15	0	0	0	0	511	506	0	0	
0	0	0	0	0	511	507	0	0	
1	0	0	0	0	509	507	0	0	
2	0	0	0	0	511	507	0	0	
3	0	0	0	0	508	508	0	0	
4	0	0	0	0	507	509	0	0	
5	0	0	0	0	512	509	0	0	
6	0	0	0	0	510	510	0	0	
7	0	0	0	0	509	510	0	0	
8	0	0	0	0	514	508	0	0	
9	0	0	0	0	516	508	0	0	
10	0	0	0	0	511	508	0	0	
11	0	0	0	0	513	509	0	0	
12	0	0	0	0	510	511	0	0	
13	0	0	0	0	512	507	0	0	
14	0	0	0	0	512	510	0	0	
15	0	0	0	0	510	508	0	0	
0	0	0	0	0	511	505	0	0	
1	0	0	0	0	510	507	0	0	
2	0	0	0	0	509	505	0	0	
3	0	0	0	0	510	509	0	0	
4	0	0	0	0	513	507	0	0	
5	0	0	0	0	511	509	0	0	
6	0	0	0	0	511	506	0	0	
7	0	0	0	0	511	506	0	0	
8	0	0	0	0	512	509	0	0	
9	0	0	0	0	509	510	0	0	
10	0	0	0	0	507	509	0	0	
11	0	0	0	0	510	510	0	0	
12	0	0	0	0	511	510	0	0	
13	0	0	0	0	510	508	0	0	
14	0	0	0	0	512	509	0	0	
15	0	0	0	0	515	508	0	0	
0	0	0	0	0	511	509	0	0	
1	0	0	0	0	509	509	0	0	
2	0	0	0	0	510	507	0	0	
3	0	0	0	0	510	505	0	0	
4	0	0	0	0	512	506	0	0	
5	0	0	0	0	512	507	0	0	
6	0	0	0	0	511	508	0	0	
7	0	0	0	0	508	507	0	0	
8	0	0	0	0	509	508	0	0	
9	0	0	0	0	509	508	0	0	
10	0	0	0	0	510	505	0	0	
11	0	0	0	0	512	509	0	0	
12	0	0	0	0	511	508	0	0	
13	0	0	0	0	513	508	0	0	
14	0	0	0	0	514	508	0	0	
15	0	0	0	0	512	509	0	0	
0	0	0	0	0	511	510	0	0	
1	0	0	0	0	511	509	0	0	
2	0	0	0	0	512	510	0	0	
3	0	0	0	0	512	507	0	0	
4	0	0	0	0	509	509	0	0	
5	0	0	0	0	511	507	0	0	
6	0	0	0	0	512	508	0	0	
7	0	0	0	0	511	508	0	0	
8	0	0	0	0	511	508	0	0	
9	0	0	0	0	511	509	0	0	
10	0	0	0	0	511	508	0	0	
11	0	0	0	0	510	505	0	0	
12	0	0	0	0	510	507	0	0	
13	0	0	0	0	510	508	0	0	
14	0	0	0	0	508	505	0	0	
15	0	0	0	0	509	508	0	0	
0	0	0	0	0	511	510	0	0	
1	0	0	0	0	511	508	0	0	
2	0	0	0	0	513	511	0	0	
3	0	0	0	0	510	509	0	0	
4	0	0	0	0	509	508	0	0	
5	0	0	0	0	511	508	0	0	
6	0	0	0	0	512	509	0	0	
7	0	0	0	0	512	508	0	0	
8	0	0	0	0	512	509	0	0	
9	0	0	0	0	512	508	0	0	
10	0	0	0	0	511	508	0	0	
11	0	0	0	0	510	507	0	0	
12	0	0	0	0	511	506	0	0	
13	0	0	0	0	510	508	0	0	
14	0	0	0	0	511	508	0	0	
15	0	0	0	0	508	509	0	0	
0	0	0	0	0	509	509	0	0	
1	0	0	0	0	510	507	0	0	
2	0	0	0	0	509	507	0	0	
3	0	0	0	0	509	507	0	0	
4	0	0	0	0	511	508	0	0	
5	0	0	0	0	512	507	0	0	
6	0	0	0	0	514	509	0	0	
7	0	0	0	0	512	508	0	0	
8	0	0	0	0	510	508	0	0	
9	0	0	0	0	514	507	0	0	
10	0	0	0	0	513	508	0	0	
11	0	0	0	0	511	508	0	0	
12	0	0	0	0	511	511	0	0	
13	0	0	0	0	512	509	0	0	
14	0	0	0	0	511	508	0	0	
15	0	0	0	0	513	508	0	0	
0	0	0	0	0	512	508	0	0	
1	0	0	0	0	510	508	0	0	
2	0	0	0	0	511	505	0	0	
3	0	0	0	0	510	508	0	0	
4	0	0	0	0	511	509	0	0	
5	0	0	0	0	511	507	0	0	
6	0	0	0	0	511	508	0	0	
7	0	0	0	0	511	506	0	0	
8	0	0	0	0	510	506	0	0	
9	0	0	0	0	508	508	0	0	
10	0	0	0	0	510	509	0	0	
11	0	0	0	0	510	508	0	0	
12	0	0	0	0	512	510	0	0	
13	0	0	0	0	513	511	0	0	
14	0	0	0	0	512	507	0	0	
15	0	0	0	0	510	507	0	0	
0	0	0	0	0	511	508	0	0	
1	0	0	0	0	509	507	0	0	
2	0	0	0	0	513	508	0	0	
3	0	0	0	0	513	506	0	0	
4	0	0	0	0	511	508	0	0	
5	0	0	0	0	511	508	0	0	
6	0	0	0	0	510	508	0	0	
7	0	0	0	0	510	506	0	0	
8	0	0	0	0	511	508	0	0	
9	0	0	0	0	510	508	0	0	
10	0	0	0	0	511	507	0	0	
11	0	0	0	0	511	506	0	0	
12	0	0	0	0	510	510	0	0	
13	0	0	0	0	510	508	0	0	
14	0	0	0	0	510	509	0	0	
15	0	0	0	0	511	509	0	0	
0	0	0	0	0	512	508	0	0	
1	0	0	0	0	514	508	0	0	
2	0	0	0	0	511	508	0	0	
3	0	0	0	0	511	507	0	0	
4	0	0	0	0	511	510	0	0	
5	0	0	0	0	512	508	0	0	
6	0	0	0	0	511	508	0	0	
7	0	0	0	0	512	507	0	0	
8	0	0	0	0	512	507	0	0	
9	0	0	0	0	511	507	0	0	
10	0	0	0	0	512	507	0	0	
11	0	0	0	0	512	508	0	0	
12	0	0	0	0	510	507	0	0	
13	0	0	0	0	507	508	0	0	
14	0	0	0	0	510	510	0	0	
15	0	0	0	0	511	507	0	0	
0	0	0	0	0	511	508	0	0	
1	0	0	0	0	511	508	0	0	
2	0	0	0	0	511	510	0	0	
3	0	0	0	0	512	508	0	0	
4	0	0	0	0	512	507	0	0	
5	0	0	0	0	510	509	0	0	
6	0	0	0	0	511	508	0	0	
7	0	0	0	0	510	508	0	0	
8	0	0	0	0	511	508	0	0	
9	0	0	0	0	511	509	0	0	
10	0	0	0	0	513	507	0	0	
11	0	0	0	0	514	507	0	0	
12	0	0	0	0	512	509	0	0	
13	0	0	0	0	511	507	0	0	
14	0	0	0	0	510	508	0	0	
15	0	0	0	0	509	507	0	0	
0	0	0	0	0	510	506	0	0	
1	0	0	0	0	508	509	0	0	
2	0	0	0	0	513	506	0	0	
3	0	0	0	0	509	507	0	0	
4	0	0	0	0	506	508	0	0	
5	0	0	0	0	511	508	0	0	
6	0	0	0	0	513	509	0	0	
7	0	0	0	0	512	509	0	0	
8	0	0	0	0	510	511	0	0	
9	0	0	0	0	510	509	0	0	
10	0	0	0	0	510	508	0	0	
11	0	0	0	0	514	507	0	0	
12	0	0	0	0	511	508	0	0	
13	0	0	0	0	512	508	0	0	
14	0	0	0	0	511	508	0	0	
15	0	0	0	0	510	508	0	0	
0	0	0	0	0	511	507	0	0	
1	0	0	0	0	512	510	0	0	
2	0	0	0	0	514	508	0	0	
3	0	0	0	0	515	508	0	0	
4	0	0	0	0	512	505	0	0	
5	0	0	0	0	511	509	0	0	
6	0	0	0	0	511	508	0	0	
7	0	0	0	0	511	507	0	0	
8	0	0	0	0	507	510	0	0	
9	0	0	0	0	508	507	0	0	
10	0	0	0	0	510	510	0	0	
11	0	0	0	0	508	508	0	0	
12	0	0	0	0	511	508	0	0	
13	0	0	0	0	514	508	0	0	
14	0	0	0	0	514	508	0	0	
15	0	0	0	0	513	509	0	0	
0	0	0	0	0	511	511	0	0	
1	0	0	0	0	512	508	0	0	
2	0	0	0	0	512	508	0	0	
3	0	0	0	0	511	507	0	0	
4	0	0	0	0	510	507	0	0	
5	0	0	0	0	512	506	0	0	
6	0	0	0	0	509	507	0	0	
7	0	0	0	0	507	507	0	0	
8	0	0	0	0	511	506	0	0	
9	0	0	0	0	510	508	0	0	
10	0	0	0	0	507	507	0	0	
11	0	0	0	0	510	509	0	0	
12	0	0	0	0	511	509	0	0	
13	0	0	0	0	511	509	0	0	
14	0	0	0	0	512	510	0	0	
15	0	0	0	0	509	508	0	0	
0	0	0	0	0	512	506	0	0	
1	0	0	0	0	512	510	0	0	
2	0	0	0	0	513	507	0	0	
3	0	0	0	0	513	508	0	0	
4	0	0	0	0	509	509	0	0	
5	0	0	0	0	509	508	0	0	
6	0	0	0	0	511	508	0	0	
7	0	0	0	0	510	507	0	0	
8	0	0	0	0	512	508	0	0	
9	0	0	0	0	513	508	0	0	
10	0	0	0	0	511	505	0	0	
11	0	0	0	0	510	508	0	0	
12	0	0	0	0	511	510	0	0	
13	0	0	0	0	511	508	0	0	
14	0	0	0	0	511	509	0	0	
15	0	0	0	0	511	505	0	0	
0	0	0	0	0	511	508	0	0	
1	0	0	0	0	511	508	0	0	
2	0	0	0	0	511	509	0	0	
3	0	0	0	0	511	508	0	0	
4	0	0	0	0	511	509	0	0	
5	0	0	0	0	513	510	0	0	
6	0	0	0	0	511	508	0	0	
7	0	0	0	0	513	510	0	0	
8	0	0	0	0	511	508	0	0	
9	0	0	0	0	512	510	0	0	
10	0	0	0	0	512	508	0	0	
11	0	0	0	0	513	505	0	0	
12	0	0	0	0	511	507	0	0	
13	0	0	0	0	511	508	0	0	
14	0	0	0	0	509	508	0	0	
15	0	0	0	0	510	508	0	0	
0	0	0	0	0	509	506	0	0	
1	0	0	0	0	505	507	0	0	
2	0	0	0	0	509	508	0	0	
3	0	0	0	0	510	507	0	0	
4	0	0	0	0	510	508	0	0	
5	0	0	0	0	512	508	0	0	
6	0	0	0	0	513	508	0	0	
7	0	0	0	0	513	509	0	0	
8	0	0	0	0	514	508	0	0	
9	0	0	0	0	515	508	0	0	
10	0	0	0	0	513	509	0	0	
11	0	0	0	0	511	509	0	0	
12	0	0	0	0	512	508	0	0	
13	0	0	0	0	511	509	0	0	
14	0	0	0	0	511	507	0	0	
15	0	0	0	0	510	507	0	0	
0	0	0	0	0	507	507	0	0	
1	0	0	0	0	512	506	0	0	
2	0	0	0	0	512	505	0	0	
3	0	0	0	0	510	508	0	0	
4	0	0	0	0	511	508	0	0	
5	0	0	0	0	512	508	0	0	
6	0	0	0	0	511	505	0	0	
7	0	0	0	0	510	508	0	0	
8	0	0	0	0	509	508	0	0	
9	0	0	0	0	512	510	0	0	
10	0	0	0	0	510	510	0	0	
11	0	0	0	0	509	510	0	0	
12	0	0	0	0	510	508	0	0	
13	0	0	0	0	513	507	0	0	
14	0	0	0	0	512	508	0	0	
15	0	0	0	0	511	509	0	0	
0	0	0	0	0	509	510	0	0	
1	0	0	0	0	510	508	0	0	
2	0	0	0	0	509	507	0	0	
3	0	0	0	0	508	508	0	0	
4	0	0	0	0	507	506	0	0	
5	0	0	0	0	512	509	0	0	
6	0	0	0	0	510	507	0	0	
7	0	0	0	0	511	508	0	0	
8	0	0	0	0	511	509	0	0	
9	0	0	0	0	510	508	0	0	
10	0	0	0	0	513	507	0	0	
11	0	0	0	0	511	507	0	0	
12	0	0	0	0	510	507	0	0	
13	0	0	0	0	512	507	0	0	
14	0	0	0	0	510	510	0	0	
15	0	0	0	0	510	507	0	0	
0	0	0	0	0	512	509	0	0	
1	0	0	0	0	512	508	0	0	
2	0	0	0	0	512	508	0	0	
3	0	0	0	0	513	509	0	0	
4	0	0	0	0	511	509	0	0	
5	0	0	0	0	510	507	0	0	
6	0	0	0	0	509	507	0	0	
7	0	0	0	0	512	508	0	0	
8	0	0	0	0	512	507	0	0	
9	0	0	0	0	511	508	0	0	
10	0	0	0	0	512	507	0	0	
11	0	0	0	0	511	507	0	0	
12	0	0	0	0	510	506	0	0	
13	0	0	0	0	509	507	0	0	
14	0	0	0	0	512	508	0	0	
15	0	0	0	0	511	507	0	0	
0	0	0	0	0	511	509	0	0	
1	0	0	0	0	510	507	0	0	
2	0	0	0	0	513	508	0	0	
3	0	0	0	0	509	508	0	0	
4	0	0	0	0	510	508	0	0	
5	0	0	0	0	512	509	0	0	
6	0	0	0	0	511	510	0	0	
7	0	0	0	0	511	509	0	0	
8	0	0	0	0	511	508	0	0	
9	0	0	0	0	512	510	0	0	
10	0	0	0	0	511	507	0	0	
11	0	0	0	0	510	507	0	0	
12	0	0	0	0	511	507	0	0	
13	0	0	0	0	512	504	0	0	
14	0	0	0	0	512	507	0	0	
15	0	0	0	0	510	509	0	0	
0	0	0	0	0	511	509	0	0	
1	0	0	0	0	513	509	0	0	
2	0	0	0	0	511	506	0	0	
3	0	0	0	0	511	507	0	0	
4	0	0	0	0	509	508	0	0	
5	0	0	0	0	508	506	0	0	
6	0	0	0	0	509	509	0	0	
7	0	0	0	0	512	509	0	0	
8	0	0	0	0	510	509	0	0	
9	0	0	0	0	512	511	0	0	
10	0	0	0	0	513	509	0	0	
11	0	0	0	0	515	508	0	0	
12	0	0	0	0	510	508	0	0	
13	0	0	0	0	508	509	0	0	
14	0	0	0	0	509	509	0	0	
15	0	0	0	0	509	507	0	0	
0	0	0	0	0	511	507	0	0	
1	0	0	0	0	512	506	0	0	
2	0	0	0	0	509	505	0	0	
3	0	0	0	0	511	507	0	0	
4	0	0	0	0	509	508	0	0	
5	0	0	0	0	510	509	0	0	
6	0	0	0	0	512	507	0	0	
7	0	0	0	0	514	507	0	0	
8	0	0	0	0	511	509	0	0	
9	0	0	0	0	509	507	0	0	
10	0	0	0	0	515	508	0	0	
11	0	0	0	0	513	507	0	0	
12	0	0	0	0	509	509	0	0	
13	0	0	0	0	510	509	0	0	
14	0	0	0	0	511	508	0	0	
15	0	0	0	0	510	509	0	0	
0	0	0	0	0	511	509	0	0	
1	0	0	0	0	513	510	0	0	
2	0	0	0	0	511	507	0	0	
3	0	0	0	0	511	506	0	0	
4	0	0	0	0	512	508	0	0	
5	0	0	0	0	513	508	0	0	
6	0	0	0	0	512	507	0	0	
7	0	0	0	0	511	507	0	0	
8	0	0	0	0	511	507	0	0	
9	0	0	0	0	508	508	0	0	
10	0	0	0	0	507	507	0	0	
11	0	0	0	0	509	507	0	0	
12	0	0	0	0	509	509	0	0	
13	0	0	0	0	509	508	0	0	
14	0	0	0	0	514	510	0	0	
15	0	0	0	0	515	510	0	0	
0	0	0	0	0	515	509	0	0	
1	0	0	0	0	516	510	0	0	
2	0	0	0	0	511	507	0	0	
3	0	0	0	0	509	508	0	0	
4	0	0	0	0	511	508	0	0	
5	0	0	0	0	510	508	0	0	
6	0	0	0	0	512	509	0	0	
7	0	0	0	0	511	508	0	0	
8	0	0	0	0	511	505	0	0	
9	0	0	0	0	512	507	0	0	
10	0	0	0	0	511	508	0	0	
11	0	0	0	0	508	508	0	0	
12	0	0	0	0	508	507	0	0	
13	0	0	0	0	510	508	0	0	
14	0	0	0	0	511	508	0	0	
15	0	0	0	0	511	508	0	0	
0	0	0	0	0	510	510	0	0	
1	0	0	0	0	509	510	0	0	
2	0	0	0	0	512	511	0	0	
3	0	0	0	0	512	507	0	0	
4	0	0	0	0	513	510	0	0	
5	0	0	0	0	511	508	0	0	
6	0	0	0	0	512	510	0	0	
7	0	0	0	0	511	510	0	0	
8	0	0	0	0	510	509	0	0	
9	0	0	0	0	511	507	0	0	
10	0	0	0	0	511	508	0	0	
11	0	0	0	0	511	505	0	0	
12	0	0	0	0	508	508	0	0	
13	0	0	0	0	511	506	0	0	
14	0	0	0	0	510	507	0	0	
15	0	0	0	0	511	507	0	0	
0	0	0	0	0	510	505	0	0	
1	0	0	0	0	510	507	0	0	
2	0	0	0	0	511	505	0	0	
3	0	0	0	0	510	506	0	0	
4	0	0	0	0	510	510	0	0	
5	0	0	0	0	511	507	0	0	
6	0	0	0	0	511	509	0	0	
7	0	0	0	0	511	509	0	0	
8	0	0	0	0	510	508	0	0	
9	0	0	0	0	510	509	0	0	
10	0	0	0	0	512	509	0	0	
11	0	0	0	0	511	508	0	0	
12	0	0	0	0	513	508	0	0	
13	0	0	0	0	516	508	0	0	
14	0	0	0	0	516	508	0	0	
15	0	0	0	0	514	508	0	0	
0	0	0	0	0	510	507	0	0	
1	0	0	0	0	511	505	0	0	
2	0	0	0	0	512	506	0	0	
3	0	0	0	0	509	508	0	0	
4	0	0	0	0	510	506	0	0	
5	0	0	0	0	510	507	0	0	
6	0	0	0	0	510	507	0	0	
7	0	0	0	0	508	507	0	0	
8	0	0	0	0	509	510	0	0	
9	0	0	0	0	511	509	0	0	
10	0	0	0	0	511	510	0	0	
11	0	0	0	0	511	510	0	0	
12	0	0	0	0	510	509	0	0	
13	0	0	0	0	514	510	0	0	
14	0	0	0	0	514	508	0	0	
15	0	0	0	0	515	506	0	0	
0	0	0	0	0	512	509	0	0	
1	0	0	0	0	511	510	0	0	
2	0	0	0	0	512	509	0	0	
3	0	0	0	0	507	507	0	0	
4	0	0	0	0	510	505	0	0	
5	0	0	0	0	512	507	0	0	
6	0	0	0	0	513	508	0	0	
7	0	0	0	0	511	507	0	0	
8	0	0	0	0	512	507	0	0	
9	0	0	0	0	510	507	0	0	
10	0	0	0	0	509	508	0	0	
11	0	0	0	0	508	506	0	0	
12	0	0	0	0	509	508	0	0	
13	0	0	0	0	510	509	0	0	
14	0	0	0	0	509	508	0	0	
15	0	0	0	0	511	510	0	0	
0	0	0	0	0	511	509	0	0	
1	0	0	0	0	511	508	0	0	
2	0	0	0	0	509	507	0	0	
3	0	0	0	0	511	508	0	0	
4	0	0	0	0	509	509	0	0	
5	0	0	0	0	511	508	0	0	
6	0	0	0	0	512	507	0	0	
7	0	0	0	0	512	509	0	0	
8	0	0	0	0	511	507	0	0	
9	0	0	0	0	510	508	0	0	
10	0	0	0	0	512	506	0	0	
11	0	0	0	0	508	508	0	0	
12	0	0	0	0	511	507	0	0	
13	0	0	0	0	513	508	0	0	
14	0	0	0	0	513	508	0	0	
15	0	0	0	0	510	507	0	0	
0	0	0	0	0	506	507	0	0	
1	0	0	0	0	507	508	0	0	
2	0	0	0	0	512	508	0	0	
3	0	0	0	0	509	508	0	0	
4	0	0	0	0	511	511	0	0	
5	0	0	0	0	513	510	0	0	
6	0	0	0	0	511	510	0	0	
7	0	0	0	0	512	506	0	0	
8	0	0	0	0	511	509	0	0	
9	0	0	0	0	512	509	0	0	
10	0	0	0	0	513	508	0	0	
11	0	0	0	0	511	508	0	0	
12	0	0	0	0	510	508	0	0	
13	0	0	0	0	511	505	0	0	
14	0	0	0	0	512	507	0	0	
15	0	0	0	0	514	508	0	0	
0	0	0	0	0	513	508	0	0	
1	0	0	0	0	512	506	0	0	
2	0	0	0	0	511	504	0	0	
3	0	0	0	0	511	505	0	0	
4	0	0	0	0	507	509	0	0	
5	0	0	0	0	510	509	0	0	
6	0	0	0	0	510	510	0	0	
7	0	0	0	0	510	509	0	0	
8	0	0	0	0	508	508	0	0	
9	0	0	0	0	512	507	0	0	
10	0	0	0	0	510	508	0	0	
11	0	0	0	0	513	507	0	0	
12	0	0	0	0	510	510	0	0	
13	0	0	0	0	511	508	0	0	
14	0	0	0	0	515	508	0	0	
15	0	0	0	0	515	506	0	0	
0	0	0	0	0	511	506	0	0	
1	0	0	0	0	511	507	0	0	
2	0	0	0	0	510	506	0	0	
3	0	0	0	0	510	508	0	0	
4	0	0	0	0	507	507	0	0	
5	0	0	0	0	509	507	0	0	
6	0	0	0	0	511	508	0	0	
7	0	0	0	0	514	507	0	0	
8	0	0	0	0	511	508	0	0	
9	0	0	0	0	512	509	0	0	
10	0	0	0	0	514	511	0	0	
11	0	0	0	0	510	506	0	0	
12	0	0	0	0	509	508	0	0	
13	0	0	0	0	512	508	0	0	
14	0	0	0	0	510	510	0	0	
15	0	0	0	0	510	508	0	0	
0	0	0	0	0	510	508	0	0	
1	0	0	0	0	511	508	0	0	
2	0	0	0	0	513	507	0	0	
3	0	0	0	0	512	509	0	0	
4	0	0	0	0	510	508	0	0	
5	0	0	0	0	511	508	0	0	
6	0	0	0	0	512	510	0	0	
7	0	0	0	0	513	508	0	0	
8	0	0	0	0	513	505	0	0	
9	0	0	0	0	511	509	0	0	
10	0	0	0	0	509	506	0	0	
11	0	0	0	0	505	508	0	0	
12	0	0	0	0	508	506	0	0	
13	0	0	0	0	510	509	0	0	
14	0	0	0	0	509	507	0	0	
15	0	0	0	0	510	510	0	0	
0	0	0	0	0	511	510	0	0	
1	0	0	0	0	513	507	0	0	
2	0	0	0	0	511	508	0	0	
3	0	0	0	0	512	509	0	0	
4	0	0	0	0	514	509	0	0	
5	0	0	0	0	511	508	0	0	
6	0	0	0	0	511	509	0	0	
7	0	0	0	0	509	506	0	0	
8	0	0	0	0	510	508	0	0	
9	0	0	0	0	512	508	0	0	
10	0	0	0	0	511	506	0	0	
11	0	0	0	0	510	508	0	0	
12	0	0	0	0	511	507	0	0	
13	0	0	0	0	510	506	0	0	
14	0	0	0	0	509	508	0	0	
15	0	0	0	0	509	507	0	0	
0	0	0	0	0	511	511	0	0	
1	0	0	0	0	513	510	0	0	
2	0	0	0	0	514	508	0	0	
3	0	0	0	0	514	507	0	0	
4	0	0	0	0	511	508	0	0	
5	0	0	0	0	512	508	0	0	
6	0	0	0	0	512	508	0	0	
7	0	0	0	0	512	509	0	0	
8	0	0	0	0	511	510	0	0	
9	0	0	0	0	512	508	0	0	
10	0	0	0	0	509	508	0	0	
11	0	0	0	0	511	505	0	0	
12	0	0	0	0	510	508	0	0	
13	0	0	0	0	510	509	0	0	
14	0	0	0	0	511	505	0	0	
15	0	0	0	0	511	507	0	0	
0	0	0	0	0	515	508	0	0	
1	0	0	0	0	513	510	0	0	
2	0	0	0	0	513	508	0	0	
3	0	0	0	0	510	507	0	0	
4	0	0	0	0	506	509	0	0	
5	0	0	0	0	508	510	0	0	
6	0	0	0	0	510	510	0	0	
7	0	0	0	0	515	508	0	0	
8	0	0	0	0	513	508	0	0	
9	0	0	0	0	512	508	0	0	
10	0	0	0	0	511	508	0	0	
11	0	0	0	0	510	508	0	0	
12	0	0	0	0	510	507	0	0	
13	0	0	0	0	508	506	0	0	
14	0	0	0	0	510	507	0	0	
15	0	0	0	0	514	507	0	0	
0	0	0	0	0	513	509	0	0	
1	0	0	0	0	512	507	0	0	
2	0	0	0	0	512	508	0	0	
3	0	0	0	0	511	508	0	0	
4	0	0	0	0	512	508	0	0	
5	0	0	0	0	510	505	0	0	
6	0	0	0	0	508	507	0	0	
7	0	0	0	0	508	506	0	0	
8	0	0	0	0	509	509	0	0	
9	0	0	0	0	508	508	0	0	
10	0	0	0	0	511	509	0	0	
11	0	0	0	0	512	508	0	0	
12	0	0	0	0	514	510	0	0	
13	0	0	0	0	514	508	0	0	
14	0	0	0	0	511	508	0	0	
15	0	0	0	0	512	510	0	0	
0	0	0	0	0	511	511	0	0	
1	0	0	0	0	511	509	0	0	
2	0	0	0	0	511	508	0	0	
3	0	0	0	0	512	508	0	0	
4	0	0	0	0	511	507	0	0	
5	0	0	0	0	511	507	0	0	
6	0	0	0	0	511	505	0	0	
7	0	0	0	0	512	507	0	0	
8	0	0	0	0	510	507	0	0	
9	0	0	0	0	508	507	0	0	
10	0	0	0	0	509	505	0	0	
11	0	0	0	0	510	507	0	0	
12	0	0	0	0	509	508	0	0	
13	0	0	0	0	511	510	0	0	
14	0	0	0	0	511	509	0	0	
15	0	0	0	0	510	511	0	0	
0	0	0	0	0	510	507	0	0	
1	0	0	0	0	510	509	0	0	
2	0	0	0	0	512	510	0	0	
3	0	0	0	0	511	511	0	0	
4	0	0	0	0	511	509	0	0	
5	0	0	0	0	510	507	0	0	
6	0	0	0	0	513	505	0	0	
7	0	0	0	0	513	504	0	0	
8	0	0	0	0	511	508	0	0	
9	0	0	0	0	509	507	0	0	
10	0	0	0	0	512	506	0	0	
11	0	0	0	0	512	508	0	0	
12	0	0	0	0	512	508	0	0	
13	0	0	0	0	508	508	0	0	
14	0	0	0	0	511	508	0	0	
15	0	0	0	0	509	507	0	0	
0	0	0	0	0	509	507	0	0	
1	0	0	0	0	512	511	0	0	
2	0	0	0	0	511	508	0	0	
3	0	0	0	0	507	508	0	0	
4	0	0	0	0	510	508	0	0	
5	0	0	0	0	514	508	0	0	
6	0	0	0	0	513	510	0	0	
7	0	0	0	0	512	509	0	0	
8	0	0	0	0	512	510	0	0	
9	0	0	0	0	513	505	0	0	
10	0	0	0	0	514	507	0	0	
11	0	0	0	0	512	507	0	0	
12	0	0	0	0	511	508	0	0	
13	0	0	0	0	513	507	0	0	
14	0	0	0	0	510	507	0	0	
15	0	0	0	0	510	508	0	0	
0	0	0	0	0	510	508	0	0	
1	0	0	0	0	509	506	0	0	
2	0	0	0	0	509	507	0	0	
3	0	0	0	0	508	510	0	0	
4	0	0	0	0	510	509	0	0	
5	0	0	0	0	508	509	0	0	
6	0	0	0	0	510	508	0	0	
7	0	0	0	0	511	508	0	0	
8	0	0	0	0	511	508	0	0	
9	0	0	0	0	514	508	0	0	
10	0	0	0	0	512	508	0	0	
11	0	0	0	0	510	510	0	0	
12	0	0	0	0	508	508	0	0	
13	0	0	0	0	512	509	0	0	
14	0	0	0	0	512	509	0	0	
15	0	0	0	0	511	504	0	0	
0	0	0	0	0	512	507	0	0	
1	0	0	0	0	513	509	0	0	
2	0	0	0	0	510	506	0	0	
3	0	0	0	0	513	505	0	0	
4	0	0	0	0	512	508	0	0	
5	0	0	0	0	511	508	0	0	
6	0	0	0	0	510	508	0	0	
7	0	0	0	0	509	508	0	0	
8	0	0	0	0	509	508	0	0	
9	0	0	0	0	509	506	0	0	
10	0	0	0	0	508	508	0	0	
11	0	0	0	0	509	508	0	0	
12	0	0	0	0	512	507	0	0	
13	0	0	0	0	508	508	0	0	
14	0	0	0	0	510	510	0	0	
15	0	0	0	0	514	509	0	0	
0	0	0	0	0	515	511	0	0	
1	0	0	0	0	512	509	0	0	
2	0	0	0	0	511	508	0	0	
3	0	0	0	0	512	505	0	0	
4	0	0	0	0	511	508	0	0	
5	0	0	0	0	510	507	0	0	
6	0	0	0	0	509	507	0	0	
7	0	0	0	0	510	508	0	0	
8	0	0	0	0	511	507	0	0	
9	0	0	0	0	510	508	0	0	
10	0	0	0	0	511	508	0	0	
11	0	0	0	0	511	508	0	0	
12	0	0	0	0	511	508	0	0	
13	0	0	0	0	512	508	0	0	
14	0	0	0	0	510	507	0	0	
15	0	0	0	0	511	511	0	0	
0	0	0	0	0	512	510	0	0	
1	0	0	0	0	512	510	0	0	
2	0	0	0	0	511	508	0	0	
3	0	0	0	0	512	508	0	0	
4	0	0	0	0	512	507	0	0	
5	0	0	0	0	511	508	0	0	
6	0	0	0	0	509	507	0	0	
7	0	0	0	0	511	504	0	0	
8	0	0	0	0	511	507	0	0	
9	0	0	0	0	510	509	0	0	
10	0	0	0	0	508	507	0	0	
11	0	0	0	0	509	507	0	0	
12	0	0	0	0	513	507	0	0	
13	0	0	0	0	510	507	0	0	
14	0	0	0	0	510	508	0	0	
15	0	0	0	0	511	506	0	0	
0	0	0	0	0	511	510	0	0	
1	0	0	0	0	508	511	0	0	
2	0	0	0	0	512	511	0	0	
3	0	0	0	0	511	507	0	0	
4	0	0	0	0	512	510	0	0	
5	0	0	0	0	510	508	0	0	
6	0	0	0	0	511	508	0	0	
7	0	0	0	0	512	508	0	0	
8	0	0	0	0	511	510	0	0	
9	0	0	0	0	511	507	0	0	
10	0	0	0	0	512	507	0	0	
11	0	0	0	0	513	508	0	0	
12	0	0	0	0	512	508	0	0	
13	0	0	0	0	509	506	0	0	
14	0	0	0	0	507	506	0	0	
15	0	0	0	0	508	507	0	0	
0	0	0	0	0	512	507	0	0	
1	0	0	0	0	514	507	0	0	
2	0	0	0	0	515	511	0	0	
3	0	0	0	0	513	509	0	0	
4	0	0	0	0	509	508	0	0	
5	0	0	0	0	509	508	0	0	
6	0	0	0	0	510	508	0	0	
7	0	0	0	0	506	509	0	0	
8	0	0	0	0	513	510	0	0	
9	0	0	0	0	511	508	0	0	
10	0	0	0	0	511	508	0	0	
11	0	0	0	0	513	509	0	0	
12	0	0	0	0	511	507	0	0	
13	0	0	0	0	513	507	0	0	
14	0	0	0	0	511	507	0	0	
15	0	0	0	0	510	506	0	0	
0	0	0	0	0	510	506	0	0	
1	0	0	0	0	511	507	0	0	
2	0	0	0	0	509	507	0	0	
3	0	0	0	0	510	509	0	0	
4	0	0	0	0	508	508	0	0	
5	0	0	0	0	508	508	0	0	
6	0	0	0	0	513	509	0	0	
7	0	0	0	0	512	507	0	0	
8	0	0	0	0	507	508	0	0	
9	0	0	0	0	510	509	0	0	
10	0	0	0	0	511	508	0	0	
11	0	0	0	0	511	508	0	0	
12	0	0	0	0	513	510	0	0	
13	0	0	0	0	511	507	0	0	
14	0	0	0	0	515	508	0	0	
15	0	0	0	0	516	510	0	0	
0	0	0	0	0	508	508	0	0	
1	0	0	0	0	508	508	0	0	
2	0	0	0	0	512	508	0	0	
3	0	0	0	0	512	511	0	0	
4	0	0	0	0	510	508	0	0	
5	0	0	0	0	510	505	0	0	
6	0	0	0	0	510	507	0	0	
7	0	0	0	0	512	506	0	0	
8	0	0	0	0	513	506	0	0	
9	0	0	0	0	510	506	0	0	
10	0	0	0	0	512	508	0	0	
11	0	0	0	0	511	508	0	0	
12	0	0	0	0	509	508	0	0	
13	0	0	0	0	510	509	0	0	
14	0	0	0	0	510	510	0	0	
15	0	0	0	0	511	508	0	0	
0	0	0	0	0	512	510	0	0	
1	0	0	0	0	509	509	0	0	
2	0	0	0	0	510	508	0	0	
3	0	0	0	0	511	507	0	0	
4	0	0	0	0	511	509	0	0	
5	0	0	0	0	511	507	0	0	
6	0	0	0	0	511	508	0	0	
7	0	0	0	0	512	505	0	0	
8	0	0	0	0	509	507	0	0	
9	0	0	0	0	508	508	0	0	
10	0	0	0	0	510	509	0	0	
11	0	0	0	0	512	507	0	0	
12	0	0	0	0	511	507	0	0	
13	0	0	0	0	514	505	0	0	
14	0	0	0	0	515	508	0	0	
15	0	0	0	0	511	508	0	0	
0	0	0	0	0	511	510	0	0	
1	0	0	0	0	509	510	0	0	
2	0	0	0	0	510	508	0	0	
3	0	0	0	0	508	509	0	0	
4	0	0	0	0	510	508	0	0	
5	0	0	0	0	514	510	0	0	
6	0	0	0	0	515	508	0	0	
7	0	0	0	0	514	509	0	0	
8	0	0	0	0	511	507	0	0	
9	0	0	0	0	510	509	0	0	
10	0	0	0	0	512	508	0	0	
11	0	0	0	0	511	506	0	0	
12	0	0	0	0	513	507	0	0	
13	0	0	0	0	512	506	0	0	
14	0	0	0	0	510	509	0	0	
15	0	0	0	0	511	507	0	0	
0	0	0	0	0	510	510	0	0	
1	0	0	0	0	507	508	0	0	
2	0	0	0	0	509	505	0	0	
3	0	0	0	0	509	506	0	0	
4	0	0	0	0	508	506	0	0	
5	0	0	0	0	508	509	0	0	
6	0	0	0	0	510	510	0	0	
7	0	0	0	0	511	510	0	0	
8	0	0	0	0	511	508	0	0	
9	0	0	0	0	512	511	0	0	
10	0	0	0	0	514	511	0	0	
11	0	0	0	0	513	508	0	0	
12	0	0	0	0	511	505	0	0	
13	0	0	0	0	510	508	0	0	
14	0	0	0	0	511	509	0	0	
15	0	0	0	0	512	506	0	0	
0	0	0	0	0	511	507	0	0	
1	0	0	0	0	510	506	0	0	
2	0	0	0	0	510	507	0	0	
3	0	0	0	0	513	509	0	0	
4	0	0	0	0	511	507	0	0	
5	0	0	0	0	511	508	0	0	
6	0	0	0	0	511	507	0	0	
7	0	0	0	0	511	506	0	0	
8	0	0	0	0	510	510	0	0	
9	0	0	0	0	509	510	0	0	
10	0	0	0	0	513	508	0	0	
11	0	0	0	0	512	509	0	0	
12	0	0	0	0	513	512	0	0	
13	0	0	0	0	512	509	0	0	
14	0	0	0	0	511	508	0	0	
15	0	0	0	0	512	507	0	0	
0	0	0	0	0	512	507	0	0	
1	0	0	0	0	510	508	0	0	
2	0	0	0	0	510	507	0	0	
3	0	0	0	0	508	507	0	0	
4	0	0	0	0	511	510	0	0	
5	0	0	0	0	512	506	0	0	
6	0	0	0	0	511	506	0	0	
7	0	0	0	0	510	507	0	0	
8	0	0	0	0	510	508	0	0	
9	0	0	0	0	510	507	0	0	
10	0	0	0	0	509	508	0	0	
11	0	0	0	0	510	508	0	0	
12	0	0	0	0	509	508	0	0	
13	0	0	0	0	508	508	0	0	
14	0	0	0	0	511	510	0	0	
15	0	0	0	0	517	508	0	0	
0	0	0	0	0	513	510	0	0	
1	0	0	0	0	512	509	0	0	
2	0	0	0	0	512	508	0	0	
3	0	0	0	0	511	508	0	0	
4	0	0	0	0	511	509	0	0	
5	0	0	0	0	511	510	0	0	
6	0	0	0	0	510	508	0	0	
7	0	0	0	0	512	507	0	0	
8	0	0	0	0	511	507	0	0	
9	0	0	0	0	509	507	0	0	
10	0	0	0	0	512	508	0	0	
11	0	0	0	0	509	507	0	0	
12	0	0	0	0	511	505	0	0	
13	0	0	0	0	510	508	0	0	
14	0	0	0	0	508	506	0	0	
15	0	0	0	0	510	507	0	0	
0	0	0	0	0	508	508	0	0	
1	0	0	0	0	510	509	0	0	
2	0	0	0	0	512	510	0	0	
3	0	0	0	0	512	510	0	0	
4	0	0	0	0	510	510	0	0	
5	0	0	0	0	515	509	0	0	
6	0	0	0	0	519	509	0	0	
7	0	0	0	0	516	507	0	0	
8	0	0	0	0	512	508	0	0	
9	0	0	0	0	513	507	0	0	
10	0	0	0	0	506	507	0	0	
11	0	0	0	0	506	508	0	0	
12	0	0	0	0	508	506	0	0	
13	0	0	0	0	509	508	0	0	
14	0	0	0	0	510	507	0	0	
15	0	0	0	0	509	507	0	0	
0	0	0	0	0	510	508	0	0	
1	0	0	0	0	512	505	0	0	
2	0	0	0	0	511	507	0	0	
3	0	0	0	0	511	509	0	0	
4	0	0	0	0	511	508	0	0	
5	0	0	0	0	511	509	0	0	
6	0	0	0	0	511	511	0	0	
7	0	0	0	0	510	509	0	0	
8	0	0	0	0	512	509	0	0	
9	0	0	0	0	512	508	0	0	
10	0	0	0	0	513	508	0	0	
11	0	0	0	0	511	509	0	0	
12	0	0	0	0	507	507	0	0	
13	0	0	0	0	510	507	0	0	
14	0	0	0	0	512	508	0	0	
15	0	0	0	0	515	507	0	0	
0	0	0	0	0	513	507	0	0	
1	0	0	0	0	512	505	0	0	
2	0	0	0	0	512	505	0	0	
3	0	0	0	0	508	507	0	0	
4	0	0	0	0	507	509	0	0	
5	0	0	0	0	509	507	0	0	
6	0	0	0	0	511	508	0	0	
7	0	0	0	0	510	507	0	0	
8	0	0	0	0	510	505	0	0	
9	0	0	0	0	512	510	0	0	
10	0	0	0	0	511	509	0	0	
11	0	0	0	0	511	509	0	0	
12	0	0	0	0	510	508	0	0	
13	0	0	0	0	510	509	0	0	
14	0	0	0	0	513	511	0	0	
15	0	0	0	0	510	508	0	0	
0	0	0	0	0	512	508	0	0	
1	0	0	0	0	510	508	0	0	
2	0	0	0	0	512	507	0	0	
3	0	0	0	0	513	506	0	0	
4	0	0	0	0	512	508	0	0	
5	0	0	0	0	513	508	0	0	
6	0	0	0	0	513	507	0	0	
7	0	0	0	0	511	509	0	0	
8	0	0	0	0	511	507	0	0	
9	0	0	0	0	508	508	0	0	
10	0	0	0	0	510	507	0	0	
11	0	0	0	0	510	505	0	0	
12	0	0	0	0	508	511	0	0	
13	0	0	0	0	510	510	0	0	
14	0	0	0	0	511	507	0	0	
15	0	0	0	0	512	510	0	0	
0	0	0	0	0	511	510	0	0	
1	0	0	0	0	511	508	0	0	
2	0	0	0	0	510	508	0	0	
3	0	0	0	0	512	510	0	0	
4	0	0	0	0	512	508	0	0	
5	0	0	0	0	514	506	0	0	
6	0	0	0	0	511	508	0	0	
7	0	0	0	0	514	507	0	0	
8	0	0	0	0	512	507	0	0	
9	0	0	0	0	514	509	0	0	
10	0	0	0	0	511	506	0	0	
11	0	0	0	0	511	507	0	0	
12	0	0	0	0	510	505	0	0	
13	0	0	0	0	509	508	0	0	
14	0	0	0	0	510	508	0	0	
15	0	0	0	0	511	507	0	0	
0	0	0	0	0	510	508	0	0	
1	0	0	0	0	508	510	0	0	
2	0	0	0	0	511	508	0	0	
3	0	0	0	0	512	508	0	0	
4	0	0	0	0	511	508	0	0	
5	0	0	0	0	513	510	0	0	
6	0	0	0	0	511	508	0	0	
7	0	0	0	0	513	507	0	0	
8	0	0	0	0	510	507	0	0	
9	0	0	0	0	511	508	0	0	
10	0	0	0	0	511	507	0	0	
11	0	0	0	0	511	504	0	0	
12	0	0	0	0	507	507	0	0	
13	0	0	0	0	510	507	0	0	
14	0	0	0	0	510	507	0	0	
15	0	0	0	0	510	508	0	0	
0	0	0	0	0	510	507	0	0	
1	0	0	0	0	512	509	0	0	
2	0	0	0	0	508	508	0	0	
3	0	0	0	0	511	507	0	0	
4	0	0	0	0	511	507	0	0	
5	0	0	0	0	510	511	0	0	
6	0	0	0	0	512	510	0	0	
7	0	0	0	0	512	508	0	0	
8	0	0	0	0	511	508	0	0	
9	0	0	0	0	511	509	0	0	
10	0	0	0	0	510	510	0	0	
11	0	0	0	0	511	506	0	0	
12	0	0	0	0	512	508	0	0	
13	0	0	0	0	512	509	0	0	
14	0	0	0	0	512	508	0	0	
15	0	0	0	0	511	507	0	0	
0	0	0	0	0	513	506	0	0	
1	0	0	0	0	511	507	0	0	
2	0	0	0	0	512	507	0	0	
3	0	0	0	0	509	507	0	0	
4	0	0	0	0	508	507	0	0	
5	0	0	0	0	511	508	0	0	
6	0	0	0	0	511	510	0	0	
7	0	0	0	0	511	508	0	0	
8	0	0	0	0	511	510	0	0	
9	0	0	0	0	511	508	0	0	
10	0	0	0	0	510	509	0	0	
11	0	0	0	0	512	508	0	0	
12	0	0	0	0	512	510	0	0	
13	0	0	0	0	512	508	0	0	
14	0	0	0	0	513	508	0	0	
15	0	0	0	0	512	509	0	0	
0	0	0	0	0	513	508	0	0	
1	0	0	0	0	508	510	0	0	
2	0	0	0	0	511	505	0	0	
3	0	0	0	0	512	508	0	0	
4	0	0	0	0	511	505	0	0	
5	0	0	0	0	511	508	0	0	
6	0	0	0	0	512	508	0	0	
7	0	0	0	0	512	507	0	0	
8	0	0	0	0	510	507	0	0	
9	0	0	0	0	508	509	0	0	
10	0	0	0	0	511	509	0	0	
11	0	0	0	0	510	506	0	0	
12	0	0	0	0	510	505	0	0	
13	0	0	0	0	510	509	0	0	
14	0	0	0	0	507	507	0	0	
15	0	0	0	0	510	510	0	0	
0	0	0	0	0	510	510	0	0	
1	0	0	0	0	512	509	0	0	
2	0	0	0	0	512	509	0	0	
3	0	0	0	0	512	507	0	0	
4	0	0	0	0	509	508	0	0	
5	0	0	0	0	511	509	0	0	
6	0	0	0	0	512	508	0	0	
7	0	0	0	0	513	506	0	0	
8	0	0	0	0	513	508	0	0	
9	0	0	0	0	513	507	0	0	
10	0	0	0	0	510	507	0	0	
11	0	0	0	0	511	507	0	0	
12	0	0	0	0	511	508	0	0	
13	0	0	0	0	511	505	0	0	
14	0	0	0	0	511	508	0	0	
15	0	0	0	0	511	508	0	0	
0	0	0	0	0	509	510	0	0	
1	0	0	0	0	510	508	0	0	
2	0	0	0	0	512	508	0	0	
3	0	0	0	0	512	509	0	0	
4	0	0	0	0	512	508	0	0	
5	0	0	0	0	512	510	0	0	
6	0	0	0	0	510	509	0	0	
7	0	0	0	0	510	507	0	0	
8	0	0	0	0	512	509	0	0	
9	0	0	0	0	512	509	0	0	
10	0	0	0	0	510	507	0	0	
11	0	0	0	0	511	507	0	0	
12	0	0	0	0	511	506	0	0	
13	0	0	0	0	512	509	0	0	
14	0	0	0	0	511	508	0	0	
15	0	0	0	0	508	508	0	0	
0	0	0	0	0	511	505	0	0	
1	0	0	0	0	508	508	0	0	
2	0	0	0	0	510	506	0	0	
3	0	0	0	0	510	508	0	0	
4	0	0	0	0	510	507	0	0	
5	0	0	0	0	509	508	0	0	
6	0	0	0	0	510	508	0	0	
7	0	0	0	0	508	509	0	0	
8	0	0	0	0	512	508	0	0	
9	0	0	0	0	514	511	0	0	
10	0	0	0	0	510	508	0	0	
11	0	0	0	0	517	508	0	0	
12	0	0	0	0	519	510	0	0	
13	0	0	0	0	515	510	0	0	
14	0	0	0	0	512	508	0	0	
15	0	0	0	0	512	507	0	0	
0	0	0	0	0	510	507	0	0	
1	0	0	0	0	511	507	0	0	
2	0	0	0	0	511	506	0	0	
3	0	0	0	0	506	508	0	0	
4	0	0	0	0	508	506	0	0	
5	0	0	0	0	512	507	0	0	
6	0	0	0	0	508	508	0	0	
7	0	0	0	0	508	508	0	0	
8	0	0	0	0	509	508	0	0	
9	0	0	0	0	509	508	0	0	
10	0	0	0	0	511	508	0	0	
11	0	0	0	0	513	507	0	0	
12	0	0	0	0	514	509	0	0	
13	0	0	0	0	514	510	0	0	
14	0	0	0	0	513	509	0	0	
15	0	0	0	0	512	507	0	0	
0	0	0	0	0	511	508	0	0	
1	0	0	0	0	510	506	0	0	
2	0	0	0	0	511	508	0	0	
3	0	0	0	0	509	508	0	0	
4	0	0	0	0	510	508	0	0	
5	0	0	0	0	511	507	0	0	
6	0	0	0	0	509	506	0	0	
7	0	0	0	0	511	506	0	0	
8	0	0	0	0	512	507	0	0	
9	0	0	0	0	510	507	0	0	
10	0	0	0	0	513	506	0	0	
11	0	0	0	0	512	504	0	0	
12	0	0	0	0	511	510	0	0	
13	0	0	0	0	509	509	0	0	
14	0	0	0	0	511	510	0	0	
15	0	0	0	0	510	510	0	0	
0	0	0	0	0	512	510	0	0	
1	0	0	0	0	511	510	0	0	
2	0	0	0	0	511	507	0	0	
3	0	0	0	0	511	511	0	0	
4	0	0	0	0	511	508	0	0	
5	0	0	0	0	515	508	0	0	
6	0	0	0	0	512	506	0	0	
7	0	0	0	0	512	507	0	0	
8	0	0	0	0	512	508	0	0	
9	0	0	0	0	512	508	0	0	
10	0	0	0	0	510	509	0	0	
11	0	0	0	0	509	508	0	0	
12	0	0	0	0	511	509	0	0	
13	0	0	0	0	505	509	0	0	
14	0	0	0	0	511	506	0	0	
15	0	0	0	0	510	508	0	0	
0	0	0	0	0	506	506	0	0	
1	0	0	0	0	509	507	0	0	
2	0	0	0	0	510	509	0	0	
3	0	0	0	0	511	508	0	0	
4	0	0	0	0	513	508	0	0	
5	0	0	0	0	514	509	0	0	
6	0	0	0	0	513	509	0	0	
7	0	0	0	0	514	509	0	0	
8	0	0	0	0	512	508	0	0	
9	0	0	0	0	513	508	0	0	
10	0	0	0	0	512	507	0	0	
11	0	0	0	0	509	506	0	0	
12	0	0	0	0	510	505	0	0	
13	0	0	0	0	512	508	0	0	
14	0	0	0	0	513	506	0	0	
15	0	0	0	0	512	508	0	0	
0	0	0	0	0	512	508	0	0	
1	0	0	0	0	508	507	0	0	
2	0	0	0	0	510	506	0	0	
3	0	0	0	0	508	508	0	0	
4	0	0	0	0	507	508	0	0	
5	0	0	0	0	509	510	0	0	
6	0	0	0	0	511	510	0	0	
7	0	0	0	0	511	508	0	0	
8	0	0	0	0	512	507	0	0	
9	0	0	0	0	514	508	0	0	
10	0	0	0	0	510	509	0	0	
11	0	0	0	0	513	509	0	0	
12	0	0	0	0	512	508	0	0	
13	0	0	0	0	511	507	0	0	
14	0	0	0	0	512	507	0	0	
15	0	0	0	0	511	508	0	0	
0	0	0	0	0	510	507	0	0	
1	0	0	0	0	510	511	0	0	
2	0	0	0	0	510	507	0	0	
3	0	0	0	0	513	505	0	0	
4	0	0	0	0	510	508	0	0	
5	0	0	0	0	509	508	0	0	
6	0	0	0	0	508	507	0	0	
7	0	0	0	0	510	508	0	0	
8	0	0	0	0	512	508	0	0	
9	0	0	0	0	511	510	0	0	
10	0	0	0	0	509	509	0	0	
11	0	0	0	0	510	509	0	0	
12	0	0	0	0	509	509	0	0	
13	0	0	0	0	513	508	0	0	
14	0	0	0	0	511	510	0	0	
15	0	0	0	0	512	508	0	0	
0	0	0	0	0	512	508	0	0	
1	0	0	0	0	511	508	0	0	
2	0	0	0	0	512	507	0	0	
3	0	0	0	0	514	505	0	0	
4	0	0	0	0	514	506	0	0	
5	0	0	0	0	510	507	0	0	
6	0	0	0	0	511	505	0	0	
7	0	0	0	0	515	507	0	0	
8	0	0	0	0	511	508	0	0	
9	0	0	0	0	508	508	0	0	
10	0	0	0	0	508	508	0	0	
11	0	0	0	0	511	507	0	0	
12	0	0	0	0	510	506	0	0	
13	0	0	0	0	512	509	0	0	
14	0	0	0	0	509	508	0	0	
15	0	0	0	0	511	509	0	0	
0	0	0	0	0	512	508	0	0	
1	0	0	0	0	514	509	0	0	
2	0	0	0	0	512	509	0	0	
3	0	0	0	0	513	507	0	0	
4	0	0	0	0	511	507	0	0	
5	0	0	0	0	511	507	0	0	
6	0	0	0	0	510	507	0	0	
7	0	0	0	0	511	508	0	0	
8	0	0	0	0	512	506	0	0	
9	0	0	0	0	512	507	0	0	
10	0	0	0	0	511	508	0	0	
11	0	0	0	0	511	508	0	0	
12	0	0	0	0	510	510	0	0	
13	0	0	0	0	509	508	0	0	
14	0	0	0	0	511	508	0	0	
15	0	0	0	0	511	508	0	0	
0	0	0	0	0	509	508	0	0	
1	0	0	0	0	510	507	0	0	
2	0	0	0	0	509	509	0	0	
3	0	0	0	0	510	510	0	0	
4	0	0	0	0	511	508	0	0	
5	0	0	0	0	512	508	0	0	
6	0	0	0	0	513	507	0	0	
7	0	0	0	0	511	508	0	0	
8	0	0	0	0	510	508	0	0	
9	0	0	0	0	512	509	0	0	
10	0	0	0	0	513	510	0	0	
11	0	0	0	0	513	507	0	0	
12	0	0	0	0	512	506	0	0	
13	0	0	0	0	510	506	0	0	
14	0	0	0	0	512	507	0	0	
15	0	0	0	0	512	508	0	0	
0	0	0	0	0	510	507	0	0	
1	0	0	0	0	508	508	0	0	
2	0	0	0	0	508	509	0	0	
3	0	0	0	0	509	507	0	0	
4	0	0	0	0	507	507	0	0	
5	0	0	0	0	510	511	0	0	
6	0	0	0	0	511	510	0	0	
7	0	0	0	0	511	508	0	0	
8	0	0	0	0	511	507	0	0	
9	0	0	0	0	514	508	0	0	
10	0	0	0	0	511	510	0	0	
11	0	0	0	0	512	508	0	0	
12	0	0	0	0	510	507	0	0	
13	0	0	0	0	512	510	0	0	
14	0	0	0	0	513	507	0	0	
15	0	0	0	0	511	508	0	0	
0	0	0	0	0	511	510	0	0	
1	0	0	0	0	512	509	0	0	
2	0	0	0	0	511	507	0	0	
3	0	0	0	0	511	507	0	0	
4	0	0	0	0	511	506	0	0	
5	0	0	0	0	508	509	0	0	
6	0	0	0	0	510	508	0	0	
7	0	0	0	0	512	507	0	0	
8	0	0	0	0	511	509	0	0	
9	0	0	0	0	511	509	0	0	
10	0	0	0	0	508	508	0	0	
11	0	0	0	0	511	509	0	0	
12	0	0	0	0	512	511	0	0	
13	0	0	0	0	513	510	0	0	
14	0	0	0	0	513	508	0	0	
15	0	0	0	0	515	507	0	0	
0	0	0	0	0	515	510	0	0	
1	0	0	0	0	512	509	0	0	
2	0	0	0	0	510	506	0	0	
3	0	0	0	0	508	507	0	0	
4	0	0	0	0	510	507	0	0	
5	0	0	0	0	510	508	0	0	
6	0	0	0	0	511	505	0	0	
7	0	0	0	0	511	507	0	0	
8	0	0	0	0	510	507	0	0	
9	0	0	0	0	510	508	0	0	
10	0	0	0	0	510	507	0	0	
11	0	0	0	0	509	507	0	0	
12	0	0	0	0	510	509	0	0	
13	0	0	0	0	508	509	0	0	
14	0	0	0	0	508	508	0	0	
15	0	0	0	0	509	508	0	0	
0	0	0	0	0	512	508	0	0	
1	0	0	0	0	513	508	0	0	
2	0	0	0	0	514	510	0	0	
3	0	0	0	0	515	508	0	0	
4	0	0	0	0	514	508	0	0	
5	0	0	0	0	511	507	0	0	
6	0	0	0	0	512	506	0	0	
7	0	0	0	0	511	508	0	0	
8	0	0	0	0	511	507	0	0	
9	0	0	0	0	511	507	0	0	
10	0	0	0	0	511	507	0	0	
11	0	0	0	0	510	507	0	0	
12	0	0	0	0	511	507	0	0	
13	0	0	0	0	513	509	0	0	
14	0	0	0	0	512	508	0	0	
15	0	0	0	0	508	507	0	0	
0	0	0	0	0	511	508	0	0	
1	0	0	0	0	508	511	0	0	
2	0	0	0	0	510	509	0	0	
3	0	0	0	0	509	508	0	0	
4	0	0	0	0	509	509	0	0	
5	0	0	0	0	510	509	0	0	
6	0	0	0	0	513	508	0	0	
7	0	0	0	0	512	507	0	0	
8	0	0	0	0	510	509	0	0	
9	0	0	0	0	512	508	0	0	
10	0	0	0	0	512	508	0	0	
11	0	0	0	0	514	506	0	0	
12	0	0	0	0	514	507	0	0	
13	0	0	0	0	515	508	0	0	
14	0	0	0	0	510	509	0	0	
15	0	0	0	0	511	507	0	0	
0	0	0	0	0	509	506	0	0	
1	0	0	0	0	509	509	0	0	
2	0	0	0	0	510	507	0	0	
3	0	0	0	0	510	508	0	0	
4	0	0	0	0	510	508	0	0	
5	0	0	0	0	511	508	0	0	
6	0	0	0	0	510	508	0	0	
7	0	0	0	0	508	508	0	0	
8	0	0	0	0	511	509	0	0	
9	0	0	0	0	513	509	0	0	
10	0	0	0	0	512	509	0	0	
11	0	0	0	0	511	508	0	0	
12	0	0	0	0	508	508	0	0	
13	0	0	0	0	509	507	0	0	
14	0	0	0	0	511	507	0	0	
15	0	0	0	0	514	508	0	0	
0	0	0	0	0	510	509	0	0	
1	0	0	0	0	514	507	0	0	
2	0	0	0	0	512	508	0	0	
3	0	0	0	0	513	507	0	0	
4	0	0	0	0	511	507	0	0	
5	0	0	0	0	511	506	0	0	
6	0	0	0	0	512	508	0	0	
7	0	0	0	0	511	508	0	0	
8	0	0	0	0	509	508	0	0	
9	0	0	0	0	511	508	0	0	
10	0	0	0	0	510	508	0	0	
11	0	0	0	0	507	508	0	0	
12	0	0	0	0	510	508	0	0	
13	0	0	0	0	511	508	0	0	
14	0	0	0	0	512	509	0	0	
15	0	0	0	0	511	508	0	0	
0	0	0	0	0	512	508	0	0	
1	0	0	0	0	511	507	0	0	
2	0	0	0	0	514	508	0	0	
3	0	0	0	0	516	508	0	0	
4	0	0	0	0	512	507	0	0	
5	0	0	0	0	511	506	0	0	
6	0	0	0	0	513	507	0	0	
7	0	0	0	0	509	509	0	0	
8	0	0	0	0	508	508	0	0	
9	0	0	0	0	508	509	0	0	
10	0	0	0	0	511	506	0	0	
11	0	0	0	0	508	506	0	0	
12	0	0	0	0	509	507	0	0	
13	0	0	0	0	508	510	0	0	
14	0	0	0	0	511	509	0	0	
15	0	0	0	0	510	510	0	0	
0	0	0	0	0	511	509	0	0	
1	0	0	0	0	512	508	0	0	
2	0	0	0	0	515	508	0	0	
3	0	0	0	0	516	508	0	0	
4	0	0	0	0	514	509	0	0	
5	0	0	0	0	514	508	0	0	
6	0	0	0	0	515	508	0	0	
7	0	0	0	0	510	509	0	0	
8	0	0	0	0	505	506	0	0	
9	0	0	0	0	508	507	0	0	
10	0	0	0	0	508	506	0	0	
11	0	0	0	0	506	508	0	0	
12	0	0	0	0	511	508	0	0	
13	0	0	0	0	512	506	0	0	
14	0	0	0	0	510	505	0	0	
15	0	0	0	0	511	508	0	0	
0	0	0	0	0	510	508	0	0	
1	0	0	0	0	509	508	0	0	
2	0	0	0	0	510	510	0	0	
3	0	0	0	0	510	509	0	0	
4	0	0	0	0	513	510	0	0	
5	0	0	0	0	512	510	0	0	
6	0	0	0	0	510	510	0	0	
7	0	0	0	0	512	507	0	0	
8	0	0	0	0	511	508	0	0	
9	0	0	0	0	510	508	0	0	
10	0	0	0	0	513	507	0	0	
11	0	0	0	0	512	507	0	0	
12	0	0	0	0	510	508	0	0	
13	0	0	0	0	511	507	0	0	
14	0	0	0	0	512	506	0	0	
15	0	0	0	0	510	508	0	0	
0	0	0	0	0	512	504	0	0	
1	0	0	0	0	510	508	0	0	
2	0	0	0	0	511	507	0	0	
3	0	0	0	0	510	508	0	0	
4	0	0	0	0	510	507	0	0	
5	0	0	0	0	510	510	0	0	
6	0	0	0	0	510	509	0	0	
7	0	0	0	0	507	509	0	0	
8	0	0	0	0	510	510	0	0	
9	0	0	0	0	512	510	0	0	
10	0	0	0	0	511	508	0	0	
11	0	0	0	0	514	509	0	0	
12	0	0	0	0	514	509	0	0	
13	0	0	0	0	515	508	0	0	
14	0	0	0	0	511	507	0	0	
15	0	0	0	0	509	505	0	0	
0	0	0	0	0	509	507	0	0	
1	0	0	0	0	511	507	0	0	
2	0	0	0	0	511	507	0	0	
3	0	0	0	0	511	508	0	0	
4	0	0	0	0	511	507	0	0	
5	0	0	0	0	510	507	0	0	
6	0	0	0	0	513	507	0	0	
7	0	0	0	0	513	510	0	0	
8	0	0	0	0	508	509	0	0	
9	0	0	0	0	510	507	0	0	
10	0	0	0	0	511	507	0	0	
11	0	0	0	0	511	511	0	0	
12	0	0	0	0	509	510	0	0	
13	0	0	0	0	509	509	0	0	
14	0	0	0	0	511	508	0	0	
15	0	0	0	0	510	510	0	0	
0	0	0	0	0	509	507	0	0	
1	0	0	0	0	512	508	0	0	
2	0	0	0	0	511	509	0	0	
3	0	0	0	0	510	505	0	0	
4	0	0	0	0	514	507	0	0	
5	0	0	0	0	511	508	0	0	
6	0	0	0	0	512	508	0	0	
7	0	0	0	0	513	508	0	0	
8	0	0	0	0	511	504	0	0	
9	0	0	0	0	509	507	0	0	
10	0	0	0	0	510	508	0	0	
11	0	0	0	0	511	507	0	0	
12	0	0	0	0	509	508	0	0	
13	0	0	0	0	507	508	0	0	
14	0	0	0	0	510	508	0	0	
15	0	0	0	0	512	510	0	0	
0	0	0	0	0	512	510	0	0	
1	0	0	0	0	513	508	0	0	
2	0	0	0	0	513	509	0	0	
3	0	0	0	0	512	508	0	0	
4	0	0	0	0	508	510	0	0	
5	0	0	0	0	511	509	0	0	
6	0	0	0	0	509	508	0	0	
7	0	0	0	0	508	508	0	0	
8	0	0	0	0	511	507	0	0	
9	0	0	0	0	511	506	0	0	
10	0	0	0	0	509	508	0	0	
11	0	0	0	0	513	509	0	0	
12	0	0	0	0	515	508	0	0	
13	0	0	0	0	513	507	0	0	
14	0	0	0	0	512	506	0	0	
15	0	0	0	0	508	507	0	0	
0	0	0	0	0	508	508	0	0	
1	0	0	0	0	508	508	0	0	
2	0	0	0	0	511	508	0	0	
3	0	0	0	0	508	509	0	0	
4	0	0	0	0	512	510	0	0	
5	0	0	0	0	512	510	0	0	
6	0	0	0	0	511	509	0	0	
7	0	0	0	0	512	509	0	0	
8	0	0	0	0	514	509	0	0	
9	0	0	0	0	516	509	0	0	
10	0	0	0	0	515	507	0	0	
11	0	0	0	0	513	507	0	0	
12	0	0	0	0	510	507	0	0	
13	0	0	0	0	509	507	0	0	
14	0	0	0	0	506	507	0	0	
15	0	0	0	0	511	509	0	0	
0	0	0	0	0	511	506	0	0	
1	0	0	0	0	513	508	0	0	
2	0	0	0	0	512	507	0	0	
3	0	0	0	0	509	508	0	0	
4	0	0	0	0	510	508	0	0	
5	0	0	0	0	508	510	0	0	
6	0	0	0	0	508	508	0	0	
7	0	0	0	0	510	510	0	0	
8	0	0	0	0	512	508	0	0	
9	0	0	0	0	513	508	0	0	
10	0	0	0	0	514	507	0	0	
11	0	0	0	0	511	506	0	0	
12	0	0	0	0	509	507	0	0	
13	0	0	0	0	511	509	0	0	
14	0	0	0	0	512	508	0	0	
15	0	0	0	0	511	509	0	0	
0	0	0	0	0	513	509	0	0	
1	0	0	0	0	511	509	0	0	
2	0	0	0	0	512	507	0	0	
3	0	0	0	0	510	507	0	0	
4	0	0	0	0	509	507	0	0	
5	0	0	0	0	508	508	0	0	
6	0	0	0	0	512	507	0	0	
7	0	0	0	0	513	507	0	0	
8	0	0	0	0	512	510	0	0	
9	0	0	0	0	511	509	0	0	
10	0	0	0	0	510	510	0	0	
11	0	0	0	0	512	508	0	0	
12	0	0	0	0	510	510	0	0	
13	0	0	0	0	508	506	0	0	
14	0	0	0	0	512	509	0	0	
15	0	0	0	0	512	509	0	0	
0	0	0	0	0	511	509	0	0	
1	0	0	0	0	509	509	0	0	
2	0	0	0	0	512	507	0	0	
3	0	0	0	0	509	507	0	0	
4	0	0	0	0	512	508	0	0	
5	0	0	0	0	510	507	0	0	
6	0	0	0	0	510	508	0	0	
7	0	0	0	0	509	507	0	0	
8	0	0	0	0	510	507	0	0	
9	0	0	0	0	510	507	0	0	
10	0	0	0	0	510	508	0	0	
11	0	0	0	0	510	507	0	0	
12	0	0	0	0	513	507	0	0	
13	0	0	0	0	512	510	0	0	
14	0	0	0	0	509	508	0	0	
15	0	0	0	0	509	510	0	0	
0	0	0	0	0	511	508	0	0	
1	0	0	0	0	511	509	0	0	
2	0	0	0	0	512	509	0	0	
3	0	0	0	0	513	507	0	0	
4	0	0	0	0	515	509	0	0	
5	0	0	0	0	512	509	0	0	
6	0	0	0	0	511	508	0	0	
7	0	0	0	0	512	505	0	0	
8	0	0	0	0	510	505	0	0	
9	0	0	0	0	515	506	0	0	
10	0	0	0	0	516	509	0	0	
11	0	0	0	0	515	508	0	0	
12	0	0	0	0	507	504	0	0	
13	0	0	0	0	504	509	0	0	
14	0	0	0	0	511	508	0	0	
15	0	0	0	0	512	507	0	0	
0	0	0	0	0	511	509	0	0	
1	0	0	0	0	513	509	0	0	
2	0	0	0	0	511	508	0	0	
3	0	0	0	0	508	508	0	0	
4	0	0	0	0	511	510	0	0	
5	0	0	0	0	508	509	0	0	
6	0	0	0	0	509	508	0	0	
7	0	0	0	0	510	509	0	0	
8	0	0	0	0	511	509	0	0	
9	0	0	0	0	509	509	0	0	
10	0	0	0	0	511	508	0	0	
11	0	0	0	0	513	509	0	0	
12	0	0	0	0	512	506	0	0	
13	0	0	0	0	516	506	0	0	
14	0	0	0	0	513	505	0	0	
15	0	0	0	0	511	506	0	0	
0	0	0	0	0	511	507	0	0	
1	0	0	0	0	509	507	0	0	
2	0	0	0	0	511	509	0	0	
3	0	0	0	0	511	510	0	0	
4	0	0	0	0	508	508	0	0	
5	0	0	0	0	508	508	0	0	
6	0	0	0	0	508	512	0	0	
7	0	0	0	0	511	508	0	0	
8	0	0	0	0	512	509	0	0	
9	0	0	0	0	512	509	0	0	
10	0	0	0	0	510	508	0	0	
11	0	0	0	0	512	510	0	0	
12	0	0	0	0	510	509	0	0	
13	0	0	0	0	512	510	0	0	
14	0	0	0	0	511	506	0	0	
15	0	0	0	0	512	505	0	0	
0	0	0	0	0	511	507	0	0	
1	0	0	0	0	512	506	0	0	
2	0	0	0	0	510	506	0	0	
3	0	0	0	0	509	506	0	0	
4	0	0	0	0	511	508	0	0	
5	0	0	0	0	510	507	0	0	
6	0	0	0	0	511	506	0	0	
7	0	0	0	0	512	505	0	0	
8	0	0	0	0	510	510	0	0	
9	0	0	0	0	508	508	0	0	
10	0	0	0	0	511	510	0	0	
11	0	0	0	0	512	510	0	0	
12	0	0	0	0	514	510	0	0	
13	0	0	0	0	512	510	0	0	
14	0	0	0	0	513	511	0	0	
15	0	0	0	0	516	509	0	0	
0	0	0	0	0	511	508	0	0	
1	0	0	0	0	510	508	0	0	
2	0	0	0	0	508	508	0	0	
3	0	0	0	0	509	507	0	0	
4	0	0	0	0	510	508	0	0	
5	0	0	0	0	513	508	0	0	
6	0	0	0	0	511	506	0	0	
7	0	0	0	0	510	507	0	0	
8	0	0	0	0	511	505	0	0	
9	0	0	0	0	510	507	0	0	
10	0	0	0	0	510	506	0	0	
11	0	0	0	0	510	507	0	0	
12	0	0	0	0	508	508	0	0	
13	0	0	0	0	508	507	0	0	
14	0	0	0	0	510	509	0	0	
15	0	0	0	0	510	509	0	0	
0	0	0	0	0	512	510	0	0	
1	0	0	0	0	516	511	0	0	
2	0	0	0	0	513	508	0	0	
3	0	0	0	0	511	509	0	0	
4	0	0	0	0	512	509	0	0	
5	0	0	0	0	511	510	0	0	
6	0	0	0	0	511	508	0	0	
7	0	0	0	0	512	506	0	0	
8	0	0	0	0	512	508	0	0	
9	0	0	0	0	513	506	0	0	
10	0	0	0	0	512	508	0	0	
11	0	0	0	0	512	508	0	0	
12	0	0	0	0	511	507	0	0	
13	0	0	0	0	509	508	0	0	
14	0	0	0	0	510	508	0	0	
15	0	0	0	0	509	509	0	0	
0	0	0	0	0	509	509	0	0	
1	0	0	0	0	511	509	0	0	
2	0	0	0	0	511	506	0	0	
3	0	0	0	0	511	509	0	0	
4	0	0	0	0	512	508	0	0	
5	0	0	0	0	511	509	0	0	
6	0	0	0	0	510	510	0	0	
7	0	0	0	0	508	508	0	0	
8	0	0	0	0	511	509	0	0	
9	0	0	0	0	512	510	0	0	
10	0	0	0	0	511	508	0	0	
11	0	0	0	0	508	506	0	0	
12	0	0	0	0	511	507	0	0	
13	0	0	0	0	513	505	0	0	
14	0	0	0	0	509	507	0	0	
15	0	0	0	0	509	507	0	0	
0	0	0	0	0	511	507	0	0	
1	0	0	0	0	509	506	0	0	
2	0	0	0	0	508	507	0	0	
3	0	0	0	0	510	507	0	0	
4	0	0	0	0	512	509	0	0	
5	0	0	0	0	509	510	0	0	
6	0	0	0	0	511	510	0	0	
7	0	0	0	0	511	509	0	0	
8	0	0	0	0	511	507	0	0	
9	0	0	0	0	516	509	0	0	
10	0	0	0	0	516	509	0	0	
11	0	0	0	0	512	508	0	0	
12	0	0	0	0	509	508	0	0	
13	0	0	0	0	505	510	0	0	
14	0	0	0	0	508	508	0	0	
15	0	0	0	0	512	507	0	0	
0	0	0	0	0	514	508	0	0	
1	0	0	0	0	512	509	0	0	
2	0	0	0	0	512	509	0	0	
3	0	0	0	0	512	507	0	0	
4	0	0	0	0	511	508	0	0	
5	0	0	0	0	510	507	0	0	
6	0	0	0	0	509	508	0	0	
7	0	0	0	0	511	507	0	0	
8	0	0	0	0	509	508	0	0	
9	0	0	0	0	510	510	0	0	
10	0	0	0	0	510	509	0	0	
11	0	0	0	0	512	507	0	0	
12	0	0	0	0	511	510	0	0	
13	0	0	0	0	511	507	0	0	
14	0	0	0	0	511	507	0	0	
15	0	0	0	0	513	508	0	0	
0	0	0	0	0	511	509	0	0	
1	0	0	0	0	512	510	0	0	
2	0	0	0	0	515	507	0	0	
3	0	0	0	0	513	506	0	0	
4	0	0	0	0	511	508	0	0	
5	0	0	0	0	508	508	0	0	
6	0	0	0	0	509	507	0	0	
7	0	0	0	0	510	507	0	0	
8	0	0	0	0	510	507	0	0	
9	0	0	0	0	510	509	0	0	
10	0	0	0	0	511	507	0	0	
11	0	0	0	0	511	506	0	0	
12	0	0	0	0	511	508	0	0	
13	0	0	0	0	511	507	0	0	
14	0	0	0	0	510	508	0	0	
15	0	0	0	0	509	509	0	0	
0	0	0	0	0	512	509	0	0	
1	0	0	0	0	513	508	0	0	
2	0	0	0	0	511	510	0	0	
3	0	0	0	0	510	509	0	0	
4	0	0	0	0	511	507	0	0	
5	0	0	0	0	510	508	0	0	
6	0	0	0	0	512	508	0	0	
7	0	0	0	0	514	509	0	0	
8	0	0	0	0	514	506	0	0	
9	0	0	0	0	513	507	0	0	
10	0	0	0	0	509	507	0	0	
11	0	0	0	0	509	507	0	0	
12	0	0	0	0	514	507	0	0	
13	0	0	0	0	512	507	0	0	
14	0	0	0	0	513	508	0	0	
15	0	0	0	0	511	507	0	0	
0	0	0	0	0	510	510	0	0	
1	0	0	0	0	510	510	0	0	
2	0	0	0	0	511	508	0	0	
3	0	0	0	0	512	510	0	0	
4	0	0	0	0	511	507	0	0	
5	0	0	0	0	509	507	0	0	
6	0	0	0	0	509	508	0	0	
7	0	0	0	0	512	507	0	0	
8	0	0	0	0	510	509	0	0	
9	0	0	0	0	511	508	0	0	
10	0	0	0	0	511	508	0	0	
11	0	0	0	0	512	507	0	0	
12	0	0	0	0	511	507	0	0	
13	0	0	0	0	509	508	0	0	
14	0	0	0	0	511	508	0	0	
15	0	0	0	0	514	508	0	0	
0	0	0	0	0	517	508	0	0	
1	0	0	0	0	510	505	0	0	
2	0	0	0	0	507	507	0	0	
3	0	0	0	0	506	508	0	0	
4	0	0	0	0	511	508	0	0	
5	0	0	0	0	512	510	0	0	
6	0	0	0	0	512	510	0	0	
7	0	0	0	0	510	508	0	0	
8	0	0	0	0	510	510	0	0	
9	0	0	0	0	510	510	0	0	
10	0	0	0	0	512	508	0	0	
11	0	0	0	0	513	507	0	0	
12	0	0	0	0	508	508	0	0	
13	0	0	0	0	512	507	0	0	
14	0	0	0	0	515	509	0	0	
15	0	0	0	0	513	508	0	0	
0	0	0	0	0	511	508	0	0	
1	0	0	0	0	512	505	0	0	
2	0	0	0	0	512	508	0	0	
3	0	0	0	0	512	507	0	0	
4	0	0	0	0	511	505	0	0	
5	0	0	0	0	512	507	0	0	
6	0	0	0	0	511	507	0	0	
7	0	0	0	0	514	509	0	0	
8	0	0	0	0	510	510	0	0	
9	0	0	0	0	508	509	0	0	
10	0	0	0	0	509	508	0	0	
11	0	0	0	0	508	506	0	0	
12	0	0	0	0	509	508	0	0	
13	0	0	0	0	511	509	0	0	
14	0	0	0	0	512	509	0	0	
15	0	0	0	0	512	509	0	0	
0	0	0	0	0	508	509	0	0	
1	0	0	0	0	513	513	0	0	
2	0	0	0	0	516	505	0	0	
3	0	0	0	0	513	506	0	0	
4	0	0	0	0	512	507	0	0	
5	0	0	0	0	513	507	0	0	
6	0	0	0	0	511	508	0	0	
7	0	0	0	0	512	509	0	0	
8	0	0	0	0	511	507	0	0	
9	0	0	0	0	511	508	0	0	
10	0	0	0	0	510	508	0	0	
11	0	0	0	0	509	506	0	0	
12	0	0	0	0	509	509	0	0	
13	0	0	0	0	509	508	0	0	
14	0	0	0	0	510	508	0	0	
15	0	0	0	0	510	511	0	0	
0	0	0	0	0	509	509	0	0	
1	0	0	0	0	511	509	0	0	
2	0	0	0	0	511	508	0	0	
3	0	0	0	0	513	507	0	0	
4	0	0	0	0	510	507	0	0	
5	0	0	0	0	508	510	0	0	
6	0	0	0	0	513	508	0	0	
7	0	0	0	0	512	508	0	0	
8	0	0	0	0	509	506	0	0	
9	0	0	0	0	511	506	0	0	
10	0	0	0	0	507	506	0	0	
11	0	0	0	0	507	507	0	0	
12	0	0	0	0	515	506	0	0	
13	0	0	0	0	516	505	0	0	
14	0	0	0	0	515	506	0	0	
15	0	0	0	0	515	507	0	0	
0	0	0	0	0	512	510	0	0	
1	0	0	0	0	511	512	0	0	
2	0	0	0	0	510	513	0	0	
3	0	0	0	0	507	511	0	0	
4	0	0	0	0	508	508	0	0	
5	0	0	0	0	503	507	0	0	
6	0	0	0	0	503	505	0	0	
7	0	0	0	0	506	507	0	0	
8	0	0	0	0	510	508	0	0	
9	0	0	0	0	513	508	0	0	
10	0	0	0	0	514	508	0	0	
11	0	0	0	0	511	507	0	0	
12	0	0	0	0	513	506	0	0	
13	0	0	0	0	506	508	0	0	
14	0	0	0	0	499	509	0	0	
15	0	0	0	0	493	511	0	0	
0	0	0	0	0	496	510	0	0	
1	0	0	0	0	505	508	0	0	
2	0	0	0	0	519	506	0	0	
3	0	0	0	0	528	505	0	0	
4	0	0	0	0	543	505	0	0	
5	0	0	0	0	531	506	0	0	
6	0	0	0	0	511	509	0	0	
7	0	0	0	0	496	511	0	0	
8	0	0	0	0	493	513	0	0	
9	0	0	0	0	510	514	0	0	
10	0	0	0	0	518	509	0	0	
11	0	0	0	0	527	507	0	0	
12	0	0	0	0	526	507	0	0	
13	0	0	0	0	525	504	0	0	
14	0	0	0	0	515	503	0	0	
15	0	0	0	0	508	504	0	0	
0	0	0	0	0	494	508	0	0	
1	0	0	0	0	494	508	0	0	
2	0	0	0	0	484	515	0	0	
3	0	0	0	0	509	513	0	0	
4	0	0	0	0	538	504	0	0	
5	0	0	0	0	545	503	0	0	
6	0	0	0	0	509	508	0	0	
7	0	0	0	0	473	511	0	0	
8	0	0	0	0	451	505	0	0	
9	0	0	0	0	446	508	0	0	
10	0	0	0	0	471	505	0	0	
11	0	0	0	0	486	502	0	0	
12	0	0	0	0	497	508	0	0	
13	0	0	0	0	543	518	0	0	
14	0	0	0	0	643	521	0	0	
15	0	0	0	0	673	500	0	0	
0	0	0	0	0	617	495	0	0	
1	0	0	0	0	517	506	0	0	
2	0	0	0	0	460	513	0	0	
3	0	0	0	0	446	514	0	0	
4	0	0	0	0	456	504	0	0	
5	0	0	0	0	461	501	0	0	
6	0	0	0	0	452	503	0	0	
7	0	0	0	0	486	509	0	0	
8	0	0	0	0	533	512	0	0	
9	0	0	0	0	538	514	0	0	
10	0	0	0	0	538	517	0	0	
11	0	0	0	0	536	510	0	0	
12	0	0	0	0	543	500	0	0	
13	0	0	0	0	520	499	0	0	
14	0	0	0	0	491	514	0	0	
15	0	0	0	0	474	517	0	0	
0	0	0	0	0	512	512	0	0	
1	0	0	0	0	521	515	0	0	
2	0	0	0	0	539	510	0	0	
3	0	0	0	0	547	498	0	0	
4	0	0	0	0	524	498	0	0	
5	0	0	0	0	487	499	0	0	
6	0	0	0	0	492	507	0	0	
7	0	0	0	0	486	509	0	0	
8	0	0	0	0	491	513	0	0	
9	0	0	0	0	501	518	0	0	
10	0	0	0	0	495	515	0	0	
11	0	0	0	0	487	500	0	0	
12	0	0	0	0	521	492	0	0	
13	0	0	0	0	557	481	0	0	
14	0	0	0	0	552	501	0	0	
15	0	0	0	0	516	524	0	0	
0	0	0	0	0	496	530	0	0	
1	0	0	0	0	527	509	0	0	
2	0	0	0	0	571	508	0	0	
3	0	0	0	0	540	511	0	0	
4	0	0	0	0	490	513	0	0	
5	0	0	0	0	497	512	0	0	
6	0	0	0	0	487	518	0	0	
7	0	0	0	0	472	507	0	0	
8	0	0	0	0	499	497	0	0	
9	0	0	0	0	492	499	0	0	
10	0	0	0	0	468	510	0	0	
11	0	0	0	0	431	520	0	0	
12	0	0	0	0	462	521	13	0	
13	0	0	0	0	507	496	33	0	
14	0	0	0	0	523	490	34	0	
15	0	0	0	0	536	501	44	0	
0	0	0	0	0	582	513	47	0	
1	0	0	0	0	591	513	51	0	
2	0	0	0	0	546	506	52	0	
3	0	0	0	0	510	502	53	0	
4	0	0	0	0	478	500	53	0	
5	0	0	0	0	489	505	60	0	
6	0	0	0	0	509	524	73	0	
7	0	0	0	0	492	515	80	0	
8	0	0	0	0	483	527	87	0	
9	0	0	0	0	515	524	96	0	
10	0	0	0	0	537	504	111	0	
11	0	0	0	0	525	502	120	0	
12	0	0	0	0	517	505	125	0	
13	0	0	0	0	536	498	132	0	
14	0	0	0	0	555	487	143	0	
15	0	0	0	0	562	488	150	0	
0	0	0	0	0	539	504	150	0	
1	0	0	0	0	500	513	160	0	
2	0	0	0	0	429	510	164	0	
3	0	0	0	0	427	512	169	0	
4	0	0	0	0	455	509	170	0	
5	0	0	0	0	475	508	175	0	
6	0	0	0	0	520	517	177	0	
7	0	0	0	0	544	519	184	0	
8	0	0	0	0	552	515	188	0	
9	0	0	0	0	585	503	195	0	
10	0	0	0	0	628	497	201	0	
11	0	0	0	0	546	507	220	0	
12	0	0	0	0	396	510	229	0	
13	0	0	0	0	352	507	235	0	
14	0	0	0	0	403	502	242	0	
15	0	0	0	0	478	510	250	0	
0	0	0	0	0	517	519	254	0	
1	0	0	0	0	590	513	259	0	
2	0	0	0	0	598	508	267	0	
3	0	0	0	0	563	493	266	0	
4	0	0	0	0	516	503	285	0	
5	0	0	0	0	502	505	284	0	
6	0	0	0	0	519	508	298	0	
7	0	0	0	0	488	502	303	0	
8	0	0	0	0	490	491	309	1	
9	0	0	0	0	480	502	313	3	
10	0	0	0	0	477	507	320	6	
11	0	0	0	0	500	508	325	8	
12	0	0	0	0	557	511	332	7	
13	0	0	0	0	583	509	340	5	
14	0	0	0	0	596	507	340	8	
15	0	0	0	0	575	519	343	6	
0	0	0	0	0	527	524	344	15	
1	0	0	0	0	494	516	347	19	
2	0	0	0	0	494	506	352	22	
3	0	0	0	0	497	503	357	24	
4	0	0	0	0	502	509	360	26	
5	0	0	0	0	487	516	366	26	
6	0	0	0	0	481	527	374	38	
7	0	0	0	0	506	522	380	37	
8	0	0	0	0	515	512	386	41	
9	0	0	0	0	496	504	390	45	
10	0	0	0	0	495	502	392	43	
11	0	0	0	0	460	496	395	45	
12	0	0	0	0	524	494	397	50	
13	0	0	0	0	569	505	404	47	
14	0	0	0	0	536	527	409	48	
15	0	0	0	0	471	534	415	47	
0	0	0	0	0	501	513	417	51	
1	0	0	0	0	516	502	421	54	
2	0	0	0	0	526	493	424	54	
3	0	0	0	0	531	496	428	55	
4	0	0	0	0	490	497	431	55	
5	0	0	0	0	490	502	435	58	
6	0	0	0	0	505	511	441	62	
7	0	0	0	0	499	514	441	67	
8	0	0	0	0	487	514	443	65	
9	0	0	0	0	509	517	443	68	
10	0	0	0	0	514	507	445	67	
11	0	0	0	0	499	512	446	69	
12	0	0	0	0	500	524	452	68	
13	0	0	0	0	512	498	453	74	
14	0	0	0	0	523	485	455	71	
15	0	0	0	0	539	482	456	71	
0	0	0	0	0	520	484	461	73	
1	0	0	0	0	529	492	461	75	
2	0	0	0	0	540	508	463	77	
3	0	0	0	0	519	514	468	73	
4	0	0	0	0	500	520	472	74	
5	0	0	0	0	455	510	474	76	
6	0	0	0	0	438	519	475	77	
7	0	0	0	0	470	535	478	75	
8	0	0	0	0	483	521	480	77	
9	0	0	0	0	491	504	480	75	
10	0	0	0	0	519	483	485	79	
11	0	0	0	0	514	501	487	77	
12	0	0	0	0	525	543	488	81	
13	0	0	0	0	534	519	488	85	
14	0	0	0	0	524	491	489	82	
15	0	0	0	0	552	487	491	86	
0	0	0	0	0	568	515	492	88	
1	0	0	0	0	548	521	494	90	
2	0	0	0	0	465	511	496	95	
3	0	0	0	0	479	500	496	95	
4	0	0	0	0	499	504	496	95	
5	0	0	0	0	524	504	499	101	
6	0	0	0	0	567	501	498	106	
7	0	0	0	0	568	500	500	106	
8	0	0	0	0	529	504	504	106	
9	0	0	0	0	488	510	503	111	
10	0	0	0	0	479	518	503	109	
11	0	0	0	0	480	518	505	112	
12	0	0	0	0	518	504	506	114	
13	0	0	0	0	475	504	507	119	
14	0	0	0	0	478	508	508	121	
15	0	0	0	0	483	508	511	128	
0	0	0	0	0	526	517	512	130	
1	0	0	0	0	579	508	515	137	
2	0	0	0	0	553	514	515	136	
3	0	0	0	0	548	512	518	133	
4	0	0	0	0	550	507	520	135	
5	0	0	0	0	551	497	522	133	
6	0	0	0	0	483	498	523	137	
7	0	0	0	0	445	535	525	146	
8	0	0	0	0	451	523	528	146	
9	0	0	0	0	472	508	530	150	
10	0	0	0	0	487	491	533	160	
11	0	0	0	0	565	498	532	153	
12	0	0	0	0	563	496	533	159	
13	0	0	0	0	522	505	532	161	
14	0	0	0	0	486	517	533	163	
15	0	0	0	0	479	505	536	167	
0	0	0	0	0	524	501	536	168	
1	0	0	0	0	506	509	540	171	
2	0	0	0	0	482	515	541	173	
3	0	0	0	0	461	513	542	174	
4	0	0	0	0	488	505	542	174	
5	0	0	0	0	537	504	544	179	
6	0	0	0	0	615	497	544	178	
7	0	0	0	0	551	505	547	181	
8	0	0	0	0	520	510	549	185	
9	0	0	0	0	565	509	550	188	
10	0	0	0	0	551	515	550	189	
11	0	0	0	0	483	522	552	190	
12	0	0	0	0	448	508	553	191	
13	0	0	0	0	464	508	555	193	
14	0	0	0	0	522	508	558	193	
15	0	0	0	0	547	519	559	198	
0	0	0	0	0	553	524	559	199	
1	0	0	0	0	498	515	561	201	
2	0	0	0	0	488	507	562	200	
3	0	0	0	0	466	502	563	200	
4	0	0	0	0	469	497	564	203	
5	0	0	0	0	464	494	565	203	
6	0	0	0	0	479	491	566	204	
7	0	0	0	0	519	495	567	201	
8	0	0	0	0	532	513	567	204	
9	0	0	0	0	517	531	568	201	
10	0	0	0	0	529	522	569	205	
11	0	0	0	0	545	496	568	206	
12	0	0	0	0	511	484	570	209	
13	0	0	0	0	497	495	572	208	
14	0	0	0	0	487	528	573	208	
15	0	0	0	0	484	523	573	209	
0	0	0	0	0	483	502	575	209	
1	0	0	0	0	515	493	575	209	
2	0	0	0	0	528	492	575	211	
3	0	0	0	0	521	505	575	213	
4	0	0	0	0	512	514	576	213	
5	0	0	0	0	509	511	575	211	
6	0	0	0	0	510	507	575	209	
7	0	0	0	0	509	516	575	211	
8	0	0	0	0	489	514	577	211	
9	0	0	0	0	508	519	577	211	
10	0	0	0	0	522	507	578	211	
11	0	0	0	0	480	498	578	209	
12	0	0	0	0	512	501	579	210	
13	0	0	0	0	582	508	579	211	
14	0	0	0	0	574	511	579	211	
15	0	0	0	0	539	529	580	211	
0	0	0	0	0	513	521	581	212	
1	0	0	0	0	503	510	582	211	
2	0	0	0	0	502	502	583	213	
3	0	0	0	0	515	508	585	214	
4	0	0	0	0	518	504	586	213	
5	0	0	0	0	518	497	587	215	
6	0	0	0	0	502	512	587	216	
7	0	0	0	0	488	516	588	216	
8	0	0	0	0	501	503	589	217	
9	0	0	0	0	536	493	590	216	
10	0	0	0	0	515	503	591	216	
11	0	0	0	0	481	507	591	216	
12	0	0	0	0	475	508	592	216	
13	0	0	0	0	534	500	592	215	
14	0	0	0	0	536	509	592	213	
15	0	0	0	0	572	513	592	214	
0	0	0	0	0	563	511	593	213	
1	0	0	0	0	532	507	593	211	
2	0	0	0	0	513	497	593	211	
3	0	0	0	0	480	489	594	209	
4	0	0	0	0	435	497	595	209	
5	0	0	0	0	409	514	596	211	
6	0	0	0	0	448	529	597	208	
7	0	0	0	0	473	524	597	207	
8	0	0	0	0	468	514	598	208	
9	0	0	0	0	473	495	598	207	
10	0	0	0	0	486	500	599	209	
11	0	0	0	0	502	512	599	208	
12	0	0	0	0	568	508	599	209	
13	0	0	0	0	658	508	600	211	
14	0	0	0	0	622	514	600	210	
15	0	0	0	0	536	516	601	210	
0	0	0	0	0	510	512	601	211	
1	0	0	0	0	555	502	601	212	
2	0	0	0	0	540	504	602	211	
3	0	0	0	0	497	499	602	212	
4	0	0	0	0	458	508	602	211	
5	0	0	0	0	451	522	603	212	
6	0	0	0	0	465	526	603	211	
7	0	0	0	0	484	516	604	210	
8	0	0	0	0	512	504	604	211	
9	0	0	0	0	553	510	605	210	
10	0	0	0	0	504	512	605	211	
11	0	0	0	0	574	493	605	212	
12	0	0	0	0	565	492	606	213	
13	0	0	0	0	453	507	606	211	
14	0	0	0	0	424	518	606	213	
15	0	0	0	0	471	495	606	214	
0	0	0	0	0	511	488	605	214	
1	0	0	0	0	525	508	606	214	
2	0	0	0	0	518	519	606	215	
3	0	0	0	0	512	512	607	213	
4	0	0	0	0	554	505	607	214	
5	0	0	0	0	527	501	607	215	
6	0	0	0	0	504	505	607	214	
7	0	0	0	0	531	514	609	214	
8	0	0	0	0	546	511	609	215	
9	0	0	0	0	543	509	609	213	
10	0	0	0	0	528	510	610	213	
11	0	0	0	0	493	511	611	212	
12	0	0	0	0	462	527	610	212	
13	0	0	0	0	499	524	611	212	
14	0	0	0	0	521	505	611	211	
15	0	0	0	0	540	486	611	211	
0	0	0	0	0	575	491	612	211	
1	0	0	0	0	525	504	612	212	
2	0	0	0	0	463	510	613	213	
3	0	0	0	0	466	509	612	213	
4	0	0	0	0	441	512	613	213	
5	0	0	0	0	449	517	614	213	
6	0	0	0	0	464	515	615	213	
7	0	0	0	0	497	505	614	214	
8	0	0	0	0	510	502	614	213	
9	0	0	0	0	522	505	614	214	
10	0	0	0	0	552	499	614	214	
11	0	0	0	0	568	508	614	213	
12	0	0	0	0	592	511	615	215	
13	0	0	0	0	610	506	615	214	
14	0	0	0	0	524	525	615	214	
15	0	0	0	0	478	525	615	214	
0	0	0	0	0	483	508	615	214	
1	0	0	0	0	513	497	615	214	
2	0	0	0	0	494	500	615	214	
3	0	0	0	0	493	496	614	212	
4	0	0	0	0	518	497	615	214	
5	0	0	0	0	518	502	614	213	
6	0	0	0	0	495	513	615	214	
7	0	0	0	0	519	506	615	214	
8	0	0	0	0	512	507	615	214	
9	0	0	0	0	477	512	615	214	
10	0	0	0	0	483	503	615	212	
11	0	0	0	0	502	504	615	212	
12	0	0	0	0	514	513	615	212	
13	0	0	0	0	521	519	615	212	
14	0	0	0	0	520	504	615	212	
15	0	0	0	0	500	501	615	212	
0	0	0	0	0	493	515	616	212	
1	0	0	0	0	496	519	615	212	
2	0	0	0	0	516	510	615	212	
3	0	0	0	0	512	498	615	211	
4	0	0	0	0	510	485	615	211	
5	0	0	0	0	476	515	615	209	
6	0	0	0	0	487	521	615	208	
7	0	0	0	0	516	508	615	209	
8	0	0	0	0	550	502	615	206	
9	0	0	0	0	531	512	616	205	
10	0	0	0	0	518	512	616	205	
11	0	0	0	0	496	504	615	204	
12	0	0	0	0	476	519	615	203	
13	0	0	0	0	508	520	615	203	
14	0	0	0	0	510	510	615	202	
15	0	0	0	0	519	493	615	203	
0	0	0	0	0	529	501	616	203	
1	0	0	0	0	562	500	616	202	
2	0	0	0	0	505	506	615	202	
3	0	0	0	0	508	511	615	202	
4	0	0	0	0	495	518	615	201	
5	0	0	0	0	464	524	615	201	
6	0	0	0	0	484	506	615	201	
7	0	0	0	0	484	508	615	201	
8	0	0	0	0	514	498	615	201	
9	0	0	0	0	534	502	615	201	
10	0	0	0	0	539	509	615	198	
11	0	0	0	0	583	513	615	199	
12	0	0	0	0	575	507	615	198	
13	0	0	0	0	519	496	615	197	
14	0	0	0	0	495	493	615	198	
15	0	0	0	0	465	514	615	199	
0	0	0	0	0	462	525	615	197	
1	0	0	0	0	533	526	615	199	
2	0	0	0	0	551	507	615	198	
3	0	0	0	0	543	495	615	197	
4	0	0	0	0	517	506	615	196	
5	0	0	0	0	537	504	615	197	
6	0	0	0	0	543	504	615	196	
7	0	0	0	0	550	497	615	195	
8	0	0	0	0	532	509	616	196	
9	0	0	0	0	513	516	616	197	
10	0	0	0	0	467	519	616	198	
11	0	0	0	0	460	517	615	197	
12	0	0	0	0	477	523	615	198	
13	0	0	0	0	470	513	616	197	
14	0	0	0	0	489	499	616	196	
15	0	0	0	0	464	504	615	198	
0	0	0	0	0	486	498	615	197	
1	0	0	0	0	492	496	615	197	
2	0	0	0	0	509	504	615	198	
3	0	0	0	0	507	500	616	195	
4	0	0	0	0	546	496	615	196	
5	0	0	0	0	533	512	615	196	
6	0	0	0	0	505	517	615	198	
7	0	0	0	0	520	518	615	197	
8	0	0	0	0	540	507	615	198	
9	0	0	0	0	571	504	615	199	
10	0	0	0	0	535	502	615	199	
11	0	0	0	0	498	503	615	199	
12	0	0	0	0	493	507	615	199	
13	0	0	0	0	507	503	615	198	
14	0	0	0	0	511	506	615	201	
15	0	0	0	0	497	521	615	198	
0	0	0	0	0	493	519	615	198	
1	0	0	0	0	493	511	614	199	
2	0	0	0	0	507	510	614	199	
3	0	0	0	0	547	510	614	199	
4	0	0	0	0	542	508	614	200	
5	0	0	0	0	500	511	614	200	
6	0	0	0	0	491	507	614	199	
7	0	0	0	0	486	499	615	200	
8	0	0	0	0	484	503	614	199	
9	0	0	0	0	492	513	614	198	
10	0	0	0	0	515	530	614	200	
11	0	0	0	0	499	512	614	199	
12	0	0	0	0	513	497	614	199	
13	0	0	0	0	478	510	613	200	
14	0	0	0	0	528	509	613	200	
15	0	0	0	0	560	502	614	199	
0	0	0	0	0	559	501	613	198	
1	0	0	0	0	527	503	614	198	
2	0	0	0	0	465	512	614	198	
3	0	0	0	0	465	508	614	198	
4	0	0	0	0	449	512	613	198	
5	0	0	0	0	464	518	613	197	
6	0	0	0	0	505	514	613	197	
7	0	0	0	0	552	510	614	197	
8	0	0	0	0	580	507	613	196	
9	0	0	0	0	579	498	613	196	
10	0	0	0	0	543	504	613	195	
11	0	0	0	0	523	511	613	196	
12	0	0	0	0	539	503	613	193	
13	0	0	0	0	539	496	613	195	
14	0	0	0	0	508	500	612	193	
15	0	0	0	0	484	504	613	195	
0	0	0	0	0	465	508	613	193	
1	0	0	0	0	451	507	612	193	
2	0	0	0	0	476	514	613	193	
3	0	0	0	0	563	513	613	193	
4	0	0	0	0	568	508	612	192	
5	0	0	0	0	536	515	612	193	
6	0	0	0	0	526	515	611	192	
7	0	0	0	0	498	519	611	193	
8	0	0	0	0	483	511	611	193	
9	0	0	0	0	484	505	611	193	
10	0	0	0	0	507	494	611	193	
11	0	0	0	0	520	492	611	193	
12	0	0	0	0	508	500	611	193	
13	0	0	0	0	522	505	610	193	
14	0	0	0	0	503	507	610	194	
15	0	0	0	0	486	505	610	193	
0	0	0	0	0	500	498	609	193	
1	0	0	0	0	505	502	609	193	
2	0	0	0	0	484	532	609	193	
3	0	0	0	0	484	534	609	192	
4	0	0	0	0	518	515	609	193	
5	0	0	0	0	524	494	609	195	
6	0	0	0	0	511	516	609	194	
7	0	0	0	0	511	512	609	194	
8	0	0	0	0	490	508	608	195	
9	0	0	0	0	516	498	609	195	
10	0	0	0	0	527	505	608	194	
11	0	0	0	0	515	505	609	194	
12	0	0	0	0	518	505	609	193	
13	0	0	0	0	513	516	608	193	
14	0	0	0	0	528	520	608	193	
15	0	0	0	0	528	522	608	193	
0	0	0	0	0	548	511	608	195	
1	0	0	0	0	521	508	608	195	
2	0	0	0	0	524	499	608	194	
3	0	0	0	0	510	499	608	194	
4	0	0	0	0	491	498	608	195	
5	0	0	0	0	495	488	608	195	
6	0	0	0	0	505	487	608	195	
7	0	0	0	0	554	496	607	195	
8	0	0	0	0	540	511	607	195	
9	0	0	0	0	452	516	607	194	
10	0	0	0	0	459	520	606	195	
11	0	0	0	0	464	518	606	195	
12	0	0	0	0	453	511	604	195	
13	0	0	0	0	506	508	604	195	
14	0	0	0	0	583	516	603	194	
15	0	0	0	0	566	512	603	195	
0	0	0	0	0	554	510	603	195	
1	0	0	0	0	547	508	603	196	
2	0	0	0	0	485	498	604	196	
3	0	0	0	0	479	496	604	196	
4	0	0	0	0	482	506	603	197	
5	0	0	0	0	489	517	603	196	
6	0	0	0	0	492	511	603	196	
7	0	0	0	0	499	521	604	197	
8	0	0	0	0	533	511	604	196	
9	0	0	0	0	546	506	604	198	
10	0	0	0	0	533	505	604	197	
11	0	0	0	0	554	501	604	197	
12	0	0	0	0	545	507	604	196	
13	0	0	0	0	525	511	604	197	
14	0	0	0	0	501	504	604	197	
15	0	0	0	0	489	507	603	199	
0	0	0	0	0	475	511	603	198	
1	0	0	0	0	485	515	603	198	
2	0	0	0	0	480	518	603	198	
3	0	0	0	0	520	514	603	199	
4	0	0	0	0	511	499	603	197	
5	0	0	0	0	512	496	603	198	
6	0	0	0	0	540	493	603	197	
7	0	0	0	0	529	504	603	196	
8	0	0	0	0	499	520	603	196	
9	0	0	0	0	504	513	603	196	
10	0	0	0	0	519	506	602	196	
11	0	0	0	0	510	510	602	195	
12	0	0	0	0	502	517	601	196	
13	0	0	0	0	505	510	601	197	
14	0	0	0	0	514	511	602	194	
15	0	0	0	0	520	511	602	195	
0	0	0	0	0	523	501	602	196	
1	0	0	0	0	507	505	602	196	
2	0	0	0	0	494	501	602	196	
3	0	0	0	0	483	499	602	196	
4	0	0	0	0	479	506	602	198	
5	0	0	0	0	477	512	602	197	
6	0	0	0	0	516	511	602	196	
7	0	0	0	0	513	510	602	197	
8	0	0	0	0	518	505	602	196	
9	0	0	0	0	538	499	601	199	
10	0	0	0	0	513	503	602	198	
11	0	0	0	0	502	512	601	197	
12	0	0	0	0	504	518	601	198	
13	0	0	0	0	510	513	601	198	
14	0	0	0	0	520	511	601	201	
15	0	0	0	0	521	510	601	199	
0	0	0	0	0	534	505	601	198	
1	0	0	0	0	536	507	601	198	
2	0	0	0	0	518	508	601	198	
3	0	0	0	0	514	512	600	198	
4	0	0	0	0	512	512	601	199	
5	0	0	0	0	503	513	601	198	
6	0	0	0	0	488	516	600	197	
7	0	0	0	0	486	507	600	198	
8	0	0	0	0	486	505	600	199	
9	0	0	0	0	466	506	600	196	
10	0	0	0	0	451	510	600	198	
11	0	0	0	0	482	503	600	197	
12	0	0	0	0	569	483	599	197	
13	0	0	0	0	534	493	599	198	
14	0	0	0	0	555	518	598	197	
15	0	0	0	0	600	512	599	198	
0	0	0	0	0	564	499	598	197	
1	0	0	0	0	555	499	598	198	
2	0	0	0	0	523	502	598	198	
3	0	0	0	0	485	515	597	198	
4	0	0	0	0	493	516	597	197	
5	0	0	0	0	505	515	597	197	
6	0	0	0	0	514	516	596	197	
7	0	0	0	0	512	512	596	198	
8	0	0	0	0	499	510	595	198	
9	0	0	0	0	463	511	595	198	
10	0	0	0	0	472	515	595	198	
11	0	0	0	0	528	499	595	198	
12	0	0	0	0	507	502	595	198	
13	0	0	0	0	487	507	595	197	
14	0	0	0	0	480	511	595	197	
15	0	0	0	0	476	515	595	198	
0	0	0	0	0	500	523	595	197	
1	0	0	0	0	521	519	595	197	
2	0	0	0	0	525	511	595	198	
3	0	0	0	0	543	498	595	198	
4	0	0	0	0	558	495	595	198	
5	0	0	0	0	507	501	595	198	
6	0	0	0	0	496	508	594	198	
7	0	0	0	0	533	491	594	198	
8	0	0	0	0	549	495	594	199	
9	0	0	0	0	544	508	593	199	
10	0	0	0	0	488	508	593	199	
11	0	0	0	0	480	515	593	199	
12	0	0	0	0	461	513	593	199	
13	0	0	0	0	447	510	593	198	
14	0	0	0	0	475	493	592	198	
15	0	0	0	0	491	499	592	198	
0	0	0	0	0	563	531	592	198	
1	0	0	0	0	620	531	592	199	
2	0	0	0	0	575	515	592	198	
3	0	0	0	0	499	508	592	198	
4	0	0	0	0	480	508	591	198	
5	0	0	0	0	492	508	591	198	
6	0	0	0	0	517	498	591	199	
7	0	0	0	0	531	495	591	198	
8	0	0	0	0	540	493	591	199	
9	0	0	0	0	505	493	591	199	
10	0	0	0	0	491	504	591	198	
11	0	0	0	0	498	518	591	199	
12	0	0	0	0	503	516	590	198	
13	0	0	0	0	490	510	590	198	
14	0	0	0	0	501	505	590	199	
15	0	0	0	0	484	510	590	199	
0	0	0	0	0	477	515	591	200	
1	0	0	0	0	482	511	591	199	
2	0	0	0	0	489	521	590	199	
3	0	0	0	0	470	519	590	200	
4	0	0	0	0	481	518	590	200	
5	0	0	0	0	581	505	590	201	
6	0	0	0	0	611	500	590	200	
7	0	0	0	0	561	497	589	199	
8	0	0	0	0	516	503	589	199	
9	0	0	0	0	502	510	589	199	
10	0	0	0	0	508	510	589	199	
11	0	0	0	0	506	504	589	200	
12	0	0	0	0	528	510	590	200	
13	0	0	0	0	508	513	589	200	
14	0	0	0	0	528	504	589	200	
15	0	0	0	0	534	501	589	200	
0	0	0	0	0	520	513	589	200	
1	0	0	0	0	512	516	589	201	
2	0	0	0	0	509	512	589	201	
3	0	0	0	0	500	505	589	201	
4	0	0	0	0	470	497	589	202	
5	0	0	0	0	484	510	589	201	
6	0	0	0	0	504	503	589	201	
7	0	0	0	0	515	503	588	201	
8	0	0	0	0	530	506	589	201	
9	0	0	0	0	517	514	588	202	
10	0	0	0	0	506	505	588	204	
11	0	0	0	0	507	501	588	202	
12	0	0	0	0	496	501	588	203	
13	0	0	0	0	502	512	588	204	
14	0	0	0	0	511	510	588	203	
15	0	0	0	0	486	507	588	204	
0	0	0	0	0	469	508	588	204	
1	0	0	0	0	478	514	588	204	
2	0	0	0	0	531	518	588	204	
3	0	0	0	0	565	510	588	204	
4	0	0	0	0	539	510	588	204	
5	0	0	0	0	507	504	588	204	
6	0	0	0	0	524	507	588	205	
7	0	0	0	0	504	515	587	204	
8	0	0	0	0	506	526	587	204	
9	0	0	0	0	545	516	588	204	
10	0	0	0	0	539	497	588	204	
11	0	0	0	0	485	499	587	205	
12	0	0	0	0	487	500	587	204	
13	0	0	0	0	504	498	587	204	
14	0	0	0	0	537	510	588	205	
15	0	0	0	0	555	513	587	205	
0	0	0	0	0	536	513	587	204	
1	0	0	0	0	495	518	588	207	
2	0	0	0	0	493	516	588	204	
3	0	0	0	0	455	533	588	204	
4	0	0	0	0	479	507	588	204	
5	0	0	0	0	499	499	588	204	
6	0	0	0	0	491	495	587	204	
7	0	0	0	0	485	496	587	205	
8	0	0	0	0	495	503	587	205	
9	0	0	0	0	512	494	586	204	
10	0	0	0	0	532	497	586	206	
11	0	0	0	0	562	504	587	204	
12	0	0	0	0	567	498	587	204	
13	0	0	0	0	519	507	587	204	
14	0	0	0	0	496	523	587	204	
15	0	0	0	0	528	513	587	204	
0	0	0	0	0	525	499	587	204	
1	0	0	0	0	515	499	587	205	
2	0	0	0	0	494	510	587	205	
3	0	0	0	0	481	520	588	204	
4	0	0	0	0	468	519	588	205	
5	0	0	0	0	475	508	588	204	
6	0	0	0	0	496	512	587	204	
7	0	0	0	0	502	517	588	204	
8	0	0	0	0	507	515	587	204	
9	0	0	0	0	510	519	588	205	
10	0	0	0	0	529	509	587	204	
11	0	0	0	0	525	496	587	203	
12	0	0	0	0	515	506	587	204	
13	0	0	0	0	484	516	587	202	
14	0	0	0	0	466	504	588	203	
15	0	0	0	0	463	493	587	203	
0	0	0	0	0	544	500	587	202	
1	0	0	0	0	572	501	587	202	
2	0	0	0	0	563	511	587	201	
3	0	0	0	0	537	515	588	202	
4	0	0	0	0	509	508	587	202	
5	0	0	0	0	481	506	587	202	
6	0	0	0	0	494	504	587	203	
7	0	0	0	0	511	505	587	202	
8	0	0	0	0	625	503	587	204	
9	0	0	0	0	595	528	587	203	
10	0	0	0	0	541	516	587	202	
11	0	0	0	0	465	502	587	202	
12	0	0	0	0	453	504	587	203	
13	0	0	0	0	483	501	587	203	
14	0	0	0	0	492	501	587	204	
15	0	0	0	0	564	504	588	204	
0	0	0	0	0	529	505	588	203	
1	0	0	0	0	515	504	588	203	
2	0	0	0	0	524	509	587	203	
3	0	0	0	0	496	506	587	203	
4	0	0	0	0	492	506	587	203	
5	0	0	0	0	488	514	588	204	
6	0	0	0	0	496	516	588	203	
7	0	0	0	0	485	523	588	204	
8	0	0	0	0	496	514	587	203	
9	0	0	0	0	496	508	587	201	
10	0	0	0	0	504	502	588	203	
11	0	0	0	0	504	504	587	203	
12	0	0	0	0	497	505	587	203	
13	0	0	0	0	511	503	588	203	
14	0	0	0	0	532	509	588	203	
15	0	0	0	0	497	520	588	204	
0	0	0	0	0	519	515	588	203	
1	0	0	0	0	543	507	588	202	
2	0	0	0	0	531	504	588	203	
3	0	0	0	0	491	506	588	203	
4	0	0	0	0	473	502	587	203	
5	0	0	0	0	519	509	587	203	
6	0	0	0	0	505	517	587	203	
7	0	0	0	0	499	510	587	203	
8	0	0	0	0	474	518	587	203	
9	0	0	0	0	477	510	587	203	
10	0	0	0	0	512	489	586	203	
11	0	0	0	0	528	489	587	203	
12	0	0	0	0	524	504	587	203	
13	0	0	0	0	521	501	587	203	
14	0	0	0	0	531	514	587	203	
15	0	0	0	0	516	512	587	203	
0	0	0	0	0	504	504	587	203	
1	0	0	0	0	516	505	587	203	
2	0	0	0	0	496	506	587	202	
3	0	0	0	0	497	511	587	202	
4	0	0	0	0	529	510	587	202	
5	0	0	0	0	521	516	587	201	
6	0	0	0	0	575	507	588	202	
7	0	0	0	0	569	509	588	202	
8	0	0	0	0	508	534	588	202	
9	0	0	0	0	482	537	587	203	
10	0	0	0	0	497	515	588	201	
11	0	0	0	0	523	496	588	201	
12	0	0	0	0	499	486	588	202	
13	0	0	0	0	494	492	588	202	
14	0	0	0	0	532	496	588	202	
15	0	0	0	0	513	500	588	202	
0	0	0	0	0	495	511	588	203	
1	0	0	0	0	492	509	587	201	
2	0	0	0	0	496	486	588	202	
3	0	0	0	0	497	483	588	200	
4	0	0	0	0	484	517	587	201	
5	0	0	0	0	530	541	588	200	
6	0	0	0	0	513	524	588	201	
7	0	0	0	0	481	508	587	200	
8	0	0	0	0	483	503	587	199	
9	0	0	0	0	476	496	587	199	
10	0	0	0	0	416	507	587	198	
11	0	0	0	0	410	513	587	199	
12	0	0	0	0	489	517	587	198	
13	0	0	0	0	531	516	587	198	
14	0	0	0	0	578	508	588	199	
15	0	0	0	0	674	480	587	199	
0	0	0	0	0	644	480	588	198	
1	0	0	0	0	564	507	587	199	
2	0	0	0	0	540	522	587	199	
3	0	0	0	0	547	516	588	198	
4	0	0	0	0	537	517	588	198	
5	0	0	0	0	524	517	588	198	
6	0	0	0	0	505	505	589	197	
7	0	0	0	0	508	505	588	198	
8	0	0	0	0	512	504	588	198	
9	0	0	0	0	479	515	588	198	
10	0	0	0	0	460	519	588	198	
11	0	0	0	0	463	510	588	198	
12	0	0	0	0	472	509	589	198	
13	0	0	0	0	454	509	589	197	
14	0	0	0	0	504	511	589	198	
15	0	0	0	0	531	508	589	198	
0	0	0	0	0	487	504	589	197	
1	0	0	0	0	489	501	589	197	
2	0	0	0	0	499	515	588	197	
3	0	0	0	0	481	510	588	197	
4	0	0	0	0	476	510	588	197	
5	0	0	0	0	534	506	588	197	
6	0	0	0	0	556	507	588	197	
7	0	0	0	0	552	516	589	198	
8	0	0	0	0	531	509	588	197	
9	0	0	0	0	483	507	588	198	
10	0	0	0	0	460	498	588	197	
11	0	0	0	0	484	496	589	197	
12	0	0	0	0	530	498	589	197	
13	0	0	0	0	586	500	589	198	
14	0	0	0	0	593	510	589	197	
15	0	0	0	0	551	513	589	198	
0	0	0	0	0	518	512	589	196	
1	0	0	0	0	496	515	589	198	
2	0	0	0	0	471	513	588	197	
3	0	0	0	0	504	495	589	198	
4	0	0	0	0	503	505	589	197	
5	0	0	0	0	511	506	589	197	
6	0	0	0	0	502	510	589	197	
7	0	0	0	0	495	515	589	197	
8	0	0	0	0	495	517	589	197	
9	0	0	0	0	526	511	589	197	
10	0	0	0	0	517	511	589	197	
11	0	0	0	0	524	505	590	197	
12	0	0	0	0	511	506	589	196	
13	0	0	0	0	499	506	590	196	
14	0	0	0	0	491	504	590	197	
15	0	0	0	0	479	504	590	196	
0	0	0	0	0	480	503	590	196	
1	0	0	0	0	494	509	590	195	
2	0	0	0	0	490	513	590	195	
3	0	0	0	0	462	516	590	196	
4	0	0	0	0	488	511	590	194	
5	0	0	0	0	508	503	590	195	
6	0	0	0	0	521	512	590	194	
7	0	0	0	0	548	504	590	197	
8	0	0	0	0	570	501	590	196	
9	0	0	0	0	574	507	590	196	
10	0	0	0	0	549	508	590	196	
11	0	0	0	0	542	508	590	196	
12	0	0	0	0	551	497	590	195	
13	0	0	0	0	491	495	590	196	
14	0	0	0	0	463	508	590	196	
15	0	0	0	0	482	515	590	195	
0	0	0	0	0	482	522	590	196	
1	0	0	0	0	461	532	590	196	
2	0	0	0	0	502	519	590	196	
3	0	0	0	0	542	499	590	197	
4	0	0	0	0	542	501	590	195	
5	0	0	0	0	534	501	590	195	
6	0	0	0	0	559	505	590	196	
7	0	0	0	0	499	503	590	195	
8	0	0	0	0	448	512	589	195	
9	0	0	0	0	483	501	589	196	
10	0	0	0	0	519	496	588	195	
11	0	0	0	0	528	500	588	195	
12	0	0	0	0	524	515	589	195	
13	0	0	0	0	537	511	588	195	
14	0	0	0	0	534	508	588	194	
15	0	0	0	0	540	512	588	194	
0	0	0	0	0	522	516	588	195	
1	0	0	0	0	498	511	588	195	
2	0	0	0	0	507	507	587	193	
3	0	0	0	0	498	510	588	195	
4	0	0	0	0	504	501	588	194	
5	0	0	0	0	500	513	588	193	
6	0	0	0	0	511	511	588	192	
7	0	0	0	0	496	509	588	193	
8	0	0	0	0	490	519	588	192	
9	0	0	0	0	506	505	588	192	
10	0	0	0	0	502	501	588	192	
11	0	0	0	0	489	495	587	193	
12	0	0	0	0	495	511	588	192	
13	0	0	0	0	510	502	588	193	
14	0	0	0	0	516	504	587	192	
15	0	0	0	0	515	514	587	193	
0	0	0	0	0	520	513	587	192	
1	0	0	0	0	511	508	587	192	
2	0	0	0	0	491	504	587	192	
3	0	0	0	0	498	503	587	192	
4	0	0	0	0	511	503	587	192	
5	0	0	0	0	511	505	587	190	
6	0	0	0	0	530	499	587	191	
7	0	0	0	0	477	504	587	190	
8	0	0	0	0	477	524	587	189	
9	0	0	0	0	492	532	587	191	
10	0	0	0	0	508	509	587	191	
11	0	0	0	0	555	511	587	189	
12	0	0	0	0	546	516	586	188	
13	0	0	0	0	499	513	586	187	
14	0	0	0	0	496	501	586	188	
15	0	0	0	0	582	486	586	188	
0	0	0	0	0	611	506	586	188	
1	0	0	0	0	569	514	586	188	
2	0	0	0	0	499	500	587	188	
3	0	0	0	0	508	503	586	187	
4	0	0	0	0	534	509	587	186	
5	0	0	0	0	501	509	587	187	
6	0	0	0	0	487	499	587	185	
7	0	0	0	0	505	504	587	185	
8	0	0	0	0	495	527	587	186	
9	0	0	0	0	462	514	587	184	
10	0	0	0	0	457	504	587	185	
11	0	0	0	0	461	504	586	185	
12	0	0	0	0	498	510	586	184	
13	0	0	0	0	576	509	587	187	
14	0	0	0	0	548	506	587	186	
15	0	0	0	0	512	508	588	186	
0	0	0	0	0	520	514	588	188	
1	0	0	0	0	540	508	588	189	
2	0	0	0	0	515	503	588	189	
3	0	0	0	0	482	509	588	191	
4	0	0	0	0	489	509	588	192	
5	0	0	0	0	505	507	588	190	
6	0	0	0	0	519	508	588	190	
7	0	0	0	0	492	514	588	190	
8	0	0	0	0	488	513	588	191	
9	0	0	0	0	500	515	588	191	
10	0	0	0	0	502	507	588	189	
11	0	0	0	0	519	499	588	191	
12	0	0	0	0	568	492	588	191	
13	0	0	0	0	532	508	588	193	
14	0	0	0	0	492	508	588	193	
15	0	0	0	0	491	512	588	193	
0	0	0	0	0	500	516	588	194	
1	0	0	0	0	464	511	588	192	
2	0	0	0	0	443	515	588	192	
3	0	0	0	0	462	523	588	191	
4	0	0	0	0	519	505	588	192	
5	0	0	0	0	542	499	588	191	
6	0	0	0	0	536	508	588	191	
7	0	0	0	0	563	507	588	191	
8	0	0	0	0	555	492	588	192	
9	0	0	0	0	556	495	588	191	
10	0	0	0	0	546	502	588	192	
11	0	0	0	0	527	507	588	192	
12	0	0	0	0	511	512	588	192	
13	0	0	0	0	525	504	588	193	
14	0	0	0	0	512	512	588	191	
15	0	0	0	0	496	508	588	192	
0	0	0	0	0	489	508	588	192	
1	0	0	0	0	487	506	587	191	
2	0	0	0	0	482	513	588	191	
3	0	0	0	0	489	507	588	191	
4	0	0	0	0	495	514	588	192	
5	0	0	0	0	497	513	588	191	
6	0	0	0	0	486	505	588	191	
7	0	0	0	0	462	502	588	190	
8	0	0	0	0	486	516	588	190	
9	0	0	0	0	520	534	588	188	
10	0	0	0	0	555	523	588	187	
11	0	0	0	0	546	508	588	187	
12	0	0	0	0	528	491	589	186	
13	0	0	0	0	510	482	588	184	
14	0	0	0	0	513	500	588	184	
15	0	0	0	0	513	495	588	185	
0	0	0	0	0	498	503	588	183	
1	0	0	0	0	487	521	588	185	
2	0	0	0	0	473	523	588	184	
3	0	0	0	0	458	510	588	183	
4	0	0	0	0	492	501	588	184	
5	0	0	0	0	537	499	587	182	
6	0	0	0	0	574	489	587	181	
7	0	0	0	0	583	497	587	181	
8	0	0	0	0	572	519	587	183	
9	0	0	0	0	495	521	586	184	
10	0	0	0	0	461	518	586	183	
11	0	0	0	0	499	523	586	184	
12	0	0	0	0	484	516	586	182	
13	0	0	0	0	512	494	586	180	
14	0	0	0	0	550	496	586	182	
15	0	0	0	0	577	501	586	182	
0	0	0	0	0	522	516	586	182	
1	0	0	0	0	494	519	586	187	
2	0	0	0	0	484	515	586	189	
3	0	0	0	0	540	505	585	185	
4	0	0	0	0	556	505	585	185	
5	0	0	0	0	527	507	585	186	
6	0	0	0	0	494	506	586	184	
7	0	0	0	0	496	508	585	187	
8	0	0	0	0	506	508	585	185	
9	0	0	0	0	498	504	585	185	
10	0	0	0	0	509	505	585	182	
11	0	0	0	0	495	513	585	182	
12	0	0	0	0	462	518	586	181	
13	0	0	0	0	468	512	585	185	
14	0	0	0	0	489	508	585	183	
15	0	0	0	0	489	512	585	181	
0	0	0	0	0	488	514	585	182	
1	0	0	0	0	502	501	585	181	
2	0	0	0	0	518	496	585	182	
3	0	0	0	0	520	504	585	183	
4	0	0	0	0	536	520	585	181	
5	0	0	0	0	512	509	585	184	
6	0	0	0	0	540	498	585	185	
7	0	0	0	0	563	495	585	185	
8	0	0	0	0	541	504	584	187	
9	0	0	0	0	524	509	584	186	
10	0	0	0	0	510	508	584	186	
11	0	0	0	0	510	512	584	185	
12	0	0	0	0	510	520	584	185	
13	0	0	0	0	471	513	583	184	
14	0	0	0	0	451	505	583	184	
15	0	0	0	0	464	507	584	185	
0	0	0	0	0	495	513	583	185	
1	0	0	0	0	510	520	584	184	
2	0	0	0	0	513	519	583	185	
3	0	0	0	0	525	509	583	184	
4	0	0	0	0	536	495	583	185	
5	0	0	0	0	536	495	583	184	
6	0	0	0	0	533	495	583	184	
7	0	0	0	0	559	487	583	184	
8	0	0	0	0	532	491	583	185	
9	0	0	0	0	478	503	583	184	
10	0	0	0	0	505	517	583	185	
11	0	0	0	0	494	516	583	185	
12	0	0	0	0	489	508	584	184	
13	0	0	0	0	497	506	583	184	
14	0	0	0	0	518	512	584	184	
15	0	0	0	0	496	526	584	185	
0	0	0	0	0	516	526	584	184	
1	0	0	0	0	591	519	583	184	
2	0	0	0	0	536	511	583	186	
3	0	0	0	0	463	511	583	186	
4	0	0	0	0	450	510	583	185	
5	0	0	0	0	458	501	583	184	
6	0	0	0	0	485	491	583	184	
7	0	0	0	0	588	497	583	184	
8	0	0	0	0	604	503	583	184	
9	0	0	0	0	579	499	582	185	
10	0	0	0	0	568	502	583	185	
11	0	0	0	0	528	510	582	183	
12	0	0	0	0	497	516	582	185	
13	0	0	0	0	492	523	583	185	
14	0	0	0	0	485	512	582	184	
15	0	0	0	0	483	506	582	184	
0	0	0	0	0	487	511	582	184	
1	0	0	0	0	490	507	582	184	
2	0	0	0	0	487	505	582	185	
3	0	0	0	0	496	497	582	185	
4	0	0	0	0	497	528	582	185	
5	0	0	0	0	482	538	582	184	
6	0	0	0	0	493	521	582	185	
7	0	0	0	0	486	501	582	184	
8	0	0	0	0	499	487	582	183	
9	0	0	0	0	512	490	582	182	
10	0	0	0	0	509	494	582	183	
11	0	0	0	0	513	489	582	183	
12	0	0	0	0	527	496	582	182	
13	0	0	0	0	517	504	581	181	
14	0	0	0	0	499	519	582	183	
15	0	0	0	0	511	524	581	182	
0	0	0	0	0	521	520	582	180	
1	0	0	0	0	521	518	582	182	
2	0	0	0	0	542	508	582	180	
3	0	0	0	0	526	508	582	181	
4	0	0	0	0	507	509	582	180	
5	0	0	0	0	516	507	582	179	
6	0	0	0	0	507	505	581	179	
7	0	0	0	0	464	505	582	177	
8	0	0	0	0	475	507	582	175	
9	0	0	0	0	499	514	582	175	
10	0	0	0	0	513	509	581	176	
11	0	0	0	0	501	507	581	174	
12	0	0	0	0	543	508	581	174	
13	0	0	0	0	535	513	581	173	
14	0	0	0	0	527	516	581	173	
15	0	0	0	0	549	502	581	174	
0	0	0	0	0	548	505	580	172	
1	0	0	0	0	519	508	581	172	
2	0	0	0	0	532	500	580	172	
3	0	0	0	0	533	488	581	172	
4	0	0	0	0	497	489	581	172	
5	0	0	0	0	441	508	580	172	
6	0	0	0	0	427	517	580	173	
7	0	0	0	0	446	518	580	173	
8	0	0	0	0	462	516	580	172	
9	0	0	0	0	537	512	580	173	
10	0	0	0	0	609	515	580	173	
11	0	0	0	0	602	511	580	173	
12	0	0	0	0	555	512	581	173	
13	0	0	0	0	551	502	582	172	
14	0	0	0	0	540	504	581	171	
15	0	0	0	0	518	509	581	172	
0	0	0	0	0	496	503	581	172	
1	0	0	0	0	457	508	582	171	
2	0	0	0	0	487	513	582	171	
3	0	0	0	0	472	507	581	172	
4	0	0	0	0	476	511	582	172	
5	0	0	0	0	474	523	582	172	
6	0	0	0	0	491	509	582	172	
7	0	0	0	0	508	516	582	172	
8	0	0	0	0	523	511	582	171	
9	0	0	0	0	521	502	582	172	
10	0	0	0	0	503	500	582	172	
11	0	0	0	0	519	504	581	171	
12	0	0	0	0	538	506	581	171	
13	0	0	0	0	507	503	581	172	
14	0	0	0	0	501	504	580	173	
15	0	0	0	0	519	502	581	172	
0	0	0	0	0	520	506	580	172	
1	0	0	0	0	515	517	580	172	
2	0	0	0	0	547	505	580	172	
3	0	0	0	0	530	499	580	172	
4	0	0	0	0	502	512	579	172	
5	0	0	0	0	483	506	579	172	
6	0	0	0	0	480	510	580	173	
7	0	0	0	0	457	508	580	172	
8	0	0	0	0	474	504	579	171	
9	0	0	0	0	500	512	580	172	
10	0	0	0	0	525	518	580	172	
11	0	0	0	0	608	506	580	171	
12	0	0	0	0	629	500	579	171	
13	0	0	0	0	550	504	579	171	
14	0	0	0	0	487	508	579	172	
15	0	0	0	0	469	510	579	171	
0	0	0	0	0	470	513	579	173	
1	0	0	0	0	484	507	579	172	
2	0	0	0	0	497	509	579	171	
3	0	0	0	0	528	510	579	172	
4	0	0	0	0	493	510	579	172	
5	0	0	0	0	472	504	579	172	
6	0	0	0	0	475	507	579	171	
7	0	0	0	0	483	517	579	171	
8	0	0	0	0	531	518	579	170	
9	0	0	0	0	510	514	578	170	
10	0	0	0	0	493	509	578	169	
11	0	0	0	0	551	502	578	170	
12	0	0	0	0	576	496	578	171	
13	0	0	0	0	545	503	577	170	
14	0	0	0	0	538	506	577	170	
15	0	0	0	0	517	511	577	170	
0	0	0	0	0	503	502	577	170	
1	0	0	0	0	499	501	577	171	
2	0	0	0	0	507	511	577	171	
3	0	0	0	0	519	513	577	171	
4	0	0	0	0	507	487	577	169	
5	0	0	0	0	537	491	577	170	
6	0	0	0	0	523	513	577	171	
7	0	0	0	0	492	523	577	171	
8	0	0	0	0	505	513	576	170	
9	0	0	0	0	528	510	577	171	
10	0	0	0	0	518	517	576	170	
11	0	0	0	0	509	515	576	169	
12	0	0	0	0	500	513	576	170	
13	0	0	0	0	482	508	576	169	
14	0	0	0	0	495	509	576	168	
15	0	0	0	0	497	500	576	168	
0	0	0	0	0	489	493	576	168	
1	0	0	0	0	486	502	576	167	
2	0	0	0	0	495	507	576	166	
3	0	0	0	0	543	509	576	167	
4	0	0	0	0	546	515	576	166	
5	0	0	0	0	514	510	577	165	
6	0	0	0	0	515	507	576	164	
7	0	0	0	0	510	508	577	162	
8	0	0	0	0	516	509	576	162	
9	0	0	0	0	508	510	577	161	
10	0	0	0	0	496	504	577	161	
11	0	0	0	0	493	500	576	161	
12	0	0	0	0	491	521	576	161	
13	0	0	0	0	501	510	576	161	
14	0	0	0	0	509	503	576	160	
15	0	0	0	0	510	510	577	160	
0	0	0	0	0	510	505	576	159	
1	0	0	0	0	492	507	576	159	
2	0	0	0	0	496	510	576	160	
3	0	0	0	0	492	532	576	161	
4	0	0	0	0	504	519	577	160	
5	0	0	0	0	500	502	577	160	
6	0	0	0	0	470	502	577	160	
7	0	0	0	0	472	496	577	160	
8	0	0	0	0	458	501	577	161	
9	0	0	0	0	510	504	577	161	
10	0	0	0	0	592	501	577	161	
11	0	0	0	0	607	507	576	161	
12	0	0	0	0	596	509	577	160	
13	0	0	0	0	584	505	577	161	
14	0	0	0	0	500	505	577	161	
15	0	0	0	0	450	510	577	162	
0	0	0	0	0	470	520	577	163	
1	0	0	0	0	513	507	577	162	
2	0	0	0	0	559	501	577	163	
3	0	0	0	0	548	507	577	163	
4	0	0	0	0	536	511	577	163	
5	0	0	0	0	543	513	577	163	
6	0	0	0	0	559	512	577	164	
7	0	0	0	0	536	510	578	165	
8	0	0	0	0	515	512	577	165	
9	0	0	0	0	497	508	577	165	
10	0	0	0	0	472	502	578	165	
11	0	0	0	0	472	505	577	165	
12	0	0	0	0	461	503	578	164	
13	0	0	0	0	437	504	578	164	
14	0	0	0	0	424	514	578	164	
15	0	0	0	0	446	516	578	164	
0	0	0	0	0	465	509	578	164	
1	0	0	0	0	536	492	578	165	
2	0	0	0	0	598	495	577	164	
3	0	0	0	0	550	500	578	165	
4	0	0	0	0	490	511	578	163	
5	0	0	0	0	510	524	578	164	
6	0	0	0	0	537	519	578	164	
7	0	0	0	0	537	512	578	165	
8	0	0	0	0	507	511	579	163	
9	0	0	0	0	488	515	578	164	
10	0	0	0	0	493	496	578	163	
11	0	0	0	0	523	499	578	163	
12	0	0	0	0	550	507	579	163	
13	0	0	0	0	556	498	579	163	
14	0	0	0	0	539	504	579	163	
15	0	0	0	0	553	509	579	163	
0	0	0	0	0	531	526	579	164	
1	0	0	0	0	532	513	579	164	
2	0	0	0	0	514	503	579	163	
3	0	0	0	0	495	501	579	163	
4	0	0	0	0	492	505	579	164	
5	0	0	0	0	487	513	579	164	
6	0	0	0	0	479	527	580	164	
7	0	0	0	0	491	525	580	164	
8	0	0	0	0	496	500	580	165	
9	0	0	0	0	506	492	580	165	
10	0	0	0	0	505	500	580	164	
11	0	0	0	0	493	511	580	165	
12	0	0	0	0	490	503	580	166	
13	0	0	0	0	499	499	580	167	
14	0	0	0	0	502	513	580	167	
15	0	0	0	0	512	510	580	167	
0	0	0	0	0	523	514	580	168	
1	0	0	0	0	524	508	580	168	
2	0	0	0	0	509	508	581	167	
3	0	0	0	0	489	512	580	166	
4	0	0	0	0	481	503	580	167	
5	0	0	0	0	473	507	580	167	
6	0	0	0	0	495	512	581	167	
7	0	0	0	0	536	503	580	167	
8	0	0	0	0	565	503	580	167	
9	0	0	0	0	560	512	580	167	
10	0	0	0	0	514	523	580	167	
11	0	0	0	0	475	509	580	169	
12	0	0	0	0	477	495	581	168	
13	0	0	0	0	471	510	580	169	
14	0	0	0	0	494	521	580	168	
15	0	0	0	0	543	510	580	169	
0	0	0	0	0	498	510	581	169	
1	0	0	0	0	497	511	580	168	
2	0	0	0	0	541	496	581	169	
3	0	0	0	0	565	490	581	168	
4	0	0	0	0	587	497	581	166	
5	0	0	0	0	596	498	581	167	
6	0	0	0	0	553	507	581	167	
7	0	0	0	0	482	516	581	167	
8	0	0	0	0	481	518	581	167	
9	0	0	0	0	486	510	581	166	
10	0	0	0	0	488	511	581	166	
11	0	0	0	0	465	511	581	166	
12	0	0	0	0	470	509	581	165	
13	0	0	0	0	477	506	581	164	
14	0	0	0	0	503	506	580	165	
15	0	0	0	0	539	507	580	164	
0	0	0	0	0	540	508	581	165	
1	0	0	0	0	556	507	581	165	
2	0	0	0	0	555	504	580	160	
3	0	0	0	0	521	509	581	159	
4	0	0	0	0	507	522	581	159	
5	0	0	0	0	500	514	581	158	
6	0	0	0	0	476	510	581	158	
7	0	0	0	0	416	520	581	157	
8	0	0	0	0	426	514	580	155	
9	0	0	0	0	471	503	581	154	
10	0	0	0	0	525	496	581	154	
11	0	0	0	0	583	499	581	152	
12	0	0	0	0	598	513	581	151	
13	0	0	0	0	534	511	581	152	
14	0	0	0	0	470	502	580	152	
15	0	0	0	0	457	492	581	152	
0	0	0	0	0	505	491	581	152	
1	0	0	0	0	532	527	581	152	
2	0	0	0	0	582	514	581	151	
3	0	0	0	0	585	496	581	151	
4	0	0	0	0	558	499	581	151	
5	0	0	0	0	545	509	581	150	
6	0	0	0	0	497	512	581	150	
7	0	0	0	0	465	516	581	150	
8	0	0	0	0	505	513	581	151	
9	0	0	0	0	488	515	581	149	
10	0	0	0	0	488	515	581	150	
11	0	0	0	0	528	510	581	149	
12	0	0	0	0	513	506	581	147	
13	0	0	0	0	493	507	581	147	
14	0	0	0	0	492	507	581	146	
15	0	0	0	0	487	502	581	145	
0	0	0	0	0	491	503	581	146	
1	0	0	0	0	499	507	581	147	
2	0	0	0	0	492	510	582	146	
3	0	0	0	0	494	509	582	145	
4	0	0	0	0	509	508	582	143	
5	0	0	0	0	516	507	582	143	
6	0	0	0	0	522	509	581	143	
7	0	0	0	0	532	508	580	145	
8	0	0	0	0	528	504	581	144	
9	0	0	0	0	508	507	581	144	
10	0	0	0	0	507	506	580	144	
11	0	0	0	0	507	510	581	143	
12	0	0	0	0	508	511	580	145	
13	0	0	0	0	514	516	580	145	
14	0	0	0	0	510	513	581	144	
15	0	0	0	0	511	504	580	145	
0	0	0	0	0	506	506	581	144	
1	0	0	0	0	514	511	581	143	
2	0	0	0	0	515	515	580	142	
3	0	0	0	0	509	505	580	142	
4	0	0	0	0	508	497	579	144	
5	0	0	0	0	485	507	579	143	
6	0	0	0	0	474	518	579	143	
