# OpenSignals Text File Format. Version 1
# {"20:18:06:13:21:78": {"position": 0, "device": "bitalino_rev", "device name": "20:18:06:13:21:78", "device connection": "BTH20:18:06:13:21:78", "sampling rate": 1000, "resolution": [4, 1, 1, 1, 1, 10, 10, 10, 10], "firmware version": 1281, "comments": "", "keywords": "", "mode": 0, "sync interval": 2, "date": "2023-6-6", "time": "0:7:22.832", "channels": [1, 2, 3, 4], "sensor": ["EMGBITREV", "EMGBITREV", "RAW", "RAW"], "label": ["A1", "A2", "A3", "A4"], "column": ["nSeq", "I1", "I2", "O1", "O2", "A1", "A2", "A3", "A4"], "special": [{}, {}, {}, {}], "digital IO": [0, 0, 1, 1]}}
# EndOfHeader
0	0	0	0	0	508	512	0	0	
1	0	0	0	0	508	510	0	0	
2	0	0	0	0	511	512	0	0	
3	0	0	0	0	512	512	0	0	
4	0	0	0	0	512	510	0	0	
5	0	0	0	0	514	510	0	0	
6	0	0	0	0	514	511	0	0	
7	0	0	0	0	514	511	0	0	
8	0	0	0	0	512	509	0	0	
9	0	0	0	0	511	509	0	0	
10	0	0	0	0	510	511	0	0	
11	0	0	0	0	508	510	0	0	
12	0	0	0	0	507	510	0	0	
13	0	0	0	0	504	509	0	0	
14	0	0	0	0	505	510	0	0	
15	0	0	0	0	504	511	0	0	
0	0	0	0	0	505	510	0	0	
1	0	0	0	0	505	511	0	0	
2	0	0	0	0	503	511	0	0	
3	0	0	0	0	506	510	0	0	
4	0	0	0	0	506	506	0	0	
5	0	0	0	0	510	512	0	0	
6	0	0	0	0	512	511	0	0	
7	0	0	0	0	512	511	0	0	
8	0	0	0	0	512	512	0	0	
9	0	0	0	0	513	514	0	0	
10	0	0	0	0	512	511	0	0	
11	0	0	0	0	512	511	0	0	
12	0	0	0	0	510	512	0	0	
13	0	0	0	0	511	512	0	0	
14	0	0	0	0	509	510	0	0	
15	0	0	0	0	509	511	0	0	
0	0	0	0	0	509	510	0	0	
1	0	0	0	0	507	510	0	0	
2	0	0	0	0	508	510	0	0	
3	0	0	0	0	504	508	0	0	
4	0	0	0	0	505	510	0	0	
5	0	0	0	0	504	508	0	0	
6	0	0	0	0	504	509	0	0	
7	0	0	0	0	505	511	0	0	
8	0	0	0	0	506	510	0	0	
9	0	0	0	0	509	512	0	0	
10	0	0	0	0	512	510	0	0	
11	0	0	0	0	512	510	0	0	
12	0	0	0	0	512	511	0	0	
13	0	0	0	0	512	510	0	0	
14	0	0	0	0	516	510	0	0	
15	0	0	0	0	514	512	0	0	
0	0	0	0	0	511	511	0	0	
1	0	0	0	0	511	510	0	0	
2	0	0	0	0	508	511	0	0	
3	0	0	0	0	507	511	0	0	
4	0	0	0	0	506	512	0	0	
5	0	0	0	0	505	511	0	0	
6	0	0	0	0	504	510	0	0	
7	0	0	0	0	505	510	0	0	
8	0	0	0	0	505	510	0	0	
9	0	0	0	0	504	508	0	0	
10	0	0	0	0	505	510	0	0	
11	0	0	0	0	506	511	0	0	
12	0	0	0	0	508	513	0	0	
13	0	0	0	0	509	511	0	0	
14	0	0	0	0	510	511	0	0	
15	0	0	0	0	510	511	0	0	
0	0	0	0	0	511	510	0	0	
1	0	0	0	0	513	507	0	0	
2	0	0	0	0	515	511	0	0	
3	0	0	0	0	513	509	0	0	
4	0	0	0	0	511	510	0	0	
5	0	0	0	0	510	510	0	0	
6	0	0	0	0	509	508	0	0	
7	0	0	0	0	510	509	0	0	
8	0	0	0	0	510	511	0	0	
9	0	0	0	0	505	510	0	0	
10	0	0	0	0	505	511	0	0	
11	0	0	0	0	504	511	0	0	
12	0	0	0	0	504	509	0	0	
13	0	0	0	0	504	512	0	0	
14	0	0	0	0	505	512	0	0	
15	0	0	0	0	505	512	0	0	
0	0	0	0	0	508	509	0	0	
1	0	0	0	0	508	511	0	0	
2	0	0	0	0	510	512	0	0	
3	0	0	0	0	511	513	0	0	
4	0	0	0	0	510	511	0	0	
5	0	0	0	0	514	510	0	0	
6	0	0	0	0	514	511	0	0	
7	0	0	0	0	515	511	0	0	
8	0	0	0	0	513	509	0	0	
9	0	0	0	0	511	509	0	0	
10	0	0	0	0	510	510	0	0	
11	0	0	0	0	508	510	0	0	
12	0	0	0	0	506	511	0	0	
13	0	0	0	0	505	509	0	0	
14	0	0	0	0	505	508	0	0	
15	0	0	0	0	504	510	0	0	
0	0	0	0	0	504	512	0	0	
1	0	0	0	0	504	510	0	0	
2	0	0	0	0	503	509	0	0	
3	0	0	0	0	505	513	0	0	
4	0	0	0	0	507	511	0	0	
5	0	0	0	0	509	511	0	0	
6	0	0	0	0	512	511	0	0	
7	0	0	0	0	513	511	0	0	
8	0	0	0	0	510	512	0	0	
9	0	0	0	0	513	513	0	0	
10	0	0	0	0	513	510	0	0	
11	0	0	0	0	512	513	0	0	
12	0	0	0	0	511	511	0	0	
13	0	0	0	0	511	509	0	0	
14	0	0	0	0	511	511	0	0	
15	0	0	0	0	509	512	0	0	
0	0	0	0	0	507	511	0	0	
1	0	0	0	0	505	510	0	0	
2	0	0	0	0	503	511	0	0	
3	0	0	0	0	505	510	0	0	
4	0	0	0	0	505	509	0	0	
5	0	0	0	0	508	510	0	0	
6	0	0	0	0	504	510	0	0	
7	0	0	0	0	505	511	0	0	
8	0	0	0	0	508	511	0	0	
9	0	0	0	0	508	508	0	0	
10	0	0	0	0	510	511	0	0	
11	0	0	0	0	512	511	0	0	
12	0	0	0	0	512	509	0	0	
13	0	0	0	0	513	510	0	0	
14	0	0	0	0	513	510	0	0	
15	0	0	0	0	511	511	0	0	
0	0	0	0	0	511	511	0	0	
1	0	0	0	0	508	512	0	0	
2	0	0	0	0	511	512	0	0	
3	0	0	0	0	509	511	0	0	
4	0	0	0	0	507	512	0	0	
5	0	0	0	0	511	512	0	0	
6	0	0	0	0	506	512	0	0	
7	0	0	0	0	504	509	0	0	
8	0	0	0	0	504	510	0	0	
9	0	0	0	0	504	508	0	0	
10	0	0	0	0	504	511	0	0	
11	0	0	0	0	504	510	0	0	
12	0	0	0	0	508	508	0	0	
13	0	0	0	0	508	509	0	0	
14	0	0	0	0	509	508	0	0	
15	0	0	0	0	512	512	0	0	
0	0	0	0	0	513	511	0	0	
1	0	0	0	0	513	511	0	0	
2	0	0	0	0	514	511	0	0	
3	0	0	0	0	513	511	0	0	
4	0	0	0	0	513	512	0	0	
5	0	0	0	0	510	512	0	0	
6	0	0	0	0	508	509	0	0	
7	0	0	0	0	506	509	0	0	
8	0	0	0	0	507	512	0	0	
9	0	0	0	0	505	509	0	0	
10	0	0	0	0	505	510	0	0	
11	0	0	0	0	503	508	0	0	
12	0	0	0	0	504	510	0	0	
13	0	0	0	0	504	510	0	0	
14	0	0	0	0	506	511	0	0	
15	0	0	0	0	505	509	0	0	
0	0	0	0	0	509	509	0	0	
1	0	0	0	0	509	510	0	0	
2	0	0	0	0	511	510	0	0	
3	0	0	0	0	512	510	0	0	
4	0	0	0	0	513	512	0	0	
5	0	0	0	0	513	513	0	0	
6	0	0	0	0	513	512	0	0	
7	0	0	0	0	514	511	0	0	
8	0	0	0	0	511	510	0	0	
9	0	0	0	0	510	512	0	0	
10	0	0	0	0	508	510	0	0	
11	0	0	0	0	506	511	0	0	
12	0	0	0	0	507	512	0	0	
13	0	0	0	0	508	511	0	0	
14	0	0	0	0	505	511	0	0	
15	0	0	0	0	503	511	0	0	
0	0	0	0	0	504	509	0	0	
1	0	0	0	0	506	511	0	0	
2	0	0	0	0	504	508	0	0	
3	0	0	0	0	507	509	0	0	
4	0	0	0	0	508	511	0	0	
5	0	0	0	0	509	512	0	0	
6	0	0	0	0	509	508	0	0	
7	0	0	0	0	511	511	0	0	
8	0	0	0	0	510	511	0	0	
9	0	0	0	0	514	512	0	0	
10	0	0	0	0	513	511	0	0	
11	0	0	0	0	513	513	0	0	
12	0	0	0	0	512	510	0	0	
13	0	0	0	0	512	508	0	0	
14	0	0	0	0	511	510	0	0	
15	0	0	0	0	509	511	0	0	
0	0	0	0	0	503	511	0	0	
1	0	0	0	0	507	512	0	0	
2	0	0	0	0	504	511	0	0	
3	0	0	0	0	504	512	0	0	
4	0	0	0	0	503	510	0	0	
5	0	0	0	0	505	509	0	0	
6	0	0	0	0	505	511	0	0	
7	0	0	0	0	506	511	0	0	
8	0	0	0	0	508	511	0	0	
9	0	0	0	0	509	511	0	0	
10	0	0	0	0	511	511	0	0	
11	0	0	0	0	511	509	0	0	
12	0	0	0	0	512	510	0	0	
13	0	0	0	0	511	513	0	0	
14	0	0	0	0	515	512	0	0	
15	0	0	0	0	512	509	0	0	
0	0	0	0	0	513	509	0	0	
1	0	0	0	0	510	511	0	0	
2	0	0	0	0	509	513	0	0	
3	0	0	0	0	508	512	0	0	
4	0	0	0	0	507	512	0	0	
5	0	0	0	0	505	510	0	0	
6	0	0	0	0	504	509	0	0	
7	0	0	0	0	504	510	0	0	
8	0	0	0	0	502	510	0	0	
9	0	0	0	0	505	509	0	0	
10	0	0	0	0	505	510	0	0	
11	0	0	0	0	508	509	0	0	
12	0	0	0	0	507	510	0	0	
13	0	0	0	0	507	509	0	0	
14	0	0	0	0	509	510	0	0	
15	0	0	0	0	511	510	0	0	
0	0	0	0	0	512	510	0	0	
1	0	0	0	0	512	511	0	0	
2	0	0	0	0	514	512	0	0	
3	0	0	0	0	514	510	0	0	
4	0	0	0	0	513	511	0	0	
5	0	0	0	0	511	513	0	0	
6	0	0	0	0	510	510	0	0	
7	0	0	0	0	508	510	0	0	
8	0	0	0	0	506	511	0	0	
9	0	0	0	0	504	513	0	0	
10	0	0	0	0	506	513	0	0	
11	0	0	0	0	505	510	0	0	
12	0	0	0	0	503	511	0	0	
13	0	0	0	0	502	509	0	0	
14	0	0	0	0	505	512	0	0	
15	0	0	0	0	503	510	0	0	
0	0	0	0	0	506	510	0	0	
1	0	0	0	0	508	510	0	0	
2	0	0	0	0	511	511	0	0	
3	0	0	0	0	513	512	0	0	
4	0	0	0	0	512	511	0	0	
5	0	0	0	0	513	508	0	0	
6	0	0	0	0	516	510	0	0	
7	0	0	0	0	515	511	0	0	
8	0	0	0	0	513	510	0	0	
9	0	0	0	0	511	512	0	0	
10	0	0	0	0	511	510	0	0	
11	0	0	0	0	506	509	0	0	
12	0	0	0	0	505	511	0	0	
13	0	0	0	0	504	509	0	0	
14	0	0	0	0	505	511	0	0	
15	0	0	0	0	503	510	0	0	
0	0	0	0	0	503	511	0	0	
1	0	0	0	0	505	510	0	0	
2	0	0	0	0	503	510	0	0	
3	0	0	0	0	505	510	0	0	
4	0	0	0	0	506	508	0	0	
5	0	0	0	0	509	511	0	0	
6	0	0	0	0	512	511	0	0	
7	0	0	0	0	511	512	0	0	
8	0	0	0	0	514	510	0	0	
9	0	0	0	0	513	509	0	0	
10	0	0	0	0	515	510	0	0	
11	0	0	0	0	512	511	0	0	
12	0	0	0	0	513	511	0	0	
13	0	0	0	0	511	512	0	0	
14	0	0	0	0	510	511	0	0	
15	0	0	0	0	507	510	0	0	
0	0	0	0	0	505	512	0	0	
1	0	0	0	0	504	512	0	0	
2	0	0	0	0	504	511	0	0	
3	0	0	0	0	505	510	0	0	
4	0	0	0	0	504	509	0	0	
5	0	0	0	0	505	510	0	0	
6	0	0	0	0	505	510	0	0	
7	0	0	0	0	507	510	0	0	
8	0	0	0	0	509	511	0	0	
9	0	0	0	0	509	510	0	0	
10	0	0	0	0	512	510	0	0	
11	0	0	0	0	510	510	0	0	
12	0	0	0	0	511	510	0	0	
13	0	0	0	0	512	509	0	0	
14	0	0	0	0	512	510	0	0	
15	0	0	0	0	512	511	0	0	
0	0	0	0	0	512	511	0	0	
1	0	0	0	0	512	510	0	0	
2	0	0	0	0	509	510	0	0	
3	0	0	0	0	510	512	0	0	
4	0	0	0	0	507	513	0	0	
5	0	0	0	0	506	510	0	0	
6	0	0	0	0	504	512	0	0	
7	0	0	0	0	503	508	0	0	
8	0	0	0	0	504	509	0	0	
9	0	0	0	0	504	508	0	0	
10	0	0	0	0	505	510	0	0	
11	0	0	0	0	507	511	0	0	
12	0	0	0	0	508	512	0	0	
13	0	0	0	0	509	511	0	0	
14	0	0	0	0	511	510	0	0	
15	0	0	0	0	513	510	0	0	
0	0	0	0	0	513	508	0	0	
1	0	0	0	0	513	510	0	0	
2	0	0	0	0	513	509	0	0	
3	0	0	0	0	511	512	0	0	
4	0	0	0	0	511	511	0	0	
5	0	0	0	0	511	511	0	0	
6	0	0	0	0	509	509	0	0	
7	0	0	0	0	508	511	0	0	
8	0	0	0	0	508	509	0	0	
9	0	0	0	0	507	510	0	0	
10	0	0	0	0	505	510	0	0	
11	0	0	0	0	503	509	0	0	
12	0	0	0	0	504	511	0	0	
13	0	0	0	0	504	511	0	0	
14	0	0	0	0	505	510	0	0	
15	0	0	0	0	505	512	0	0	
0	0	0	0	0	508	509	0	0	
1	0	0	0	0	505	508	0	0	
2	0	0	0	0	511	510	0	0	
3	0	0	0	0	512	511	0	0	
4	0	0	0	0	513	510	0	0	
5	0	0	0	0	514	512	0	0	
6	0	0	0	0	514	510	0	0	
7	0	0	0	0	512	511	0	0	
8	0	0	0	0	514	512	0	0	
9	0	0	0	0	511	509	0	0	
10	0	0	0	0	511	511	0	0	
11	0	0	0	0	508	511	0	0	
12	0	0	0	0	504	510	0	0	
13	0	0	0	0	505	511	0	0	
14	0	0	0	0	505	509	0	0	
15	0	0	0	0	505	512	0	0	
0	0	0	0	0	503	511	0	0	
1	0	0	0	0	504	510	0	0	
2	0	0	0	0	505	509	0	0	
3	0	0	0	0	506	512	0	0	
4	0	0	0	0	508	511	0	0	
5	0	0	0	0	508	511	0	0	
6	0	0	0	0	509	511	0	0	
7	0	0	0	0	510	510	0	0	
8	0	0	0	0	510	512	0	0	
9	0	0	0	0	513	512	0	0	
10	0	0	0	0	515	512	0	0	
11	0	0	0	0	514	512	0	0	
12	0	0	0	0	515	509	0	0	
13	0	0	0	0	512	510	0	0	
14	0	0	0	0	509	510	0	0	
15	0	0	0	0	509	509	0	0	
0	0	0	0	0	507	510	0	0	
1	0	0	0	0	503	509	0	0	
2	0	0	0	0	505	509	0	0	
3	0	0	0	0	504	510	0	0	
4	0	0	0	0	504	511	0	0	
5	0	0	0	0	505	509	0	0	
6	0	0	0	0	505	508	0	0	
7	0	0	0	0	509	511	0	0	
8	0	0	0	0	509	510	0	0	
9	0	0	0	0	507	512	0	0	
10	0	0	0	0	507	509	0	0	
11	0	0	0	0	510	509	0	0	
12	0	0	0	0	512	511	0	0	
13	0	0	0	0	516	512	0	0	
14	0	0	0	0	513	512	0	0	
15	0	0	0	0	510	511	0	0	
0	0	0	0	0	510	511	0	0	
1	0	0	0	0	511	512	0	0	
2	0	0	0	0	510	511	0	0	
3	0	0	0	0	508	510	0	0	
4	0	0	0	0	507	510	0	0	
5	0	0	0	0	506	509	0	0	
6	0	0	0	0	507	511	0	0	
7	0	0	0	0	506	509	0	0	
8	0	0	0	0	503	512	0	0	
9	0	0	0	0	504	512	0	0	
10	0	0	0	0	507	509	0	0	
11	0	0	0	0	507	510	0	0	
12	0	0	0	0	504	512	0	0	
13	0	0	0	0	510	511	0	0	
14	0	0	0	0	511	511	0	0	
15	0	0	0	0	512	512	0	0	
0	0	0	0	0	513	510	0	0	
1	0	0	0	0	513	511	0	0	
2	0	0	0	0	512	510	0	0	
3	0	0	0	0	512	512	0	0	
4	0	0	0	0	511	511	0	0	
5	0	0	0	0	509	510	0	0	
6	0	0	0	0	509	510	0	0	
7	0	0	0	0	510	510	0	0	
8	0	0	0	0	507	509	0	0	
9	0	0	0	0	503	510	0	0	
10	0	0	0	0	505	512	0	0	
11	0	0	0	0	507	510	0	0	
12	0	0	0	0	505	508	0	0	
13	0	0	0	0	505	508	0	0	
14	0	0	0	0	504	510	0	0	
15	0	0	0	0	506	510	0	0	
0	0	0	0	0	508	511	0	0	
1	0	0	0	0	509	513	0	0	
2	0	0	0	0	510	509	0	0	
3	0	0	0	0	512	511	0	0	
4	0	0	0	0	513	510	0	0	
5	0	0	0	0	513	509	0	0	
6	0	0	0	0	513	511	0	0	
7	0	0	0	0	515	513	0	0	
8	0	0	0	0	513	511	0	0	
9	0	0	0	0	509	511	0	0	
10	0	0	0	0	511	511	0	0	
11	0	0	0	0	507	511	0	0	
12	0	0	0	0	507	510	0	0	
13	0	0	0	0	505	510	0	0	
14	0	0	0	0	505	509	0	0	
15	0	0	0	0	505	511	0	0	
0	0	0	0	0	505	512	0	0	
1	0	0	0	0	504	511	0	0	
2	0	0	0	0	506	511	0	0	
3	0	0	0	0	505	511	0	0	
4	0	0	0	0	508	509	0	0	
5	0	0	0	0	507	512	0	0	
6	0	0	0	0	511	510	0	0	
7	0	0	0	0	513	510	0	0	
8	0	0	0	0	513	510	0	0	
9	0	0	0	0	512	510	0	0	
10	0	0	0	0	515	512	0	0	
11	0	0	0	0	514	510	0	0	
12	0	0	0	0	511	509	0	0	
13	0	0	0	0	511	511	0	0	
14	0	0	0	0	510	512	0	0	
15	0	0	0	0	507	508	0	0	
0	0	0	0	0	505	511	0	0	
1	0	0	0	0	505	512	0	0	
2	0	0	0	0	503	511	0	0	
3	0	0	0	0	504	507	0	0	
4	0	0	0	0	504	512	0	0	
5	0	0	0	0	505	511	0	0	
6	0	0	0	0	508	510	0	0	
7	0	0	0	0	506	508	0	0	
8	0	0	0	0	509	510	0	0	
9	0	0	0	0	509	509	0	0	
10	0	0	0	0	510	510	0	0	
11	0	0	0	0	510	511	0	0	
12	0	0	0	0	512	512	0	0	
13	0	0	0	0	512	511	0	0	
14	0	0	0	0	511	511	0	0	
15	0	0	0	0	513	511	0	0	
0	0	0	0	0	514	510	0	0	
1	0	0	0	0	510	511	0	0	
2	0	0	0	0	509	514	0	0	
3	0	0	0	0	510	512	0	0	
4	0	0	0	0	506	511	0	0	
5	0	0	0	0	506	510	0	0	
6	0	0	0	0	504	510	0	0	
7	0	0	0	0	502	508	0	0	
8	0	0	0	0	505	508	0	0	
9	0	0	0	0	503	508	0	0	
10	0	0	0	0	503	511	0	0	
11	0	0	0	0	507	511	0	0	
12	0	0	0	0	507	509	0	0	
13	0	0	0	0	511	510	0	0	
14	0	0	0	0	511	511	0	0	
15	0	0	0	0	512	508	0	0	
0	0	0	0	0	511	514	0	0	
1	0	0	0	0	514	512	0	0	
2	0	0	0	0	513	512	0	0	
3	0	0	0	0	512	509	0	0	
4	0	0	0	0	513	510	0	0	
5	0	0	0	0	510	511	0	0	
6	0	0	0	0	508	512	0	0	
7	0	0	0	0	509	511	0	0	
8	0	0	0	0	506	510	0	0	
9	0	0	0	0	507	509	0	0	
10	0	0	0	0	505	508	0	0	
11	0	0	0	0	503	509	0	0	
12	0	0	0	0	504	509	0	0	
13	0	0	0	0	506	511	0	0	
14	0	0	0	0	506	512	0	0	
15	0	0	0	0	506	510	0	0	
0	0	0	0	0	509	511	0	0	
1	0	0	0	0	507	510	0	0	
2	0	0	0	0	510	509	0	0	
3	0	0	0	0	512	511	0	0	
4	0	0	0	0	513	512	0	0	
5	0	0	0	0	513	512	0	0	
6	0	0	0	0	512	512	0	0	
7	0	0	0	0	511	510	0	0	
8	0	0	0	0	512	510	0	0	
9	0	0	0	0	511	510	0	0	
10	0	0	0	0	511	511	0	0	
11	0	0	0	0	509	510	0	0	
12	0	0	0	0	504	511	0	0	
13	0	0	0	0	504	510	0	0	
14	0	0	0	0	506	511	0	0	
15	0	0	0	0	502	508	0	0	
0	0	0	0	0	504	508	0	0	
1	0	0	0	0	504	509	0	0	
2	0	0	0	0	503	509	0	0	
3	0	0	0	0	509	510	0	0	
4	0	0	0	0	508	510	0	0	
5	0	0	0	0	508	511	0	0	
6	0	0	0	0	509	511	0	0	
7	0	0	0	0	512	511	0	0	
8	0	0	0	0	513	510	0	0	
9	0	0	0	0	514	511	0	0	
10	0	0	0	0	513	511	0	0	
11	0	0	0	0	514	510	0	0	
12	0	0	0	0	511	511	0	0	
13	0	0	0	0	512	511	0	0	
14	0	0	0	0	508	510	0	0	
15	0	0	0	0	508	510	0	0	
0	0	0	0	0	509	509	0	0	
1	0	0	0	0	505	510	0	0	
2	0	0	0	0	505	509	0	0	
3	0	0	0	0	502	510	0	0	
4	0	0	0	0	504	511	0	0	
5	0	0	0	0	504	511	0	0	
6	0	0	0	0	504	513	0	0	
7	0	0	0	0	506	510	0	0	
8	0	0	0	0	508	509	0	0	
9	0	0	0	0	508	511	0	0	
10	0	0	0	0	510	511	0	0	
11	0	0	0	0	512	511	0	0	
12	0	0	0	0	512	511	0	0	
13	0	0	0	0	513	512	0	0	
14	0	0	0	0	512	512	0	0	
15	0	0	0	0	513	511	0	0	
0	0	0	0	0	512	511	0	0	
1	0	0	0	0	511	512	0	0	
2	0	0	0	0	511	510	0	0	
3	0	0	0	0	508	511	0	0	
4	0	0	0	0	507	510	0	0	
5	0	0	0	0	506	509	0	0	
6	0	0	0	0	505	509	0	0	
7	0	0	0	0	505	509	0	0	
8	0	0	0	0	507	509	0	0	
9	0	0	0	0	505	510	0	0	
10	0	0	0	0	505	512	0	0	
11	0	0	0	0	505	510	0	0	
12	0	0	0	0	506	512	0	0	
13	0	0	0	0	507	509	0	0	
14	0	0	0	0	508	512	0	0	
15	0	0	0	0	511	510	0	0	
0	0	0	0	0	512	512	0	0	
1	0	0	0	0	515	513	0	0	
2	0	0	0	0	513	513	0	0	
3	0	0	0	0	513	511	0	0	
4	0	0	0	0	515	512	0	0	
5	0	0	0	0	512	512	0	0	
6	0	0	0	0	510	511	0	0	
7	0	0	0	0	509	509	0	0	
8	0	0	0	0	505	510	0	0	
9	0	0	0	0	505	508	0	0	
10	0	0	0	0	504	508	0	0	
11	0	0	0	0	502	510	0	0	
12	0	0	0	0	506	508	0	0	
13	0	0	0	0	505	509	0	0	
14	0	0	0	0	504	509	0	0	
15	0	0	0	0	505	509	0	0	
0	0	0	0	0	504	510	0	0	
1	0	0	0	0	507	511	0	0	
2	0	0	0	0	511	513	0	0	
3	0	0	0	0	510	511	0	0	
4	0	0	0	0	513	513	0	0	
5	0	0	0	0	514	512	0	0	
6	0	0	0	0	513	509	0	0	
7	0	0	0	0	511	511	0	0	
8	0	0	0	0	513	511	0	0	
9	0	0	0	0	510	512	0	0	
10	0	0	0	0	512	511	0	0	
11	0	0	0	0	511	512	0	0	
12	0	0	0	0	508	511	0	0	
13	0	0	0	0	504	511	0	0	
14	0	0	0	0	507	511	0	0	
15	0	0	0	0	504	508	0	0	
0	0	0	0	0	505	510	0	0	
1	0	0	0	0	504	510	0	0	
2	0	0	0	0	505	508	0	0	
3	0	0	0	0	504	508	0	0	
4	0	0	0	0	509	510	0	0	
5	0	0	0	0	509	510	0	0	
6	0	0	0	0	510	512	0	0	
7	0	0	0	0	512	512	0	0	
8	0	0	0	0	513	512	0	0	
9	0	0	0	0	511	511	0	0	
10	0	0	0	0	513	511	0	0	
11	0	0	0	0	512	510	0	0	
12	0	0	0	0	513	512	0	0	
13	0	0	0	0	511	512	0	0	
14	0	0	0	0	508	510	0	0	
15	0	0	0	0	507	511	0	0	
0	0	0	0	0	508	511	0	0	
1	0	0	0	0	506	510	0	0	
2	0	0	0	0	504	510	0	0	
3	0	0	0	0	505	511	0	0	
4	0	0	0	0	503	509	0	0	
5	0	0	0	0	505	509	0	0	
6	0	0	0	0	504	510	0	0	
7	0	0	0	0	505	510	0	0	
8	0	0	0	0	508	510	0	0	
9	0	0	0	0	507	511	0	0	
10	0	0	0	0	510	512	0	0	
11	0	0	0	0	512	509	0	0	
12	0	0	0	0	513	510	0	0	
13	0	0	0	0	513	509	0	0	
14	0	0	0	0	513	510	0	0	
15	0	0	0	0	513	511	0	0	
0	0	0	0	0	514	511	0	0	
1	0	0	0	0	511	510	0	0	
2	0	0	0	0	510	511	0	0	
3	0	0	0	0	505	511	0	0	
4	0	0	0	0	508	508	0	0	
5	0	0	0	0	504	511	0	0	
6	0	0	0	0	506	512	0	0	
7	0	0	0	0	505	510	0	0	
8	0	0	0	0	505	508	0	0	
9	0	0	0	0	505	511	0	0	
10	0	0	0	0	505	512	0	0	
11	0	0	0	0	506	511	0	0	
12	0	0	0	0	507	511	0	0	
13	0	0	0	0	509	510	0	0	
14	0	0	0	0	510	511	0	0	
15	0	0	0	0	512	511	0	0	
0	0	0	0	0	510	510	0	0	
1	0	0	0	0	512	512	0	0	
2	0	0	0	0	514	511	0	0	
3	0	0	0	0	513	510	0	0	
4	0	0	0	0	513	510	0	0	
5	0	0	0	0	511	512	0	0	
6	0	0	0	0	508	511	0	0	
7	0	0	0	0	508	510	0	0	
8	0	0	0	0	507	512	0	0	
9	0	0	0	0	505	511	0	0	
10	0	0	0	0	504	509	0	0	
11	0	0	0	0	506	509	0	0	
12	0	0	0	0	506	510	0	0	
13	0	0	0	0	507	512	0	0	
14	0	0	0	0	506	512	0	0	
15	0	0	0	0	506	511	0	0	
0	0	0	0	0	505	508	0	0	
1	0	0	0	0	509	509	0	0	
2	0	0	0	0	508	510	0	0	
3	0	0	0	0	511	510	0	0	
4	0	0	0	0	513	511	0	0	
5	0	0	0	0	514	510	0	0	
6	0	0	0	0	514	512	0	0	
7	0	0	0	0	513	512	0	0	
8	0	0	0	0	515	511	0	0	
9	0	0	0	0	511	511	0	0	
10	0	0	0	0	508	511	0	0	
11	0	0	0	0	507	512	0	0	
12	0	0	0	0	504	512	0	0	
13	0	0	0	0	505	508	0	0	
14	0	0	0	0	504	508	0	0	
15	0	0	0	0	504	510	0	0	
0	0	0	0	0	505	510	0	0	
1	0	0	0	0	506	512	0	0	
2	0	0	0	0	505	511	0	0	
3	0	0	0	0	505	510	0	0	
4	0	0	0	0	506	511	0	0	
5	0	0	0	0	508	511	0	0	
6	0	0	0	0	510	511	0	0	
7	0	0	0	0	512	512	0	0	
8	0	0	0	0	512	510	0	0	
9	0	0	0	0	512	509	0	0	
10	0	0	0	0	514	512	0	0	
11	0	0	0	0	513	513	0	0	
12	0	0	0	0	513	509	0	0	
13	0	0	0	0	513	509	0	0	
14	0	0	0	0	511	510	0	0	
15	0	0	0	0	509	511	0	0	
0	0	0	0	0	507	512	0	0	
1	0	0	0	0	507	510	0	0	
2	0	0	0	0	503	510	0	0	
3	0	0	0	0	503	511	0	0	
4	0	0	0	0	503	511	0	0	
5	0	0	0	0	504	511	0	0	
6	0	0	0	0	503	508	0	0	
7	0	0	0	0	507	511	0	0	
8	0	0	0	0	505	511	0	0	
9	0	0	0	0	509	510	0	0	
10	0	0	0	0	509	511	0	0	
11	0	0	0	0	512	511	0	0	
12	0	0	0	0	512	513	0	0	
13	0	0	0	0	515	509	0	0	
14	0	0	0	0	513	511	0	0	
15	0	0	0	0	513	510	0	0	
0	0	0	0	0	513	511	0	0	
1	0	0	0	0	511	511	0	0	
2	0	0	0	0	511	510	0	0	
3	0	0	0	0	508	511	0	0	
4	0	0	0	0	509	510	0	0	
5	0	0	0	0	504	512	0	0	
6	0	0	0	0	504	509	0	0	
7	0	0	0	0	503	510	0	0	
8	0	0	0	0	504	511	0	0	
9	0	0	0	0	505	511	0	0	
10	0	0	0	0	505	512	0	0	
11	0	0	0	0	505	510	0	0	
12	0	0	0	0	506	512	0	0	
13	0	0	0	0	509	509	0	0	
14	0	0	0	0	510	509	0	0	
15	0	0	0	0	513	509	0	0	
0	0	0	0	0	511	511	0	0	
1	0	0	0	0	511	510	0	0	
2	0	0	0	0	511	510	0	0	
3	0	0	0	0	512	511	0	0	
4	0	0	0	0	512	511	0	0	
5	0	0	0	0	509	510	0	0	
6	0	0	0	0	511	512	0	0	
7	0	0	0	0	510	512	0	0	
8	0	0	0	0	507	512	0	0	
9	0	0	0	0	506	510	0	0	
10	0	0	0	0	503	510	0	0	
11	0	0	0	0	503	510	0	0	
12	0	0	0	0	505	511	0	0	
13	0	0	0	0	505	510	0	0	
14	0	0	0	0	505	511	0	0	
15	0	0	0	0	506	511	0	0	
0	0	0	0	0	508	511	0	0	
1	0	0	0	0	508	512	0	0	
2	0	0	0	0	511	511	0	0	
3	0	0	0	0	513	511	0	0	
4	0	0	0	0	512	511	0	0	
5	0	0	0	0	512	509	0	0	
6	0	0	0	0	512	510	0	0	
7	0	0	0	0	514	511	0	0	
8	0	0	0	0	512	510	0	0	
9	0	0	0	0	510	512	0	0	
10	0	0	0	0	508	512	0	0	
11	0	0	0	0	508	510	0	0	
12	0	0	0	0	508	511	0	0	
13	0	0	0	0	505	510	0	0	
14	0	0	0	0	502	509	0	0	
15	0	0	0	0	507	510	0	0	
0	0	0	0	0	506	510	0	0	
1	0	0	0	0	506	508	0	0	
2	0	0	0	0	506	509	0	0	
3	0	0	0	0	505	511	0	0	
4	0	0	0	0	505	512	0	0	
5	0	0	0	0	507	508	0	0	
6	0	0	0	0	512	509	0	0	
7	0	0	0	0	510	512	0	0	
8	0	0	0	0	513	511	0	0	
9	0	0	0	0	512	512	0	0	
10	0	0	0	0	511	512	0	0	
11	0	0	0	0	513	513	0	0	
12	0	0	0	0	513	510	0	0	
13	0	0	0	0	513	511	0	0	
14	0	0	0	0	511	510	0	0	
15	0	0	0	0	508	509	0	0	
0	0	0	0	0	507	512	0	0	
1	0	0	0	0	507	511	0	0	
2	0	0	0	0	505	511	0	0	
3	0	0	0	0	505	511	0	0	
4	0	0	0	0	502	508	0	0	
5	0	0	0	0	503	511	0	0	
6	0	0	0	0	504	509	0	0	
7	0	0	0	0	505	509	0	0	
8	0	0	0	0	507	511	0	0	
9	0	0	0	0	507	510	0	0	
10	0	0	0	0	510	511	0	0	
11	0	0	0	0	511	510	0	0	
12	0	0	0	0	513	510	0	0	
13	0	0	0	0	514	513	0	0	
14	0	0	0	0	515	512	0	0	
15	0	0	0	0	513	512	0	0	
0	0	0	0	0	512	510	0	0	
1	0	0	0	0	510	510	0	0	
2	0	0	0	0	511	512	0	0	
3	0	0	0	0	509	510	0	0	
4	0	0	0	0	508	511	0	0	
5	0	0	0	0	505	509	0	0	
6	0	0	0	0	504	510	0	0	
7	0	0	0	0	504	509	0	0	
8	0	0	0	0	505	508	0	0	
9	0	0	0	0	504	510	0	0	
10	0	0	0	0	504	510	0	0	
11	0	0	0	0	508	512	0	0	
12	0	0	0	0	507	511	0	0	
13	0	0	0	0	506	510	0	0	
14	0	0	0	0	511	512	0	0	
15	0	0	0	0	513	511	0	0	
0	0	0	0	0	511	511	0	0	
1	0	0	0	0	513	510	0	0	
2	0	0	0	0	515	512	0	0	
3	0	0	0	0	514	512	0	0	
4	0	0	0	0	512	511	0	0	
5	0	0	0	0	511	511	0	0	
6	0	0	0	0	509	512	0	0	
7	0	0	0	0	510	510	0	0	
8	0	0	0	0	508	510	0	0	
9	0	0	0	0	506	511	0	0	
10	0	0	0	0	505	509	0	0	
11	0	0	0	0	505	508	0	0	
12	0	0	0	0	503	509	0	0	
13	0	0	0	0	505	509	0	0	
14	0	0	0	0	506	508	0	0	
15	0	0	0	0	505	511	0	0	
0	0	0	0	0	508	513	0	0	
1	0	0	0	0	510	511	0	0	
2	0	0	0	0	510	511	0	0	
3	0	0	0	0	513	509	0	0	
4	0	0	0	0	511	512	0	0	
5	0	0	0	0	513	511	0	0	
6	0	0	0	0	512	511	0	0	
7	0	0	0	0	512	510	0	0	
8	0	0	0	0	512	512	0	0	
9	0	0	0	0	514	511	0	0	
10	0	0	0	0	512	511	0	0	
11	0	0	0	0	507	510	0	0	
12	0	0	0	0	504	509	0	0	
13	0	0	0	0	504	510	0	0	
14	0	0	0	0	505	511	0	0	
15	0	0	0	0	504	511	0	0	
0	0	0	0	0	504	510	0	0	
1	0	0	0	0	506	510	0	0	
2	0	0	0	0	504	510	0	0	
3	0	0	0	0	505	510	0	0	
4	0	0	0	0	508	510	0	0	
5	0	0	0	0	509	510	0	0	
6	0	0	0	0	511	510	0	0	
7	0	0	0	0	512	507	0	0	
8	0	0	0	0	511	511	0	0	
9	0	0	0	0	513	512	0	0	
10	0	0	0	0	515	514	0	0	
11	0	0	0	0	514	511	0	0	
12	0	0	0	0	511	511	0	0	
13	0	0	0	0	508	509	0	0	
14	0	0	0	0	510	512	0	0	
15	0	0	0	0	508	510	0	0	
0	0	0	0	0	507	511	0	0	
1	0	0	0	0	506	511	0	0	
2	0	0	0	0	505	512	0	0	
3	0	0	0	0	508	510	0	0	
4	0	0	0	0	507	510	0	0	
5	0	0	0	0	502	511	0	0	
6	0	0	0	0	503	508	0	0	
7	0	0	0	0	505	510	0	0	
8	0	0	0	0	507	508	0	0	
9	0	0	0	0	508	510	0	0	
10	0	0	0	0	511	512	0	0	
11	0	0	0	0	510	510	0	0	
12	0	0	0	0	512	511	0	0	
13	0	0	0	0	511	511	0	0	
14	0	0	0	0	514	511	0	0	
15	0	0	0	0	513	510	0	0	
0	0	0	0	0	513	510	0	0	
1	0	0	0	0	514	513	0	0	
2	0	0	0	0	510	508	0	0	
3	0	0	0	0	508	510	0	0	
4	0	0	0	0	505	510	0	0	
5	0	0	0	0	505	508	0	0	
6	0	0	0	0	506	510	0	0	
7	0	0	0	0	505	511	0	0	
8	0	0	0	0	504	511	0	0	
9	0	0	0	0	503	510	0	0	
10	0	0	0	0	505	507	0	0	
11	0	0	0	0	506	510	0	0	
12	0	0	0	0	509	513	0	0	
13	0	0	0	0	508	511	0	0	
14	0	0	0	0	511	511	0	0	
15	0	0	0	0	512	510	0	0	
0	0	0	0	0	510	510	0	0	
1	0	0	0	0	512	511	0	0	
2	0	0	0	0	514	510	0	0	
3	0	0	0	0	513	510	0	0	
4	0	0	0	0	514	512	0	0	
5	0	0	0	0	513	511	0	0	
6	0	0	0	0	508	510	0	0	
7	0	0	0	0	505	511	0	0	
8	0	0	0	0	507	510	0	0	
9	0	0	0	0	507	510	0	0	
10	0	0	0	0	505	510	0	0	
11	0	0	0	0	501	511	0	0	
12	0	0	0	0	504	512	0	0	
13	0	0	0	0	504	510	0	0	
14	0	0	0	0	507	510	0	0	
15	0	0	0	0	506	508	0	0	
0	0	0	0	0	508	509	0	0	
1	0	0	0	0	507	512	0	0	
2	0	0	0	0	510	511	0	0	
3	0	0	0	0	513	509	0	0	
4	0	0	0	0	513	511	0	0	
5	0	0	0	0	514	512	0	0	
6	0	0	0	0	513	509	0	0	
7	0	0	0	0	515	511	0	0	
8	0	0	0	0	512	511	0	0	
9	0	0	0	0	511	511	0	0	
10	0	0	0	0	510	510	0	0	
11	0	0	0	0	509	510	0	0	
12	0	0	0	0	504	509	0	0	
13	0	0	0	0	502	508	0	0	
14	0	0	0	0	503	510	0	0	
15	0	0	0	0	508	510	0	0	
0	0	0	0	0	504	511	0	0	
1	0	0	0	0	504	511	0	0	
2	0	0	0	0	506	510	0	0	
3	0	0	0	0	508	512	0	0	
4	0	0	0	0	507	510	0	0	
5	0	0	0	0	507	511	0	0	
6	0	0	0	0	510	511	0	0	
7	0	0	0	0	512	512	0	0	
8	0	0	0	0	511	512	0	0	
9	0	0	0	0	512	510	0	0	
10	0	0	0	0	515	512	0	0	
11	0	0	0	0	514	512	0	0	
12	0	0	0	0	513	510	0	0	
13	0	0	0	0	511	510	0	0	
14	0	0	0	0	509	513	0	0	
15	0	0	0	0	508	508	0	0	
0	0	0	0	0	507	510	0	0	
1	0	0	0	0	507	510	0	0	
2	0	0	0	0	506	509	0	0	
3	0	0	0	0	503	510	0	0	
4	0	0	0	0	504	511	0	0	
5	0	0	0	0	505	510	0	0	
6	0	0	0	0	506	511	0	0	
7	0	0	0	0	507	511	0	0	
8	0	0	0	0	505	510	0	0	
9	0	0	0	0	508	511	0	0	
10	0	0	0	0	508	511	0	0	
11	0	0	0	0	510	510	0	0	
12	0	0	0	0	510	508	0	0	
13	0	0	0	0	513	511	0	0	
14	0	0	0	0	512	513	0	0	
15	0	0	0	0	513	511	0	0	
0	0	0	0	0	510	510	0	0	
1	0	0	0	0	512	510	0	0	
2	0	0	0	0	512	509	0	0	
3	0	0	0	0	511	509	0	0	
4	0	0	0	0	509	511	0	0	
5	0	0	0	0	507	511	0	0	
6	0	0	0	0	504	511	0	0	
7	0	0	0	0	504	511	0	0	
8	0	0	0	0	502	510	0	0	
9	0	0	0	0	503	510	0	0	
10	0	0	0	0	507	511	0	0	
11	0	0	0	0	506	509	0	0	
12	0	0	0	0	509	513	0	0	
13	0	0	0	0	509	512	0	0	
14	0	0	0	0	511	508	0	0	
15	0	0	0	0	511	511	0	0	
0	0	0	0	0	512	511	0	0	
1	0	0	0	0	514	513	0	0	
2	0	0	0	0	515	510	0	0	
3	0	0	0	0	512	510	0	0	
4	0	0	0	0	511	511	0	0	
5	0	0	0	0	511	511	0	0	
6	0	0	0	0	507	511	0	0	
7	0	0	0	0	508	510	0	0	
8	0	0	0	0	508	511	0	0	
9	0	0	0	0	506	512	0	0	
10	0	0	0	0	504	509	0	0	
11	0	0	0	0	503	509	0	0	
12	0	0	0	0	504	509	0	0	
13	0	0	0	0	505	509	0	0	
14	0	0	0	0	505	511	0	0	
15	0	0	0	0	505	509	0	0	
0	0	0	0	0	508	511	0	0	
1	0	0	0	0	507	511	0	0	
2	0	0	0	0	512	510	0	0	
3	0	0	0	0	513	511	0	0	
4	0	0	0	0	512	511	0	0	
5	0	0	0	0	511	510	0	0	
6	0	0	0	0	513	512	0	0	
7	0	0	0	0	513	511	0	0	
8	0	0	0	0	515	512	0	0	
9	0	0	0	0	511	512	0	0	
10	0	0	0	0	510	510	0	0	
11	0	0	0	0	510	509	0	0	
12	0	0	0	0	508	509	0	0	
13	0	0	0	0	504	511	0	0	
14	0	0	0	0	505	511	0	0	
15	0	0	0	0	503	511	0	0	
0	0	0	0	0	504	511	0	0	
1	0	0	0	0	503	511	0	0	
2	0	0	0	0	504	510	0	0	
3	0	0	0	0	506	511	0	0	
4	0	0	0	0	507	509	0	0	
5	0	0	0	0	508	510	0	0	
6	0	0	0	0	512	509	0	0	
7	0	0	0	0	511	510	0	0	
8	0	0	0	0	512	511	0	0	
9	0	0	0	0	513	511	0	0	
10	0	0	0	0	514	509	0	0	
11	0	0	0	0	513	512	0	0	
12	0	0	0	0	512	511	0	0	
13	0	0	0	0	512	512	0	0	
14	0	0	0	0	508	511	0	0	
15	0	0	0	0	507	512	0	0	
0	0	0	0	0	507	509	0	0	
1	0	0	0	0	505	511	0	0	
2	0	0	0	0	506	510	0	0	
3	0	0	0	0	505	509	0	0	
4	0	0	0	0	504	513	0	0	
5	0	0	0	0	504	508	0	0	
6	0	0	0	0	504	511	0	0	
7	0	0	0	0	507	511	0	0	
8	0	0	0	0	505	510	0	0	
9	0	0	0	0	506	512	0	0	
10	0	0	0	0	510	511	0	0	
11	0	0	0	0	512	509	0	0	
12	0	0	0	0	511	511	0	0	
13	0	0	0	0	513	512	0	0	
14	0	0	0	0	513	510	0	0	
15	0	0	0	0	512	512	0	0	
0	0	0	0	0	513	511	0	0	
1	0	0	0	0	510	509	0	0	
2	0	0	0	0	510	510	0	0	
3	0	0	0	0	510	508	0	0	
4	0	0	0	0	508	508	0	0	
5	0	0	0	0	507	510	0	0	
6	0	0	0	0	505	512	0	0	
7	0	0	0	0	504	511	0	0	
8	0	0	0	0	503	508	0	0	
9	0	0	0	0	503	510	0	0	
10	0	0	0	0	506	510	0	0	
11	0	0	0	0	507	510	0	0	
12	0	0	0	0	509	511	0	0	
13	0	0	0	0	507	510	0	0	
14	0	0	0	0	510	511	0	0	
15	0	0	0	0	511	510	0	0	
0	0	0	0	0	513	511	0	0	
1	0	0	0	0	513	510	0	0	
2	0	0	0	0	511	510	0	0	
3	0	0	0	0	514	510	0	0	
4	0	0	0	0	510	511	0	0	
5	0	0	0	0	510	509	0	0	
6	0	0	0	0	509	510	0	0	
7	0	0	0	0	509	510	0	0	
8	0	0	0	0	507	510	0	0	
9	0	0	0	0	507	512	0	0	
10	0	0	0	0	506	511	0	0	
11	0	0	0	0	505	510	0	0	
12	0	0	0	0	504	510	0	0	
13	0	0	0	0	503	511	0	0	
14	0	0	0	0	504	510	0	0	
15	0	0	0	0	507	511	0	0	
0	0	0	0	0	507	509	0	0	
1	0	0	0	0	508	511	0	0	
2	0	0	0	0	511	510	0	0	
3	0	0	0	0	514	511	0	0	
4	0	0	0	0	515	511	0	0	
5	0	0	0	0	512	510	0	0	
6	0	0	0	0	514	511	0	0	
7	0	0	0	0	511	511	0	0	
8	0	0	0	0	511	512	0	0	
9	0	0	0	0	510	511	0	0	
10	0	0	0	0	508	511	0	0	
11	0	0	0	0	509	511	0	0	
12	0	0	0	0	508	511	0	0	
13	0	0	0	0	508	511	0	0	
14	0	0	0	0	505	512	0	0	
15	0	0	0	0	505	511	0	0	
0	0	0	0	0	504	511	0	0	
1	0	0	0	0	505	508	0	0	
2	0	0	0	0	504	510	0	0	
3	0	0	0	0	506	510	0	0	
4	0	0	0	0	506	510	0	0	
5	0	0	0	0	508	511	0	0	
6	0	0	0	0	510	510	0	0	
7	0	0	0	0	511	509	0	0	
8	0	0	0	0	512	510	0	0	
9	0	0	0	0	511	510	0	0	
10	0	0	0	0	515	509	0	0	
11	0	0	0	0	514	510	0	0	
12	0	0	0	0	511	510	0	0	
13	0	0	0	0	510	510	0	0	
14	0	0	0	0	508	507	0	0	
15	0	0	0	0	509	510	0	0	
0	0	0	0	0	505	512	0	0	
1	0	0	0	0	507	511	0	0	
2	0	0	0	0	507	511	0	0	
3	0	0	0	0	504	509	0	0	
4	0	0	0	0	504	510	0	0	
5	0	0	0	0	504	511	0	0	
6	0	0	0	0	506	509	0	0	
7	0	0	0	0	506	510	0	0	
8	0	0	0	0	507	510	0	0	
9	0	0	0	0	510	512	0	0	
10	0	0	0	0	510	511	0	0	
11	0	0	0	0	512	511	0	0	
12	0	0	0	0	511	510	0	0	
13	0	0	0	0	513	511	0	0	
14	0	0	0	0	513	510	0	0	
15	0	0	0	0	512	512	0	0	
0	0	0	0	0	514	511	0	0	
1	0	0	0	0	511	510	0	0	
2	0	0	0	0	511	511	0	0	
3	0	0	0	0	509	510	0	0	
4	0	0	0	0	505	511	0	0	
5	0	0	0	0	505	510	0	0	
6	0	0	0	0	505	511	0	0	
7	0	0	0	0	504	511	0	0	
8	0	0	0	0	505	510	0	0	
9	0	0	0	0	505	509	0	0	
10	0	0	0	0	504	511	0	0	
11	0	0	0	0	503	511	0	0	
12	0	0	0	0	507	512	0	0	
13	0	0	0	0	507	511	0	0	
14	0	0	0	0	511	510	0	0	
15	0	0	0	0	513	510	0	0	
0	0	0	0	0	512	510	0	0	
1	0	0	0	0	515	510	0	0	
2	0	0	0	0	514	510	0	0	
3	0	0	0	0	513	511	0	0	
4	0	0	0	0	513	511	0	0	
5	0	0	0	0	511	512	0	0	
6	0	0	0	0	509	508	0	0	
7	0	0	0	0	509	509	0	0	
8	0	0	0	0	506	511	0	0	
9	0	0	0	0	503	509	0	0	
10	0	0	0	0	503	511	0	0	
11	0	0	0	0	508	510	0	0	
12	0	0	0	0	505	508	0	0	
13	0	0	0	0	504	511	0	0	
14	0	0	0	0	504	511	0	0	
15	0	0	0	0	504	511	0	0	
0	0	0	0	0	507	509	0	0	
1	0	0	0	0	508	511	0	0	
2	0	0	0	0	511	510	0	0	
3	0	0	0	0	511	509	0	0	
4	0	0	0	0	512	509	0	0	
5	0	0	0	0	512	510	0	0	
6	0	0	0	0	515	510	0	0	
7	0	0	0	0	513	513	0	0	
8	0	0	0	0	513	512	0	0	
9	0	0	0	0	511	510	0	0	
10	0	0	0	0	508	510	0	0	
11	0	0	0	0	509	511	0	0	
12	0	0	0	0	505	510	0	0	
13	0	0	0	0	505	510	0	0	
14	0	0	0	0	506	507	0	0	
15	0	0	0	0	505	509	0	0	
0	0	0	0	0	506	512	0	0	
1	0	0	0	0	505	512	0	0	
2	0	0	0	0	504	514	0	0	
3	0	0	0	0	505	511	0	0	
4	0	0	0	0	506	510	0	0	
5	0	0	0	0	505	511	0	0	
6	0	0	0	0	510	511	0	0	
7	0	0	0	0	512	512	0	0	
8	0	0	0	0	512	513	0	0	
9	0	0	0	0	516	513	0	0	
10	0	0	0	0	516	510	0	0	
11	0	0	0	0	514	509	0	0	
12	0	0	0	0	513	511	0	0	
13	0	0	0	0	509	512	0	0	
14	0	0	0	0	508	513	0	0	
15	0	0	0	0	509	510	0	0	
0	0	0	0	0	506	510	0	0	
1	0	0	0	0	506	509	0	0	
2	0	0	0	0	506	510	0	0	
3	0	0	0	0	505	509	0	0	
4	0	0	0	0	504	509	0	0	
5	0	0	0	0	504	509	0	0	
6	0	0	0	0	504	508	0	0	
7	0	0	0	0	505	510	0	0	
8	0	0	0	0	508	511	0	0	
9	0	0	0	0	508	512	0	0	
10	0	0	0	0	510	511	0	0	
11	0	0	0	0	510	510	0	0	
12	0	0	0	0	512	510	0	0	
13	0	0	0	0	512	508	0	0	
14	0	0	0	0	513	512	0	0	
15	0	0	0	0	514	515	0	0	
0	0	0	0	0	514	513	0	0	
1	0	0	0	0	512	509	0	0	
2	0	0	0	0	511	511	0	0	
3	0	0	0	0	508	510	0	0	
4	0	0	0	0	505	509	0	0	
5	0	0	0	0	505	508	0	0	
6	0	0	0	0	505	511	0	0	
7	0	0	0	0	503	510	0	0	
8	0	0	0	0	503	510	0	0	
9	0	0	0	0	502	511	0	0	
10	0	0	0	0	505	511	0	0	
11	0	0	0	0	507	510	0	0	
12	0	0	0	0	507	507	0	0	
13	0	0	0	0	507	509	0	0	
14	0	0	0	0	511	509	0	0	
15	0	0	0	0	513	509	0	0	
0	0	0	0	0	511	512	0	0	
1	0	0	0	0	513	511	0	0	
2	0	0	0	0	515	511	0	0	
3	0	0	0	0	512	511	0	0	
4	0	0	0	0	511	511	0	0	
5	0	0	0	0	510	513	0	0	
6	0	0	0	0	510	512	0	0	
7	0	0	0	0	509	509	0	0	
8	0	0	0	0	508	510	0	0	
9	0	0	0	0	507	511	0	0	
10	0	0	0	0	505	511	0	0	
11	0	0	0	0	504	510	0	0	
12	0	0	0	0	504	511	0	0	
13	0	0	0	0	505	511	0	0	
14	0	0	0	0	505	511	0	0	
15	0	0	0	0	508	511	0	0	
0	0	0	0	0	505	511	0	0	
1	0	0	0	0	507	509	0	0	
2	0	0	0	0	509	511	0	0	
3	0	0	0	0	512	512	0	0	
4	0	0	0	0	510	510	0	0	
5	0	0	0	0	513	511	0	0	
6	0	0	0	0	512	510	0	0	
7	0	0	0	0	513	510	0	0	
8	0	0	0	0	513	508	0	0	
9	0	0	0	0	511	509	0	0	
10	0	0	0	0	511	511	0	0	
11	0	0	0	0	508	510	0	0	
12	0	0	0	0	507	509	0	0	
13	0	0	0	0	504	510	0	0	
14	0	0	0	0	504	511	0	0	
15	0	0	0	0	505	509	0	0	
0	0	0	0	0	502	508	0	0	
1	0	0	0	0	504	510	0	0	
2	0	0	0	0	504	509	0	0	
3	0	0	0	0	506	511	0	0	
4	0	0	0	0	508	510	0	0	
5	0	0	0	0	511	512	0	0	
6	0	0	0	0	511	511	0	0	
7	0	0	0	0	513	512	0	0	
8	0	0	0	0	510	512	0	0	
9	0	0	0	0	512	510	0	0	
10	0	0	0	0	513	509	0	0	
11	0	0	0	0	512	512	0	0	
12	0	0	0	0	512	510	0	0	
13	0	0	0	0	512	510	0	0	
14	0	0	0	0	509	511	0	0	
15	0	0	0	0	508	512	0	0	
0	0	0	0	0	507	510	0	0	
1	0	0	0	0	507	510	0	0	
2	0	0	0	0	507	511	0	0	
3	0	0	0	0	504	511	0	0	
4	0	0	0	0	502	510	0	0	
5	0	0	0	0	505	510	0	0	
6	0	0	0	0	505	509	0	0	
7	0	0	0	0	504	510	0	0	
8	0	0	0	0	508	510	0	0	
9	0	0	0	0	508	511	0	0	
10	0	0	0	0	509	512	0	0	
11	0	0	0	0	511	510	0	0	
12	0	0	0	0	511	509	0	0	
13	0	0	0	0	514	511	0	0	
14	0	0	0	0	514	512	0	0	
15	0	0	0	0	511	511	0	0	
0	0	0	0	0	512	511	0	0	
1	0	0	0	0	509	510	0	0	
2	0	0	0	0	507	512	0	0	
3	0	0	0	0	507	511	0	0	
4	0	0	0	0	506	510	0	0	
5	0	0	0	0	506	510	0	0	
6	0	0	0	0	508	511	0	0	
7	0	0	0	0	506	507	0	0	
8	0	0	0	0	503	508	0	0	
9	0	0	0	0	503	509	0	0	
10	0	0	0	0	506	511	0	0	
11	0	0	0	0	506	511	0	0	
12	0	0	0	0	508	515	0	0	
13	0	0	0	0	510	511	0	0	
14	0	0	0	0	511	511	0	0	
15	0	0	0	0	511	509	0	0	
0	0	0	0	0	508	510	0	0	
1	0	0	0	0	513	512	0	0	
2	0	0	0	0	515	513	0	0	
3	0	0	0	0	512	512	0	0	
4	0	0	0	0	512	512	0	0	
5	0	0	0	0	511	510	0	0	
6	0	0	0	0	510	510	0	0	
7	0	0	0	0	510	511	0	0	
8	0	0	0	0	507	509	0	0	
9	0	0	0	0	505	510	0	0	
10	0	0	0	0	505	508	0	0	
11	0	0	0	0	505	510	0	0	
12	0	0	0	0	504	511	0	0	
13	0	0	0	0	504	510	0	0	
14	0	0	0	0	503	511	0	0	
15	0	0	0	0	506	511	0	0	
0	0	0	0	0	509	510	0	0	
1	0	0	0	0	506	511	0	0	
2	0	0	0	0	510	512	0	0	
3	0	0	0	0	512	511	0	0	
4	0	0	0	0	509	511	0	0	
5	0	0	0	0	513	511	0	0	
6	0	0	0	0	512	512	0	0	
7	0	0	0	0	513	509	0	0	
8	0	0	0	0	511	511	0	0	
9	0	0	0	0	508	511	0	0	
10	0	0	0	0	508	512	0	0	
11	0	0	0	0	509	509	0	0	
12	0	0	0	0	507	510	0	0	
13	0	0	0	0	507	511	0	0	
14	0	0	0	0	505	512	0	0	
15	0	0	0	0	503	511	0	0	
0	0	0	0	0	504	511	0	0	
1	0	0	0	0	505	512	0	0	
2	0	0	0	0	507	509	0	0	
3	0	0	0	0	505	508	0	0	
4	0	0	0	0	506	508	0	0	
5	0	0	0	0	510	510	0	0	
6	0	0	0	0	511	511	0	0	
7	0	0	0	0	512	511	0	0	
8	0	0	0	0	511	511	0	0	
9	0	0	0	0	514	511	0	0	
10	0	0	0	0	512	508	0	0	
11	0	0	0	0	513	509	0	0	
12	0	0	0	0	514	512	0	0	
13	0	0	0	0	511	511	0	0	
14	0	0	0	0	511	510	0	0	
15	0	0	0	0	512	509	0	0	
0	0	0	0	0	507	508	0	0	
1	0	0	0	0	505	512	0	0	
2	0	0	0	0	505	511	0	0	
3	0	0	0	0	505	512	0	0	
4	0	0	0	0	502	511	0	0	
5	0	0	0	0	503	511	0	0	
6	0	0	0	0	504	511	0	0	
7	0	0	0	0	503	510	0	0	
8	0	0	0	0	507	509	0	0	
9	0	0	0	0	508	509	0	0	
10	0	0	0	0	511	510	0	0	
11	0	0	0	0	513	512	0	0	
12	0	0	0	0	513	511	0	0	
13	0	0	0	0	513	510	0	0	
14	0	0	0	0	513	509	0	0	
15	0	0	0	0	512	510	0	0	
0	0	0	0	0	513	511	0	0	
1	0	0	0	0	511	512	0	0	
2	0	0	0	0	511	510	0	0	
3	0	0	0	0	507	509	0	0	
4	0	0	0	0	507	511	0	0	
5	0	0	0	0	505	509	0	0	
6	0	0	0	0	503	510	0	0	
7	0	0	0	0	505	510	0	0	
8	0	0	0	0	505	511	0	0	
9	0	0	0	0	504	508	0	0	
10	0	0	0	0	507	511	0	0	
11	0	0	0	0	504	513	0	0	
12	0	0	0	0	504	511	0	0	
13	0	0	0	0	507	511	0	0	
14	0	0	0	0	510	510	0	0	
15	0	0	0	0	511	510	0	0	
0	0	0	0	0	511	511	0	0	
1	0	0	0	0	512	511	0	0	
2	0	0	0	0	511	510	0	0	
3	0	0	0	0	513	511	0	0	
4	0	0	0	0	513	514	0	0	
5	0	0	0	0	511	511	0	0	
6	0	0	0	0	509	511	0	0	
7	0	0	0	0	509	510	0	0	
8	0	0	0	0	509	510	0	0	
9	0	0	0	0	508	509	0	0	
10	0	0	0	0	504	510	0	0	
11	0	0	0	0	505	508	0	0	
12	0	0	0	0	502	512	0	0	
13	0	0	0	0	504	512	0	0	
14	0	0	0	0	506	510	0	0	
15	0	0	0	0	506	510	0	0	
0	0	0	0	0	507	510	0	0	
1	0	0	0	0	507	508	0	0	
2	0	0	0	0	510	509	0	0	
3	0	0	0	0	509	509	0	0	
4	0	0	0	0	510	510	0	0	
5	0	0	0	0	511	510	0	0	
6	0	0	0	0	513	509	0	0	
7	0	0	0	0	514	510	0	0	
8	0	0	0	0	512	512	0	0	
9	0	0	0	0	511	511	0	0	
10	0	0	0	0	510	511	0	0	
11	0	0	0	0	508	513	0	0	
12	0	0	0	0	508	510	0	0	
13	0	0	0	0	507	510	0	0	
14	0	0	0	0	506	510	0	0	
15	0	0	0	0	504	509	0	0	
0	0	0	0	0	506	512	0	0	
1	0	0	0	0	506	512	0	0	
2	0	0	0	0	507	511	0	0	
3	0	0	0	0	504	511	0	0	
4	0	0	0	0	504	508	0	0	
5	0	0	0	0	504	510	0	0	
6	0	0	0	0	510	511	0	0	
7	0	0	0	0	512	511	0	0	
8	0	0	0	0	511	510	0	0	
9	0	0	0	0	513	512	0	0	
10	0	0	0	0	512	509	0	0	
11	0	0	0	0	512	509	0	0	
12	0	0	0	0	511	510	0	0	
13	0	0	0	0	512	510	0	0	
14	0	0	0	0	509	513	0	0	
15	0	0	0	0	510	511	0	0	
0	0	0	0	0	508	509	0	0	
1	0	0	0	0	507	508	0	0	
2	0	0	0	0	503	509	0	0	
3	0	0	0	0	504	509	0	0	
4	0	0	0	0	505	508	0	0	
5	0	0	0	0	504	513	0	0	
6	0	0	0	0	505	511	0	0	
7	0	0	0	0	506	512	0	0	
8	0	0	0	0	508	512	0	0	
9	0	0	0	0	507	511	0	0	
10	0	0	0	0	511	511	0	0	
11	0	0	0	0	511	513	0	0	
12	0	0	0	0	512	513	0	0	
13	0	0	0	0	513	509	0	0	
14	0	0	0	0	514	509	0	0	
15	0	0	0	0	514	511	0	0	
0	0	0	0	0	512	512	0	0	
1	0	0	0	0	510	511	0	0	
2	0	0	0	0	510	511	0	0	
3	0	0	0	0	507	509	0	0	
4	0	0	0	0	507	510	0	0	
5	0	0	0	0	507	508	0	0	
6	0	0	0	0	505	511	0	0	
7	0	0	0	0	503	510	0	0	
8	0	0	0	0	503	510	0	0	
9	0	0	0	0	505	511	0	0	
10	0	0	0	0	504	511	0	0	
11	0	0	0	0	506	509	0	0	
12	0	0	0	0	508	509	0	0	
13	0	0	0	0	508	511	0	0	
14	0	0	0	0	509	512	0	0	
15	0	0	0	0	511	511	0	0	
0	0	0	0	0	512	511	0	0	
1	0	0	0	0	512	511	0	0	
2	0	0	0	0	513	510	0	0	
3	0	0	0	0	515	509	0	0	
4	0	0	0	0	513	511	0	0	
5	0	0	0	0	510	509	0	0	
6	0	0	0	0	508	510	0	0	
7	0	0	0	0	507	512	0	0	
8	0	0	0	0	508	510	0	0	
9	0	0	0	0	508	511	0	0	
10	0	0	0	0	508	510	0	0	
11	0	0	0	0	505	512	0	0	
12	0	0	0	0	507	510	0	0	
13	0	0	0	0	507	509	0	0	
14	0	0	0	0	504	511	0	0	
15	0	0	0	0	505	513	0	0	
0	0	0	0	0	502	511	0	0	
1	0	0	0	0	506	512	0	0	
2	0	0	0	0	510	510	0	0	
3	0	0	0	0	512	511	0	0	
4	0	0	0	0	511	510	0	0	
5	0	0	0	0	511	511	0	0	
6	0	0	0	0	518	511	0	0	
7	0	0	0	0	513	510	0	0	
8	0	0	0	0	512	508	0	0	
9	0	0	0	0	511	510	0	0	
10	0	0	0	0	508	510	0	0	
11	0	0	0	0	508	510	0	0	
12	0	0	0	0	509	510	0	0	
13	0	0	0	0	507	509	0	0	
14	0	0	0	0	506	508	0	0	
15	0	0	0	0	502	510	0	0	
0	0	0	0	0	504	510	0	0	
1	0	0	0	0	504	510	0	0	
2	0	0	0	0	505	510	0	0	
3	0	0	0	0	506	512	0	0	
4	0	0	0	0	508	511	0	0	
5	0	0	0	0	508	509	0	0	
6	0	0	0	0	511	511	0	0	
7	0	0	0	0	513	512	0	0	
8	0	0	0	0	512	512	0	0	
9	0	0	0	0	511	511	0	0	
10	0	0	0	0	513	511	0	0	
11	0	0	0	0	511	510	0	0	
12	0	0	0	0	513	511	0	0	
13	0	0	0	0	509	511	0	0	
14	0	0	0	0	508	509	0	0	
15	0	0	0	0	506	511	0	0	
0	0	0	0	0	506	510	0	0	
1	0	0	0	0	507	511	0	0	
2	0	0	0	0	506	510	0	0	
3	0	0	0	0	507	510	0	0	
4	0	0	0	0	505	511	0	0	
5	0	0	0	0	505	511	0	0	
6	0	0	0	0	507	508	0	0	
7	0	0	0	0	505	510	0	0	
8	0	0	0	0	507	509	0	0	
9	0	0	0	0	508	511	0	0	
10	0	0	0	0	508	512	0	0	
11	0	0	0	0	512	509	0	0	
12	0	0	0	0	514	511	0	0	
13	0	0	0	0	512	512	0	0	
14	0	0	0	0	514	511	0	0	
15	0	0	0	0	513	510	0	0	
0	0	0	0	0	515	510	0	0	
1	0	0	0	0	511	510	0	0	
2	0	0	0	0	510	509	0	0	
3	0	0	0	0	508	510	0	0	
4	0	0	0	0	507	508	0	0	
5	0	0	0	0	508	508	0	0	
6	0	0	0	0	505	512	0	0	
7	0	0	0	0	504	512	0	0	
8	0	0	0	0	504	512	0	0	
9	0	0	0	0	505	512	0	0	
10	0	0	0	0	504	511	0	0	
11	0	0	0	0	506	512	0	0	
12	0	0	0	0	507	510	0	0	
13	0	0	0	0	508	510	0	0	
14	0	0	0	0	509	511	0	0	
15	0	0	0	0	513	511	0	0	
0	0	0	0	0	512	509	0	0	
1	0	0	0	0	515	511	0	0	
2	0	0	0	0	513	510	0	0	
3	0	0	0	0	513	509	0	0	
4	0	0	0	0	511	510	0	0	
5	0	0	0	0	511	511	0	0	
6	0	0	0	0	509	510	0	0	
7	0	0	0	0	509	512	0	0	
8	0	0	0	0	510	511	0	0	
9	0	0	0	0	505	511	0	0	
10	0	0	0	0	504	511	0	0	
11	0	0	0	0	506	511	0	0	
12	0	0	0	0	503	509	0	0	
13	0	0	0	0	501	509	0	0	
14	0	0	0	0	505	509	0	0	
15	0	0	0	0	508	511	0	0	
0	0	0	0	0	507	508	0	0	
1	0	0	0	0	508	510	0	0	
2	0	0	0	0	510	511	0	0	
3	0	0	0	0	511	511	0	0	
4	0	0	0	0	511	512	0	0	
5	0	0	0	0	513	512	0	0	
6	0	0	0	0	514	512	0	0	
7	0	0	0	0	514	512	0	0	
8	0	0	0	0	513	512	0	0	
9	0	0	0	0	510	508	0	0	
10	0	0	0	0	510	510	0	0	
11	0	0	0	0	510	512	0	0	
12	0	0	0	0	507	508	0	0	
13	0	0	0	0	505	512	0	0	
14	0	0	0	0	506	512	0	0	
15	0	0	0	0	504	511	0	0	
0	0	0	0	0	502	510	0	0	
1	0	0	0	0	505	509	0	0	
2	0	0	0	0	505	510	0	0	
3	0	0	0	0	505	512	0	0	
4	0	0	0	0	508	511	0	0	
5	0	0	0	0	508	508	0	0	
6	0	0	0	0	508	511	0	0	
7	0	0	0	0	510	510	0	0	
8	0	0	0	0	512	509	0	0	
9	0	0	0	0	512	510	0	0	
10	0	0	0	0	515	511	0	0	
11	0	0	0	0	511	511	0	0	
12	0	0	0	0	514	510	0	0	
13	0	0	0	0	512	511	0	0	
14	0	0	0	0	509	511	0	0	
15	0	0	0	0	508	510	0	0	
0	0	0	0	0	504	510	0	0	
1	0	0	0	0	504	511	0	0	
2	0	0	0	0	508	510	0	0	
3	0	0	0	0	505	510	0	0	
4	0	0	0	0	502	510	0	0	
5	0	0	0	0	504	511	0	0	
6	0	0	0	0	505	508	0	0	
7	0	0	0	0	504	510	0	0	
8	0	0	0	0	508	511	0	0	
9	0	0	0	0	507	509	0	0	
10	0	0	0	0	508	511	0	0	
11	0	0	0	0	512	510	0	0	
12	0	0	0	0	512	512	0	0	
13	0	0	0	0	513	509	0	0	
14	0	0	0	0	514	511	0	0	
15	0	0	0	0	514	509	0	0	
0	0	0	0	0	513	511	0	0	
1	0	0	0	0	511	511	0	0	
2	0	0	0	0	510	510	0	0	
3	0	0	0	0	507	511	0	0	
4	0	0	0	0	506	511	0	0	
5	0	0	0	0	508	509	0	0	
6	0	0	0	0	507	510	0	0	
7	0	0	0	0	503	511	0	0	
8	0	0	0	0	502	510	0	0	
9	0	0	0	0	503	511	0	0	
10	0	0	0	0	504	507	0	0	
11	0	0	0	0	509	511	0	0	
12	0	0	0	0	507	510	0	0	
13	0	0	0	0	508	509	0	0	
14	0	0	0	0	509	511	0	0	
15	0	0	0	0	510	509	0	0	
0	0	0	0	0	511	512	0	0	
1	0	0	0	0	511	511	0	0	
2	0	0	0	0	512	511	0	0	
3	0	0	0	0	513	510	0	0	
4	0	0	0	0	512	510	0	0	
5	0	0	0	0	510	512	0	0	
6	0	0	0	0	511	511	0	0	
7	0	0	0	0	511	512	0	0	
8	0	0	0	0	508	511	0	0	
9	0	0	0	0	507	510	0	0	
10	0	0	0	0	507	510	0	0	
11	0	0	0	0	504	510	0	0	
12	0	0	0	0	501	509	0	0	
13	0	0	0	0	505	508	0	0	
14	0	0	0	0	506	510	0	0	
15	0	0	0	0	505	511	0	0	
0	0	0	0	0	508	507	0	0	
1	0	0	0	0	508	507	0	0	
2	0	0	0	0	510	510	0	0	
3	0	0	0	0	511	511	0	0	
4	0	0	0	0	511	512	0	0	
5	0	0	0	0	513	511	0	0	
6	0	0	0	0	512	510	0	0	
7	0	0	0	0	514	512	0	0	
8	0	0	0	0	514	510	0	0	
9	0	0	0	0	510	511	0	0	
10	0	0	0	0	512	512	0	0	
11	0	0	0	0	508	510	0	0	
12	0	0	0	0	508	512	0	0	
13	0	0	0	0	506	509	0	0	
14	0	0	0	0	505	510	0	0	
15	0	0	0	0	503	512	0	0	
0	0	0	0	0	503	511	0	0	
1	0	0	0	0	504	512	0	0	
2	0	0	0	0	506	509	0	0	
3	0	0	0	0	504	509	0	0	
4	0	0	0	0	505	512	0	0	
5	0	0	0	0	509	511	0	0	
6	0	0	0	0	509	510	0	0	
7	0	0	0	0	511	511	0	0	
8	0	0	0	0	513	513	0	0	
9	0	0	0	0	512	512	0	0	
10	0	0	0	0	514	511	0	0	
11	0	0	0	0	514	510	0	0	
12	0	0	0	0	516	512	0	0	
13	0	0	0	0	512	512	0	0	
14	0	0	0	0	509	510	0	0	
15	0	0	0	0	508	510	0	0	
0	0	0	0	0	505	509	0	0	
1	0	0	0	0	504	510	0	0	
2	0	0	0	0	507	509	0	0	
3	0	0	0	0	506	509	0	0	
4	0	0	0	0	505	512	0	0	
5	0	0	0	0	505	511	0	0	
6	0	0	0	0	506	511	0	0	
7	0	0	0	0	506	513	0	0	
8	0	0	0	0	507	511	0	0	
9	0	0	0	0	509	510	0	0	
10	0	0	0	0	508	510	0	0	
11	0	0	0	0	509	512	0	0	
12	0	0	0	0	512	512	0	0	
13	0	0	0	0	512	510	0	0	
14	0	0	0	0	514	510	0	0	
15	0	0	0	0	514	510	0	0	
0	0	0	0	0	513	510	0	0	
1	0	0	0	0	510	511	0	0	
2	0	0	0	0	511	511	0	0	
3	0	0	0	0	509	510	0	0	
4	0	0	0	0	509	510	0	0	
5	0	0	0	0	507	511	0	0	
6	0	0	0	0	504	509	0	0	
7	0	0	0	0	503	512	0	0	
8	0	0	0	0	503	512	0	0	
9	0	0	0	0	503	510	0	0	
10	0	0	0	0	504	510	0	0	
11	0	0	0	0	504	509	0	0	
12	0	0	0	0	508	509	0	0	
13	0	0	0	0	508	508	0	0	
14	0	0	0	0	510	510	0	0	
15	0	0	0	0	510	512	0	0	
0	0	0	0	0	513	509	0	0	
1	0	0	0	0	513	509	0	0	
2	0	0	0	0	514	510	0	0	
3	0	0	0	0	512	510	0	0	
4	0	0	0	0	511	512	0	0	
5	0	0	0	0	512	512	0	0	
6	0	0	0	0	508	513	0	0	
7	0	0	0	0	510	510	0	0	
8	0	0	0	0	508	511	0	0	
9	0	0	0	0	507	510	0	0	
10	0	0	0	0	504	511	0	0	
11	0	0	0	0	505	510	0	0	
12	0	0	0	0	504	513	0	0	
13	0	0	0	0	502	511	0	0	
14	0	0	0	0	503	510	0	0	
15	0	0	0	0	507	508	0	0	
0	0	0	0	0	509	512	0	0	
1	0	0	0	0	508	509	0	0	
2	0	0	0	0	511	508	0	0	
3	0	0	0	0	511	508	0	0	
4	0	0	0	0	512	508	0	0	
5	0	0	0	0	514	513	0	0	
6	0	0	0	0	514	511	0	0	
7	0	0	0	0	514	511	0	0	
8	0	0	0	0	513	510	0	0	
9	0	0	0	0	511	511	0	0	
10	0	0	0	0	508	511	0	0	
11	0	0	0	0	508	511	0	0	
12	0	0	0	0	507	511	0	0	
13	0	0	0	0	507	510	0	0	
14	0	0	0	0	507	511	0	0	
15	0	0	0	0	505	510	0	0	
0	0	0	0	0	504	511	0	0	
1	0	0	0	0	505	511	0	0	
2	0	0	0	0	506	511	0	0	
3	0	0	0	0	506	508	0	0	
4	0	0	0	0	507	510	0	0	
5	0	0	0	0	509	510	0	0	
6	0	0	0	0	510	514	0	0	
7	0	0	0	0	510	512	0	0	
8	0	0	0	0	509	510	0	0	
9	0	0	0	0	512	510	0	0	
10	0	0	0	0	512	512	0	0	
11	0	0	0	0	513	511	0	0	
12	0	0	0	0	513	510	0	0	
13	0	0	0	0	511	510	0	0	
14	0	0	0	0	511	510	0	0	
15	0	0	0	0	511	509	0	0	
0	0	0	0	0	508	510	0	0	
1	0	0	0	0	506	510	0	0	
2	0	0	0	0	505	510	0	0	
3	0	0	0	0	506	511	0	0	
4	0	0	0	0	506	510	0	0	
5	0	0	0	0	503	511	0	0	
6	0	0	0	0	503	510	0	0	
7	0	0	0	0	505	510	0	0	
8	0	0	0	0	505	510	0	0	
9	0	0	0	0	509	511	0	0	
10	0	0	0	0	508	511	0	0	
11	0	0	0	0	512	513	0	0	
12	0	0	0	0	512	512	0	0	
13	0	0	0	0	512	511	0	0	
14	0	0	0	0	513	510	0	0	
15	0	0	0	0	514	511	0	0	
0	0	0	0	0	515	511	0	0	
1	0	0	0	0	511	511	0	0	
2	0	0	0	0	510	511	0	0	
3	0	0	0	0	509	510	0	0	
4	0	0	0	0	505	510	0	0	
5	0	0	0	0	507	509	0	0	
6	0	0	0	0	505	510	0	0	
7	0	0	0	0	502	512	0	0	
8	0	0	0	0	501	510	0	0	
9	0	0	0	0	505	508	0	0	
10	0	0	0	0	505	510	0	0	
11	0	0	0	0	507	508	0	0	
12	0	0	0	0	507	508	0	0	
13	0	0	0	0	509	511	0	0	
14	0	0	0	0	510	508	0	0	
15	0	0	0	0	512	508	0	0	
0	0	0	0	0	512	511	0	0	
1	0	0	0	0	512	510	0	0	
2	0	0	0	0	513	511	0	0	
3	0	0	0	0	512	511	0	0	
4	0	0	0	0	511	512	0	0	
5	0	0	0	0	510	513	0	0	
6	0	0	0	0	509	508	0	0	
7	0	0	0	0	508	511	0	0	
8	0	0	0	0	511	510	0	0	
9	0	0	0	0	508	512	0	0	
10	0	0	0	0	507	509	0	0	
11	0	0	0	0	506	509	0	0	
12	0	0	0	0	502	512	0	0	
13	0	0	0	0	504	510	0	0	
14	0	0	0	0	505	510	0	0	
15	0	0	0	0	504	511	0	0	
0	0	0	0	0	506	513	0	0	
1	0	0	0	0	508	512	0	0	
2	0	0	0	0	510	509	0	0	
3	0	0	0	0	511	512	0	0	
4	0	0	0	0	509	510	0	0	
5	0	0	0	0	511	511	0	0	
6	0	0	0	0	513	511	0	0	
7	0	0	0	0	514	510	0	0	
8	0	0	0	0	513	510	0	0	
9	0	0	0	0	511	511	0	0	
10	0	0	0	0	510	511	0	0	
11	0	0	0	0	509	510	0	0	
12	0	0	0	0	508	510	0	0	
13	0	0	0	0	508	509	0	0	
14	0	0	0	0	505	509	0	0	
15	0	0	0	0	504	511	0	0	
0	0	0	0	0	505	511	0	0	
1	0	0	0	0	504	510	0	0	
2	0	0	0	0	505	510	0	0	
3	0	0	0	0	505	510	0	0	
4	0	0	0	0	508	511	0	0	
5	0	0	0	0	508	510	0	0	
6	0	0	0	0	509	510	0	0	
7	0	0	0	0	510	510	0	0	
8	0	0	0	0	511	509	0	0	
9	0	0	0	0	508	509	0	0	
10	0	0	0	0	513	510	0	0	
11	0	0	0	0	515	510	0	0	
12	0	0	0	0	511	510	0	0	
13	0	0	0	0	512	510	0	0	
14	0	0	0	0	510	513	0	0	
15	0	0	0	0	510	512	0	0	
0	0	0	0	0	507	511	0	0	
1	0	0	0	0	507	511	0	0	
2	0	0	0	0	504	509	0	0	
3	0	0	0	0	505	511	0	0	
4	0	0	0	0	502	512	0	0	
5	0	0	0	0	506	510	0	0	
6	0	0	0	0	505	513	0	0	
7	0	0	0	0	507	511	0	0	
8	0	0	0	0	508	512	0	0	
9	0	0	0	0	506	511	0	0	
10	0	0	0	0	508	509	0	0	
11	0	0	0	0	512	510	0	0	
12	0	0	0	0	512	511	0	0	
13	0	0	0	0	512	510	0	0	
14	0	0	0	0	514	511	0	0	
15	0	0	0	0	512	509	0	0	
0	0	0	0	0	515	510	0	0	
1	0	0	0	0	511	512	0	0	
2	0	0	0	0	512	510	0	0	
3	0	0	0	0	508	511	0	0	
4	0	0	0	0	510	509	0	0	
5	0	0	0	0	506	508	0	0	
6	0	0	0	0	504	511	0	0	
7	0	0	0	0	504	510	0	0	
8	0	0	0	0	504	510	0	0	
9	0	0	0	0	507	512	0	0	
10	0	0	0	0	506	508	0	0	
11	0	0	0	0	503	508	0	0	
12	0	0	0	0	506	508	0	0	
13	0	0	0	0	507	509	0	0	
14	0	0	0	0	507	513	0	0	
15	0	0	0	0	510	511	0	0	
0	0	0	0	0	511	512	0	0	
1	0	0	0	0	512	510	0	0	
2	0	0	0	0	513	510	0	0	
3	0	0	0	0	515	509	0	0	
4	0	0	0	0	515	511	0	0	
5	0	0	0	0	512	512	0	0	
6	0	0	0	0	511	511	0	0	
7	0	0	0	0	508	509	0	0	
8	0	0	0	0	507	511	0	0	
9	0	0	0	0	507	511	0	0	
10	0	0	0	0	505	511	0	0	
11	0	0	0	0	503	511	0	0	
12	0	0	0	0	504	512	0	0	
13	0	0	0	0	505	509	0	0	
14	0	0	0	0	504	508	0	0	
15	0	0	0	0	505	511	0	0	
0	0	0	0	0	507	510	0	0	
1	0	0	0	0	508	509	0	0	
2	0	0	0	0	508	511	0	0	
3	0	0	0	0	512	511	0	0	
4	0	0	0	0	513	510	0	0	
5	0	0	0	0	515	510	0	0	
6	0	0	0	0	515	511	0	0	
7	0	0	0	0	513	511	0	0	
8	0	0	0	0	513	511	0	0	
9	0	0	0	0	512	510	0	0	
10	0	0	0	0	510	511	0	0	
11	0	0	0	0	510	512	0	0	
12	0	0	0	0	507	512	0	0	
13	0	0	0	0	504	510	0	0	
14	0	0	0	0	503	509	0	0	
15	0	0	0	0	505	510	0	0	
0	0	0	0	0	505	511	0	0	
1	0	0	0	0	505	510	0	0	
2	0	0	0	0	504	509	0	0	
3	0	0	0	0	502	510	0	0	
4	0	0	0	0	504	509	0	0	
5	0	0	0	0	507	508	0	0	
6	0	0	0	0	510	512	0	0	
7	0	0	0	0	514	511	0	0	
8	0	0	0	0	511	511	0	0	
9	0	0	0	0	513	512	0	0	
10	0	0	0	0	514	511	0	0	
11	0	0	0	0	512	511	0	0	
12	0	0	0	0	512	511	0	0	
13	0	0	0	0	511	511	0	0	
14	0	0	0	0	509	510	0	0	
15	0	0	0	0	510	512	0	0	
0	0	0	0	0	508	510	0	0	
1	0	0	0	0	507	510	0	0	
2	0	0	0	0	506	510	0	0	
3	0	0	0	0	504	508	0	0	
4	0	0	0	0	503	511	0	0	
5	0	0	0	0	505	509	0	0	
6	0	0	0	0	504	509	0	0	
7	0	0	0	0	505	511	0	0	
8	0	0	0	0	507	510	0	0	
9	0	0	0	0	506	511	0	0	
10	0	0	0	0	510	511	0	0	
11	0	0	0	0	511	509	0	0	
12	0	0	0	0	511	512	0	0	
13	0	0	0	0	512	510	0	0	
14	0	0	0	0	513	512	0	0	
15	0	0	0	0	512	512	0	0	
0	0	0	0	0	515	511	0	0	
1	0	0	0	0	510	510	0	0	
2	0	0	0	0	510	512	0	0	
3	0	0	0	0	509	510	0	0	
4	0	0	0	0	508	511	0	0	
5	0	0	0	0	507	510	0	0	
6	0	0	0	0	505	509	0	0	
7	0	0	0	0	504	510	0	0	
8	0	0	0	0	505	512	0	0	
9	0	0	0	0	505	509	0	0	
10	0	0	0	0	505	510	0	0	
11	0	0	0	0	508	512	0	0	
12	0	0	0	0	508	511	0	0	
13	0	0	0	0	506	512	0	0	
14	0	0	0	0	510	508	0	0	
15	0	0	0	0	512	511	0	0	
0	0	0	0	0	510	511	0	0	
1	0	0	0	0	512	511	0	0	
2	0	0	0	0	515	511	0	0	
3	0	0	0	0	512	510	0	0	
4	0	0	0	0	513	511	0	0	
5	0	0	0	0	512	512	0	0	
6	0	0	0	0	510	509	0	0	
7	0	0	0	0	506	510	0	0	
8	0	0	0	0	508	510	0	0	
9	0	0	0	0	507	508	0	0	
10	0	0	0	0	506	511	0	0	
11	0	0	0	0	504	512	0	0	
12	0	0	0	0	505	511	0	0	
13	0	0	0	0	504	510	0	0	
14	0	0	0	0	505	511	0	0	
15	0	0	0	0	505	510	0	0	
0	0	0	0	0	508	509	0	0	
1	0	0	0	0	508	509	0	0	
2	0	0	0	0	508	511	0	0	
3	0	0	0	0	511	509	0	0	
4	0	0	0	0	512	509	0	0	
5	0	0	0	0	514	511	0	0	
6	0	0	0	0	515	510	0	0	
7	0	0	0	0	513	511	0	0	
8	0	0	0	0	511	511	0	0	
9	0	0	0	0	510	509	0	0	
10	0	0	0	0	508	510	0	0	
11	0	0	0	0	509	508	0	0	
12	0	0	0	0	507	512	0	0	
13	0	0	0	0	505	511	0	0	
14	0	0	0	0	507	509	0	0	
15	0	0	0	0	506	513	0	0	
0	0	0	0	0	508	510	0	0	
1	0	0	0	0	505	512	0	0	
2	0	0	0	0	506	511	0	0	
3	0	0	0	0	505	511	0	0	
4	0	0	0	0	507	508	0	0	
5	0	0	0	0	505	508	0	0	
6	0	0	0	0	508	511	0	0	
7	0	0	0	0	513	510	0	0	
8	0	0	0	0	512	510	0	0	
9	0	0	0	0	512	512	0	0	
10	0	0	0	0	513	511	0	0	
11	0	0	0	0	514	510	0	0	
12	0	0	0	0	513	511	0	0	
13	0	0	0	0	511	510	0	0	
14	0	0	0	0	509	509	0	0	
15	0	0	0	0	511	509	0	0	
0	0	0	0	0	509	513	0	0	
1	0	0	0	0	507	511	0	0	
2	0	0	0	0	505	508	0	0	
3	0	0	0	0	503	510	0	0	
4	0	0	0	0	504	512	0	0	
5	0	0	0	0	504	510	0	0	
6	0	0	0	0	507	510	0	0	
7	0	0	0	0	506	511	0	0	
8	0	0	0	0	507	512	0	0	
9	0	0	0	0	508	511	0	0	
10	0	0	0	0	509	507	0	0	
11	0	0	0	0	509	511	0	0	
12	0	0	0	0	512	509	0	0	
13	0	0	0	0	514	512	0	0	
14	0	0	0	0	515	510	0	0	
15	0	0	0	0	512	510	0	0	
0	0	0	0	0	513	510	0	0	
1	0	0	0	0	513	513	0	0	
2	0	0	0	0	510	515	0	0	
3	0	0	0	0	508	509	0	0	
4	0	0	0	0	507	511	0	0	
5	0	0	0	0	508	512	0	0	
6	0	0	0	0	504	510	0	0	
7	0	0	0	0	506	511	0	0	
8	0	0	0	0	504	510	0	0	
9	0	0	0	0	504	511	0	0	
10	0	0	0	0	505	509	0	0	
11	0	0	0	0	505	511	0	0	
12	0	0	0	0	507	510	0	0	
13	0	0	0	0	509	509	0	0	
14	0	0	0	0	510	510	0	0	
15	0	0	0	0	510	507	0	0	
0	0	0	0	0	510	510	0	0	
1	0	0	0	0	512	511	0	0	
2	0	0	0	0	512	512	0	0	
3	0	0	0	0	515	508	0	0	
4	0	0	0	0	512	512	0	0	
5	0	0	0	0	511	514	0	0	
6	0	0	0	0	509	511	0	0	
7	0	0	0	0	509	508	0	0	
8	0	0	0	0	508	510	0	0	
9	0	0	0	0	507	510	0	0	
10	0	0	0	0	505	511	0	0	
11	0	0	0	0	505	509	0	0	
12	0	0	0	0	504	510	0	0	
13	0	0	0	0	502	510	0	0	
14	0	0	0	0	504	508	0	0	
15	0	0	0	0	503	511	0	0	
0	0	0	0	0	504	510	0	0	
1	0	0	0	0	508	510	0	0	
2	0	0	0	0	511	511	0	0	
3	0	0	0	0	512	511	0	0	
4	0	0	0	0	513	513	0	0	
5	0	0	0	0	512	512	0	0	
6	0	0	0	0	514	511	0	0	
7	0	0	0	0	514	512	0	0	
8	0	0	0	0	513	511	0	0	
9	0	0	0	0	509	511	0	0	
10	0	0	0	0	508	511	0	0	
11	0	0	0	0	508	511	0	0	
12	0	0	0	0	508	509	0	0	
13	0	0	0	0	507	506	0	0	
14	0	0	0	0	505	511	0	0	
15	0	0	0	0	504	511	0	0	
0	0	0	0	0	504	510	0	0	
1	0	0	0	0	505	510	0	0	
2	0	0	0	0	505	511	0	0	
3	0	0	0	0	507	509	0	0	
4	0	0	0	0	507	509	0	0	
5	0	0	0	0	506	510	0	0	
6	0	0	0	0	509	510	0	0	
7	0	0	0	0	511	510	0	0	
8	0	0	0	0	511	510	0	0	
9	0	0	0	0	511	510	0	0	
10	0	0	0	0	516	510	0	0	
11	0	0	0	0	515	511	0	0	
12	0	0	0	0	510	510	0	0	
13	0	0	0	0	510	510	0	0	
14	0	0	0	0	507	509	0	0	
15	0	0	0	0	510	511	0	0	
0	0	0	0	0	507	510	0	0	
1	0	0	0	0	506	511	0	0	
2	0	0	0	0	508	510	0	0	
3	0	0	0	0	508	510	0	0	
4	0	0	0	0	503	511	0	0	
5	0	0	0	0	504	509	0	0	
6	0	0	0	0	504	510	0	0	
7	0	0	0	0	505	512	0	0	
8	0	0	0	0	508	513	0	0	
9	0	0	0	0	507	511	0	0	
10	0	0	0	0	509	510	0	0	
11	0	0	0	0	514	512	0	0	
12	0	0	0	0	513	510	0	0	
13	0	0	0	0	514	511	0	0	
14	0	0	0	0	513	511	0	0	
15	0	0	0	0	512	511	0	0	
0	0	0	0	0	511	509	0	0	
1	0	0	0	0	511	510	0	0	
2	0	0	0	0	510	512	0	0	
3	0	0	0	0	508	511	0	0	
4	0	0	0	0	507	511	0	0	
5	0	0	0	0	505	512	0	0	
6	0	0	0	0	505	511	0	0	
7	0	0	0	0	504	510	0	0	
8	0	0	0	0	503	512	0	0	
9	0	0	0	0	504	509	0	0	
10	0	0	0	0	505	509	0	0	
11	0	0	0	0	505	509	0	0	
12	0	0	0	0	506	508	0	0	
13	0	0	0	0	507	511	0	0	
14	0	0	0	0	510	511	0	0	
15	0	0	0	0	512	512	0	0	
0	0	0	0	0	513	510	0	0	
1	0	0	0	0	514	510	0	0	
2	0	0	0	0	514	511	0	0	
3	0	0	0	0	513	511	0	0	
4	0	0	0	0	512	512	0	0	
5	0	0	0	0	512	510	0	0	
6	0	0	0	0	510	511	0	0	
7	0	0	0	0	508	510	0	0	
8	0	0	0	0	509	507	0	0	
9	0	0	0	0	506	509	0	0	
10	0	0	0	0	506	511	0	0	
11	0	0	0	0	506	512	0	0	
12	0	0	0	0	504	513	0	0	
13	0	0	0	0	502	511	0	0	
14	0	0	0	0	503	510	0	0	
15	0	0	0	0	504	512	0	0	
0	0	0	0	0	505	512	0	0	
1	0	0	0	0	508	509	0	0	
2	0	0	0	0	509	511	0	0	
3	0	0	0	0	511	513	0	0	
4	0	0	0	0	513	514	0	0	
5	0	0	0	0	515	510	0	0	
6	0	0	0	0	513	510	0	0	
7	0	0	0	0	515	510	0	0	
8	0	0	0	0	512	511	0	0	
9	0	0	0	0	510	509	0	0	
10	0	0	0	0	511	511	0	0	
11	0	0	0	0	508	509	0	0	
12	0	0	0	0	508	509	0	0	
13	0	0	0	0	505	510	0	0	
14	0	0	0	0	505	511	0	0	
15	0	0	0	0	505	509	0	0	
0	0	0	0	0	504	508	0	0	
1	0	0	0	0	503	511	0	0	
2	0	0	0	0	505	511	0	0	
3	0	0	0	0	507	509	0	0	
4	0	0	0	0	508	510	0	0	
5	0	0	0	0	508	510	0	0	
6	0	0	0	0	510	511	0	0	
7	0	0	0	0	511	511	0	0	
8	0	0	0	0	511	511	0	0	
9	0	0	0	0	513	512	0	0	
10	0	0	0	0	512	512	0	0	
11	0	0	0	0	514	511	0	0	
12	0	0	0	0	511	510	0	0	
13	0	0	0	0	510	509	0	0	
14	0	0	0	0	509	509	0	0	
15	0	0	0	0	510	508	0	0	
0	0	0	0	0	509	509	0	0	
1	0	0	0	0	506	509	0	0	
2	0	0	0	0	506	512	0	0	
3	0	0	0	0	504	510	0	0	
4	0	0	0	0	504	510	0	0	
5	0	0	0	0	506	509	0	0	
6	0	0	0	0	505	510	0	0	
7	0	0	0	0	505	510	0	0	
8	0	0	0	0	508	510	0	0	
9	0	0	0	0	506	510	0	0	
10	0	0	0	0	511	513	0	0	
11	0	0	0	0	509	510	0	0	
12	0	0	0	0	512	509	0	0	
13	0	0	0	0	513	515	0	0	
14	0	0	0	0	513	512	0	0	
15	0	0	0	0	513	512	0	0	
0	0	0	0	0	514	513	0	0	
1	0	0	0	0	511	512	0	0	
2	0	0	0	0	510	510	0	0	
3	0	0	0	0	508	511	0	0	
4	0	0	0	0	509	510	0	0	
5	0	0	0	0	507	509	0	0	
6	0	0	0	0	507	509	0	0	
7	0	0	0	0	505	510	0	0	
8	0	0	0	0	503	509	0	0	
9	0	0	0	0	503	509	0	0	
10	0	0	0	0	503	510	0	0	
11	0	0	0	0	507	509	0	0	
12	0	0	0	0	506	510	0	0	
13	0	0	0	0	509	512	0	0	
14	0	0	0	0	512	511	0	0	
15	0	0	0	0	512	511	0	0	
0	0	0	0	0	513	510	0	0	
1	0	0	0	0	512	510	0	0	
2	0	0	0	0	513	511	0	0	
3	0	0	0	0	514	512	0	0	
4	0	0	0	0	512	513	0	0	
5	0	0	0	0	511	512	0	0	
6	0	0	0	0	510	510	0	0	
7	0	0	0	0	508	512	0	0	
8	0	0	0	0	505	510	0	0	
9	0	0	0	0	507	510	0	0	
10	0	0	0	0	507	508	0	0	
11	0	0	0	0	504	507	0	0	
12	0	0	0	0	504	509	0	0	
13	0	0	0	0	505	511	0	0	
14	0	0	0	0	504	509	0	0	
15	0	0	0	0	505	513	0	0	
0	0	0	0	0	507	510	0	0	
1	0	0	0	0	509	511	0	0	
2	0	0	0	0	509	511	0	0	
3	0	0	0	0	511	511	0	0	
4	0	0	0	0	511	510	0	0	
5	0	0	0	0	511	512	0	0	
6	0	0	0	0	511	511	0	0	
7	0	0	0	0	511	511	0	0	
8	0	0	0	0	513	511	0	0	
9	0	0	0	0	512	512	0	0	
10	0	0	0	0	511	510	0	0	
11	0	0	0	0	510	509	0	0	
12	0	0	0	0	507	510	0	0	
13	0	0	0	0	508	510	0	0	
14	0	0	0	0	505	510	0	0	
15	0	0	0	0	504	509	0	0	
0	0	0	0	0	503	511	0	0	
1	0	0	0	0	504	511	0	0	
2	0	0	0	0	506	509	0	0	
3	0	0	0	0	505	510	0	0	
4	0	0	0	0	507	509	0	0	
5	0	0	0	0	507	508	0	0	
6	0	0	0	0	509	511	0	0	
7	0	0	0	0	511	511	0	0	
8	0	0	0	0	511	511	0	0	
9	0	0	0	0	513	509	0	0	
10	0	0	0	0	515	511	0	0	
11	0	0	0	0	513	511	0	0	
12	0	0	0	0	511	512	0	0	
13	0	0	0	0	511	511	0	0	
14	0	0	0	0	510	511	0	0	
15	0	0	0	0	510	511	0	0	
0	0	0	0	0	507	511	0	0	
1	0	0	0	0	505	509	0	0	
2	0	0	0	0	507	511	0	0	
3	0	0	0	0	505	511	0	0	
4	0	0	0	0	502	511	0	0	
5	0	0	0	0	505	510	0	0	
6	0	0	0	0	504	510	0	0	
7	0	0	0	0	505	512	0	0	
8	0	0	0	0	508	510	0	0	
9	0	0	0	0	507	512	0	0	
10	0	0	0	0	510	511	0	0	
11	0	0	0	0	511	510	0	0	
12	0	0	0	0	511	511	0	0	
13	0	0	0	0	511	512	0	0	
14	0	0	0	0	513	511	0	0	
15	0	0	0	0	512	512	0	0	
0	0	0	0	0	515	511	0	0	
1	0	0	0	0	514	511	0	0	
2	0	0	0	0	511	510	0	0	
3	0	0	0	0	511	509	0	0	
4	0	0	0	0	508	511	0	0	
5	0	0	0	0	507	509	0	0	
6	0	0	0	0	505	510	0	0	
7	0	0	0	0	501	509	0	0	
8	0	0	0	0	501	510	0	0	
9	0	0	0	0	504	509	0	0	
10	0	0	0	0	507	509	0	0	
11	0	0	0	0	505	510	0	0	
12	0	0	0	0	508	508	0	0	
13	0	0	0	0	509	509	0	0	
14	0	0	0	0	511	510	0	0	
15	0	0	0	0	512	512	0	0	
0	0	0	0	0	512	510	0	0	
1	0	0	0	0	513	511	0	0	
2	0	0	0	0	514	512	0	0	
3	0	0	0	0	514	512	0	0	
4	0	0	0	0	513	513	0	0	
5	0	0	0	0	510	511	0	0	
6	0	0	0	0	508	510	0	0	
7	0	0	0	0	508	509	0	0	
8	0	0	0	0	507	511	0	0	
9	0	0	0	0	507	510	0	0	
10	0	0	0	0	507	509	0	0	
11	0	0	0	0	503	509	0	0	
12	0	0	0	0	504	508	0	0	
13	0	0	0	0	505	511	0	0	
14	0	0	0	0	504	509	0	0	
15	0	0	0	0	504	512	0	0	
0	0	0	0	0	506	512	0	0	
1	0	0	0	0	507	512	0	0	
2	0	0	0	0	510	511	0	0	
3	0	0	0	0	513	513	0	0	
4	0	0	0	0	513	512	0	0	
5	0	0	0	0	512	512	0	0	
6	0	0	0	0	514	508	0	0	
7	0	0	0	0	512	512	0	0	
8	0	0	0	0	513	509	0	0	
9	0	0	0	0	510	510	0	0	
10	0	0	0	0	510	509	0	0	
11	0	0	0	0	509	510	0	0	
12	0	0	0	0	509	510	0	0	
13	0	0	0	0	507	509	0	0	
14	0	0	0	0	504	511	0	0	
15	0	0	0	0	505	512	0	0	
0	0	0	0	0	504	511	0	0	
1	0	0	0	0	504	512	0	0	
2	0	0	0	0	504	510	0	0	
3	0	0	0	0	503	509	0	0	
4	0	0	0	0	506	510	0	0	
5	0	0	0	0	509	511	0	0	
6	0	0	0	0	511	512	0	0	
7	0	0	0	0	510	512	0	0	
8	0	0	0	0	511	511	0	0	
9	0	0	0	0	513	511	0	0	
10	0	0	0	0	515	512	0	0	
11	0	0	0	0	512	513	0	0	
12	0	0	0	0	514	511	0	0	
13	0	0	0	0	512	509	0	0	
14	0	0	0	0	511	509	0	0	
15	0	0	0	0	509	511	0	0	
0	0	0	0	0	506	510	0	0	
1	0	0	0	0	507	510	0	0	
2	0	0	0	0	507	511	0	0	
3	0	0	0	0	504	512	0	0	
4	0	0	0	0	504	510	0	0	
5	0	0	0	0	505	510	0	0	
6	0	0	0	0	503	510	0	0	
7	0	0	0	0	503	511	0	0	
8	0	0	0	0	507	508	0	0	
9	0	0	0	0	505	511	0	0	
10	0	0	0	0	511	510	0	0	
11	0	0	0	0	512	510	0	0	
12	0	0	0	0	513	512	0	0	
13	0	0	0	0	514	512	0	0	
14	0	0	0	0	514	511	0	0	
15	0	0	0	0	513	511	0	0	
0	0	0	0	0	514	512	0	0	
1	0	0	0	0	509	509	0	0	
2	0	0	0	0	509	508	0	0	
3	0	0	0	0	508	509	0	0	
4	0	0	0	0	508	509	0	0	
5	0	0	0	0	507	509	0	0	
6	0	0	0	0	505	508	0	0	
7	0	0	0	0	504	510	0	0	
8	0	0	0	0	504	511	0	0	
9	0	0	0	0	506	512	0	0	
10	0	0	0	0	507	511	0	0	
11	0	0	0	0	507	511	0	0	
12	0	0	0	0	505	510	0	0	
13	0	0	0	0	508	511	0	0	
14	0	0	0	0	508	511	0	0	
15	0	0	0	0	512	510	0	0	
0	0	0	0	0	510	512	0	0	
1	0	0	0	0	511	509	0	0	
2	0	0	0	0	513	510	0	0	
3	0	0	0	0	513	508	0	0	
4	0	0	0	0	515	509	0	0	
5	0	0	0	0	513	511	0	0	
6	0	0	0	0	510	510	0	0	
7	0	0	0	0	509	511	0	0	
8	0	0	0	0	507	511	0	0	
9	0	0	0	0	504	509	0	0	
10	0	0	0	0	505	509	0	0	
11	0	0	0	0	502	509	0	0	
12	0	0	0	0	504	509	0	0	
13	0	0	0	0	504	510	0	0	
14	0	0	0	0	507	510	0	0	
15	0	0	0	0	509	509	0	0	
0	0	0	0	0	511	512	0	0	
1	0	0	0	0	507	511	0	0	
2	0	0	0	0	510	510	0	0	
3	0	0	0	0	511	510	0	0	
4	0	0	0	0	510	512	0	0	
5	0	0	0	0	512	511	0	0	
6	0	0	0	0	512	510	0	0	
7	0	0	0	0	511	511	0	0	
8	0	0	0	0	513	512	0	0	
9	0	0	0	0	512	511	0	0	
10	0	0	0	0	511	510	0	0	
11	0	0	0	0	511	511	0	0	
12	0	0	0	0	508	511	0	0	
13	0	0	0	0	505	511	0	0	
14	0	0	0	0	503	510	0	0	
15	0	0	0	0	507	511	0	0	
0	0	0	0	0	502	510	0	0	
1	0	0	0	0	504	509	0	0	
2	0	0	0	0	504	512	0	0	
3	0	0	0	0	505	510	0	0	
4	0	0	0	0	506	511	0	0	
5	0	0	0	0	510	512	0	0	
6	0	0	0	0	510	510	0	0	
7	0	0	0	0	511	510	0	0	
8	0	0	0	0	511	509	0	0	
9	0	0	0	0	513	511	0	0	
10	0	0	0	0	513	512	0	0	
11	0	0	0	0	512	511	0	0	
12	0	0	0	0	514	511	0	0	
13	0	0	0	0	511	512	0	0	
14	0	0	0	0	510	512	0	0	
15	0	0	0	0	508	509	0	0	
0	0	0	0	0	508	511	0	0	
1	0	0	0	0	508	511	0	0	
2	0	0	0	0	504	512	0	0	
3	0	0	0	0	506	508	0	0	
4	0	0	0	0	503	511	0	0	
5	0	0	0	0	505	510	0	0	
6	0	0	0	0	504	510	0	0	
7	0	0	0	0	506	508	0	0	
8	0	0	0	0	508	511	0	0	
9	0	0	0	0	509	511	0	0	
10	0	0	0	0	508	510	0	0	
11	0	0	0	0	511	511	0	0	
12	0	0	0	0	511	509	0	0	
13	0	0	0	0	512	510	0	0	
14	0	0	0	0	513	512	0	0	
15	0	0	0	0	508	511	0	0	
0	0	0	0	0	511	510	0	0	
1	0	0	0	0	509	510	0	0	
2	0	0	0	0	513	509	0	0	
3	0	0	0	0	509	510	0	0	
4	0	0	0	0	508	510	0	0	
5	0	0	0	0	508	510	0	0	
6	0	0	0	0	506	509	0	0	
7	0	0	0	0	505	510	0	0	
8	0	0	0	0	504	510	0	0	
9	0	0	0	0	505	511	0	0	
10	0	0	0	0	504	510	0	0	
11	0	0	0	0	505	508	0	0	
12	0	0	0	0	507	511	0	0	
13	0	0	0	0	507	509	0	0	
14	0	0	0	0	511	510	0	0	
15	0	0	0	0	512	510	0	0	
0	0	0	0	0	511	510	0	0	
1	0	0	0	0	513	510	0	0	
2	0	0	0	0	513	514	0	0	
3	0	0	0	0	513	512	0	0	
4	0	0	0	0	513	510	0	0	
5	0	0	0	0	511	512	0	0	
6	0	0	0	0	509	511	0	0	
7	0	0	0	0	509	510	0	0	
8	0	0	0	0	508	511	0	0	
9	0	0	0	0	505	508	0	0	
10	0	0	0	0	506	511	0	0	
11	0	0	0	0	505	511	0	0	
12	0	0	0	0	504	510	0	0	
13	0	0	0	0	504	509	0	0	
14	0	0	0	0	504	509	0	0	
15	0	0	0	0	504	511	0	0	
0	0	0	0	0	507	509	0	0	
1	0	0	0	0	507	511	0	0	
2	0	0	0	0	512	514	0	0	
3	0	0	0	0	512	512	0	0	
4	0	0	0	0	512	511	0	0	
5	0	0	0	0	513	510	0	0	
6	0	0	0	0	513	509	0	0	
7	0	0	0	0	513	512	0	0	
8	0	0	0	0	511	511	0	0	
9	0	0	0	0	512	510	0	0	
10	0	0	0	0	512	510	0	0	
11	0	0	0	0	511	510	0	0	
12	0	0	0	0	507	512	0	0	
13	0	0	0	0	505	511	0	0	
14	0	0	0	0	505	510	0	0	
15	0	0	0	0	503	510	0	0	
0	0	0	0	0	506	511	0	0	
1	0	0	0	0	503	508	0	0	
2	0	0	0	0	505	510	0	0	
3	0	0	0	0	504	512	0	0	
4	0	0	0	0	509	511	0	0	
5	0	0	0	0	508	510	0	0	
6	0	0	0	0	509	512	0	0	
7	0	0	0	0	511	509	0	0	
8	0	0	0	0	512	512	0	0	
9	0	0	0	0	512	511	0	0	
10	0	0	0	0	514	509	0	0	
11	0	0	0	0	514	511	0	0	
12	0	0	0	0	511	511	0	0	
13	0	0	0	0	509	511	0	0	
14	0	0	0	0	510	511	0	0	
15	0	0	0	0	508	509	0	0	
0	0	0	0	0	510	511	0	0	
1	0	0	0	0	507	509	0	0	
2	0	0	0	0	506	510	0	0	
3	0	0	0	0	506	512	0	0	
4	0	0	0	0	504	509	0	0	
5	0	0	0	0	502	508	0	0	
6	0	0	0	0	503	510	0	0	
7	0	0	0	0	505	510	0	0	
8	0	0	0	0	508	509	0	0	
9	0	0	0	0	508	511	0	0	
10	0	0	0	0	512	511	0	0	
11	0	0	0	0	513	510	0	0	
12	0	0	0	0	511	511	0	0	
13	0	0	0	0	512	511	0	0	
14	0	0	0	0	514	510	0	0	
15	0	0	0	0	512	512	0	0	
0	0	0	0	0	511	510	0	0	
1	0	0	0	0	510	513	0	0	
2	0	0	0	0	510	510	0	0	
3	0	0	0	0	509	510	0	0	
4	0	0	0	0	510	510	0	0	
5	0	0	0	0	506	513	0	0	
6	0	0	0	0	504	512	0	0	
7	0	0	0	0	503	510	0	0	
8	0	0	0	0	505	510	0	0	
9	0	0	0	0	504	509	0	0	
10	0	0	0	0	504	510	0	0	
11	0	0	0	0	506	511	0	0	
12	0	0	0	0	506	511	0	0	
13	0	0	0	0	507	511	0	0	
14	0	0	0	0	507	509	0	0	
15	0	0	0	0	512	510	0	0	
0	0	0	0	0	512	509	0	0	
1	0	0	0	0	511	511	0	0	
2	0	0	0	0	513	509	0	0	
3	0	0	0	0	516	511	0	0	
4	0	0	0	0	513	511	0	0	
5	0	0	0	0	513	510	0	0	
6	0	0	0	0	509	511	0	0	
7	0	0	0	0	508	511	0	0	
8	0	0	0	0	509	509	0	0	
9	0	0	0	0	507	512	0	0	
10	0	0	0	0	506	511	0	0	
11	0	0	0	0	508	513	0	0	
12	0	0	0	0	504	511	0	0	
13	0	0	0	0	501	513	0	0	
14	0	0	0	0	503	510	0	0	
15	0	0	0	0	504	509	0	0	
0	0	0	0	0	506	511	0	0	
1	0	0	0	0	508	509	0	0	
2	0	0	0	0	508	509	0	0	
3	0	0	0	0	510	510	0	0	
4	0	0	0	0	514	511	0	0	
5	0	0	0	0	510	510	0	0	
6	0	0	0	0	513	510	0	0	
7	0	0	0	0	512	510	0	0	
8	0	0	0	0	515	512	0	0	
9	0	0	0	0	512	510	0	0	
10	0	0	0	0	510	511	0	0	
11	0	0	0	0	509	510	0	0	
12	0	0	0	0	507	512	0	0	
13	0	0	0	0	506	510	0	0	
14	0	0	0	0	506	513	0	0	
15	0	0	0	0	503	511	0	0	
0	0	0	0	0	503	511	0	0	
1	0	0	0	0	503	511	0	0	
2	0	0	0	0	505	509	0	0	
3	0	0	0	0	505	510	0	0	
4	0	0	0	0	508	509	0	0	
5	0	0	0	0	505	511	0	0	
6	0	0	0	0	511	509	0	0	
7	0	0	0	0	512	511	0	0	
8	0	0	0	0	511	512	0	0	
9	0	0	0	0	512	511	0	0	
10	0	0	0	0	515	511	0	0	
11	0	0	0	0	518	510	0	0	
12	0	0	0	0	516	513	0	0	
13	0	0	0	0	515	512	0	0	
14	0	0	0	0	513	514	0	0	
15	0	0	0	0	509	513	0	0	
0	0	0	0	0	508	511	0	0	
1	0	0	0	0	506	512	0	0	
2	0	0	0	0	504	509	0	0	
3	0	0	0	0	499	510	0	0	
4	0	0	0	0	496	509	0	0	
5	0	0	0	0	494	507	0	0	
6	0	0	0	0	502	508	0	0	
7	0	0	0	0	502	507	0	0	
8	0	0	0	0	508	511	0	0	
9	0	0	0	0	511	511	0	0	
10	0	0	0	0	512	509	0	0	
11	0	0	0	0	511	511	0	0	
12	0	0	0	0	512	509	0	0	
13	0	0	0	0	516	511	0	0	
14	0	0	0	0	517	510	0	0	
15	0	0	0	0	515	512	0	0	
0	0	0	0	0	515	510	0	0	
1	0	0	0	0	514	511	0	0	
2	0	0	0	0	511	513	0	0	
3	0	0	0	0	511	511	0	0	
4	0	0	0	0	509	511	0	0	
5	0	0	0	0	506	510	0	0	
6	0	0	0	0	502	510	0	0	
7	0	0	0	0	503	510	0	0	
8	0	0	0	0	501	511	0	0	
9	0	0	0	0	500	510	0	0	
10	0	0	0	0	503	511	0	0	
11	0	0	0	0	505	510	0	0	
12	0	0	0	0	509	510	0	0	
13	0	0	0	0	510	510	0	0	
14	0	0	0	0	511	512	0	0	
15	0	0	0	0	513	509	0	0	
0	0	0	0	0	513	510	0	0	
1	0	0	0	0	514	511	0	0	
2	0	0	0	0	518	512	0	0	
3	0	0	0	0	514	512	0	0	
4	0	0	0	0	512	510	0	0	
5	0	0	0	0	512	510	0	0	
6	0	0	0	0	511	510	0	0	
7	0	0	0	0	509	509	0	0	
8	0	0	0	0	510	510	0	0	
9	0	0	0	0	507	508	0	0	
10	0	0	0	0	506	510	0	0	
11	0	0	0	0	501	513	0	0	
12	0	0	0	0	500	510	0	0	
13	0	0	0	0	504	510	0	0	
14	0	0	0	0	503	508	0	0	
15	0	0	0	0	508	512	0	0	
0	0	0	0	0	508	510	0	0	
1	0	0	0	0	510	512	0	0	
2	0	0	0	0	514	513	0	0	
3	0	0	0	0	517	513	0	0	
4	0	0	0	0	514	511	0	0	
5	0	0	0	0	514	513	0	0	
6	0	0	0	0	520	510	0	0	
7	0	0	0	0	508	508	0	0	
8	0	0	0	0	495	507	0	0	
9	0	0	0	0	497	506	0	0	
10	0	0	0	0	502	508	0	0	
11	0	0	0	0	502	511	0	0	
12	0	0	0	0	505	512	0	0	
13	0	0	0	0	507	511	0	0	
14	0	0	0	0	508	512	0	0	
15	0	0	0	0	507	510	0	0	
0	0	0	0	0	501	511	0	0	
1	0	0	0	0	505	508	0	0	
2	0	0	0	0	506	510	0	0	
3	0	0	0	0	510	511	0	0	
4	0	0	0	0	512	511	0	0	
5	0	0	0	0	510	510	0	0	
6	0	0	0	0	514	510	0	0	
7	0	0	0	0	514	508	0	0	
8	0	0	0	0	514	512	0	0	
9	0	0	0	0	513	511	0	0	
10	0	0	0	0	514	512	0	0	
11	0	0	0	0	512	511	0	0	
12	0	0	0	0	515	514	0	0	
13	0	0	0	0	512	512	0	0	
14	0	0	0	0	514	512	0	0	
15	0	0	0	0	510	511	0	0	
0	0	0	0	0	509	510	0	0	
1	0	0	0	0	508	508	0	0	
2	0	0	0	0	512	510	0	0	
3	0	0	0	0	516	510	0	0	
4	0	0	0	0	506	510	0	0	
5	0	0	0	0	500	512	0	0	
6	0	0	0	0	504	511	0	0	
7	0	0	0	0	499	511	0	0	
8	0	0	0	0	502	509	0	0	
9	0	0	0	0	506	510	0	0	
10	0	0	0	0	507	511	0	0	
11	0	0	0	0	497	508	0	0	
12	0	0	0	0	495	509	0	0	
13	0	0	0	0	500	510	0	0	
14	0	0	0	0	514	512	0	0	
15	0	0	0	0	518	510	0	0	
0	0	0	0	0	517	510	0	0	
1	0	0	0	0	509	509	0	0	
2	0	0	0	0	508	508	0	0	
3	0	0	0	0	510	510	0	0	
4	0	0	0	0	510	509	0	0	
5	0	0	0	0	510	511	0	0	
6	0	0	0	0	510	513	0	0	
7	0	0	0	0	510	511	0	0	
8	0	0	0	0	509	509	0	0	
9	0	0	0	0	503	510	0	0	
10	0	0	0	0	503	513	0	0	
11	0	0	0	0	506	510	0	0	
12	0	0	0	0	508	511	1	0	
13	0	0	0	0	509	510	1	0	
14	0	0	0	0	505	509	1	0	
15	0	0	0	0	511	511	1	0	
0	0	0	0	0	516	511	1	0	
1	0	0	0	0	515	511	0	0	
2	0	0	0	0	517	509	0	0	
3	0	0	0	0	516	512	0	0	
4	0	0	0	0	513	510	0	0	
5	0	0	0	0	514	512	0	0	
6	0	0	0	0	512	513	0	0	
7	0	0	0	0	509	511	0	0	
8	0	0	0	0	507	511	0	0	
9	0	0	0	0	504	511	0	0	
10	0	0	0	0	499	510	0	0	
11	0	0	0	0	500	510	0	0	
12	0	0	0	0	499	510	0	0	
13	0	0	0	0	504	510	0	0	
14	0	0	0	0	505	508	0	0	
15	0	0	0	0	504	511	0	0	
0	0	0	0	0	507	511	0	0	
1	0	0	0	0	508	512	0	0	
2	0	0	0	0	510	509	0	0	
3	0	0	0	0	513	512	0	0	
4	0	0	0	0	511	511	0	0	
5	0	0	0	0	512	510	0	0	
6	0	0	0	0	514	512	0	0	
7	0	0	0	0	514	511	0	0	
8	0	0	0	0	514	511	0	0	
9	0	0	0	0	512	511	0	0	
10	0	0	0	0	511	510	0	0	
11	0	0	0	0	509	513	0	0	
12	0	0	0	0	508	511	0	0	
13	0	0	0	0	507	511	0	0	
14	0	0	0	0	505	511	0	0	
15	0	0	0	0	505	509	0	0	
0	0	0	0	0	504	509	0	0	
1	0	0	0	0	503	511	0	0	
2	0	0	0	0	504	507	0	0	
3	0	0	0	0	507	510	0	0	
4	0	0	0	0	507	509	0	0	
5	0	0	0	0	506	510	0	0	
6	0	0	0	0	508	512	0	0	
7	0	0	0	0	511	511	0	0	
8	0	0	0	0	512	511	0	0	
9	0	0	0	0	514	512	0	0	
10	0	0	0	0	514	511	0	0	
11	0	0	0	0	512	514	0	0	
12	0	0	0	0	513	510	0	0	
13	0	0	0	0	512	510	0	0	
14	0	0	0	0	510	510	0	0	
15	0	0	0	0	510	511	0	0	
0	0	0	0	0	507	511	0	0	
1	0	0	0	0	504	508	0	0	
2	0	0	0	0	502	511	0	0	
3	0	0	0	0	504	510	0	0	
4	0	0	0	0	504	510	0	0	
5	0	0	0	0	505	511	0	0	
6	0	0	0	0	507	510	0	0	
7	0	0	0	0	507	510	0	0	
8	0	0	0	0	506	509	0	0	
9	0	0	0	0	504	511	0	0	
10	0	0	0	0	508	508	0	0	
11	0	0	0	0	512	512	0	0	
12	0	0	0	0	512	510	0	0	
13	0	0	0	0	512	511	0	0	
14	0	0	0	0	512	510	0	0	
15	0	0	0	0	513	512	0	0	
0	0	0	0	0	513	510	0	0	
1	0	0	0	0	511	510	0	0	
2	0	0	0	0	508	510	0	0	
3	0	0	0	0	508	509	0	0	
4	0	0	0	0	509	510	0	0	
5	0	0	0	0	507	512	0	0	
6	0	0	0	0	503	510	0	0	
7	0	0	0	0	505	510	0	0	
8	0	0	0	0	505	509	0	0	
9	0	0	0	0	505	509	0	0	
10	0	0	0	0	504	509	0	0	
11	0	0	0	0	507	510	0	0	
12	0	0	0	0	505	511	0	0	
13	0	0	0	0	506	512	0	0	
14	0	0	0	0	509	511	0	0	
15	0	0	0	0	509	511	0	0	
0	0	0	0	0	511	509	0	0	
1	0	0	0	0	512	509	0	0	
2	0	0	0	0	514	511	0	0	
3	0	0	0	0	515	512	0	0	
4	0	0	0	0	511	511	0	0	
5	0	0	0	0	511	511	0	0	
6	0	0	0	0	511	508	0	0	
7	0	0	0	0	511	512	0	0	
8	0	0	0	0	508	511	0	0	
9	0	0	0	0	510	510	0	0	
10	0	0	0	0	505	510	0	0	
11	0	0	0	0	504	509	0	0	
12	0	0	0	0	503	509	0	0	
13	0	0	0	0	506	512	0	0	
14	0	0	0	0	501	509	0	0	
15	0	0	0	0	501	512	0	0	
0	0	0	0	0	504	510	0	0	
1	0	0	0	0	506	508	0	0	
2	0	0	0	0	508	511	0	0	
3	0	0	0	0	514	508	0	0	
4	0	0	0	0	512	510	0	0	
5	0	0	0	0	514	511	0	0	
6	0	0	0	0	516	511	0	0	
7	0	0	0	0	512	509	0	0	
8	0	0	0	0	514	511	0	0	
9	0	0	0	0	512	513	0	0	
10	0	0	0	0	511	514	0	0	
11	0	0	0	0	510	512	0	0	
12	0	0	0	0	506	511	0	0	
13	0	0	0	0	504	510	0	0	
14	0	0	0	0	502	510	0	0	
15	0	0	0	0	507	510	0	0	
0	0	0	0	0	507	509	0	0	
1	0	0	0	0	504	508	0	0	
2	0	0	0	0	507	513	0	0	
3	0	0	0	0	505	509	0	0	
4	0	0	0	0	507	510	0	0	
5	0	0	0	0	509	510	0	0	
6	0	0	0	0	509	512	0	0	
7	0	0	0	0	511	513	0	0	
8	0	0	0	0	512	511	0	0	
9	0	0	0	0	513	511	0	0	
10	0	0	0	0	515	513	0	0	
11	0	0	0	0	513	511	0	0	
12	0	0	0	0	513	511	0	0	
13	0	0	0	0	513	509	0	0	
14	0	0	0	0	509	510	0	0	
15	0	0	0	0	503	509	0	0	
0	0	0	0	0	502	506	0	0	
1	0	0	0	0	504	510	0	0	
2	0	0	0	0	505	510	0	0	
3	0	0	0	0	506	510	0	0	
4	0	0	0	0	505	511	0	0	
5	0	0	0	0	504	508	0	0	
6	0	0	0	0	503	511	0	0	
7	0	0	0	0	505	511	0	0	
8	0	0	0	0	510	511	0	0	
9	0	0	0	0	510	510	0	0	
10	0	0	0	0	512	512	0	0	
11	0	0	0	0	512	509	0	0	
12	0	0	0	0	513	511	0	0	
13	0	0	0	0	512	512	0	0	
14	0	0	0	0	514	511	0	0	
15	0	0	0	0	513	512	0	0	
0	0	0	0	0	515	511	0	0	
1	0	0	0	0	512	513	0	0	
2	0	0	0	0	509	511	0	0	
3	0	0	0	0	505	510	0	0	
4	0	0	0	0	503	509	0	0	
5	0	0	0	0	503	511	0	0	
6	0	0	0	0	506	511	0	0	
7	0	0	0	0	507	510	0	0	
8	0	0	0	0	504	510	0	0	
9	0	0	0	0	504	510	0	0	
10	0	0	0	0	505	511	0	0	
11	0	0	0	0	508	508	0	0	
12	0	0	0	0	507	510	0	0	
13	0	0	0	0	509	511	0	0	
14	0	0	0	0	512	513	0	0	
15	0	0	0	0	510	511	0	0	
0	0	0	0	0	512	510	0	0	
1	0	0	0	0	514	511	0	0	
2	0	0	0	0	513	512	0	0	
3	0	0	0	0	513	512	0	0	
4	0	0	0	0	513	511	0	0	
5	0	0	0	0	513	510	0	0	
6	0	0	0	0	511	510	0	0	
7	0	0	0	0	508	510	0	0	
8	0	0	0	0	507	510	0	0	
9	0	0	0	0	504	512	0	0	
10	0	0	0	0	504	511	0	0	
11	0	0	0	0	504	511	0	0	
12	0	0	0	0	508	509	0	0	
13	0	0	0	0	506	510	0	0	
14	0	0	0	0	504	511	0	0	
15	0	0	0	0	505	511	0	0	
0	0	0	0	0	506	511	0	0	
1	0	0	0	0	504	511	0	0	
2	0	0	0	0	507	508	0	0	
3	0	0	0	0	509	510	1	0	
4	0	0	0	0	511	512	0	0	
5	0	0	0	0	512	510	0	0	
6	0	0	0	0	514	511	0	0	
7	0	0	0	0	515	511	0	0	
8	0	0	0	0	514	511	0	0	
9	0	0	0	0	513	512	0	0	
10	0	0	0	0	510	511	1	0	
11	0	0	0	0	511	510	1	0	
12	0	0	0	0	508	512	1	0	
13	0	0	0	0	504	512	1	0	
14	0	0	0	0	504	511	1	0	
15	0	0	0	0	504	508	2	0	
0	0	0	0	0	504	511	1	0	
1	0	0	0	0	506	507	1	0	
2	0	0	0	0	508	508	2	0	
3	0	0	0	0	508	509	2	0	
4	0	0	0	0	508	509	2	0	
5	0	0	0	0	508	510	2	0	
6	0	0	0	0	509	512	2	0	
7	0	0	0	0	510	508	2	0	
8	0	0	0	0	511	510	1	0	
9	0	0	0	0	507	512	2	0	
10	0	0	0	0	514	511	3	0	
11	0	0	0	0	513	512	3	0	
12	0	0	0	0	514	511	2	0	
13	0	0	0	0	511	511	3	0	
14	0	0	0	0	509	509	3	0	
15	0	0	0	0	511	512	2	0	
0	0	0	0	0	511	511	2	0	
1	0	0	0	0	505	512	1	0	
2	0	0	0	0	502	510	2	0	
3	0	0	0	0	501	511	1	0	
4	0	0	0	0	504	508	1	0	
5	0	0	0	0	505	510	0	0	
6	0	0	0	0	506	508	1	0	
7	0	0	0	0	502	510	0	0	
8	0	0	0	0	506	513	0	0	
9	0	0	0	0	505	512	0	0	
10	0	0	0	0	507	513	0	0	
11	0	0	0	0	515	512	0	0	
12	0	0	0	0	516	510	0	0	
13	0	0	0	0	516	511	0	0	
14	0	0	0	0	515	511	0	0	
15	0	0	0	0	517	511	0	0	
0	0	0	0	0	511	511	0	0	
1	0	0	0	0	513	511	0	0	
2	0	0	0	0	516	511	0	0	
3	0	0	0	0	503	510	0	0	
4	0	0	0	0	496	510	0	0	
5	0	0	0	0	508	509	0	0	
6	0	0	0	0	512	509	0	0	
7	0	0	0	0	512	509	0	0	
8	0	0	0	0	506	507	0	0	
9	0	0	0	0	504	511	0	0	
10	0	0	0	0	499	509	0	0	
11	0	0	0	0	493	508	0	0	
12	0	0	0	0	499	508	0	0	
13	0	0	0	0	507	509	0	0	
14	0	0	0	0	504	511	0	0	
15	0	0	0	0	505	511	0	0	
0	0	0	0	0	512	512	0	0	
1	0	0	0	0	517	513	0	0	
2	0	0	0	0	517	514	0	0	
3	0	0	0	0	515	513	0	0	
4	0	0	0	0	518	512	0	0	
5	0	0	0	0	517	512	0	0	
6	0	0	0	0	513	510	0	0	
7	0	0	0	0	512	511	0	0	
8	0	0	0	0	511	511	0	0	
9	0	0	0	0	509	512	0	0	
10	0	0	0	0	506	511	0	0	
11	0	0	0	0	504	511	0	0	
12	0	0	0	0	504	508	0	0	
13	0	0	0	0	505	510	0	0	
14	0	0	0	0	508	511	0	0	
15	0	0	0	0	496	508	0	0	
0	0	0	0	0	495	508	0	0	
1	0	0	0	0	498	508	0	0	
2	0	0	0	0	506	511	0	0	
3	0	0	0	0	511	511	0	0	
4	0	0	0	0	511	510	0	0	
5	0	0	0	0	512	510	0	0	
6	0	0	0	0	513	509	0	0	
7	0	0	0	0	515	513	0	0	
8	0	0	0	0	511	510	0	0	
9	0	0	0	0	515	511	0	0	
10	0	0	0	0	517	513	0	0	
11	0	0	0	0	518	513	0	0	
12	0	0	0	0	516	510	0	0	
13	0	0	0	0	516	515	0	0	
14	0	0	0	0	506	512	1	0	
15	0	0	0	0	497	511	1	0	
0	0	0	0	0	496	512	1	0	
1	0	0	0	0	500	511	1	0	
2	0	0	0	0	505	508	0	0	
3	0	0	0	0	508	510	1	0	
4	0	0	0	0	503	511	1	0	
5	0	0	0	0	507	511	0	0	
6	0	0	0	0	511	511	0	0	
7	0	0	0	0	513	511	1	0	
8	0	0	0	0	513	511	0	0	
9	0	0	0	0	512	511	0	0	
10	0	0	0	0	510	509	0	0	
11	0	0	0	0	508	507	0	0	
12	0	0	0	0	509	511	0	0	
13	0	0	0	0	511	511	0	0	
14	0	0	0	0	511	511	0	0	
15	0	0	0	0	511	510	0	0	
0	0	0	0	0	507	510	0	0	
1	0	0	0	0	506	508	0	0	
2	0	0	0	0	509	510	0	0	
3	0	0	0	0	511	508	0	0	
4	0	0	0	0	507	512	0	0	
5	0	0	0	0	508	512	0	0	
6	0	0	0	0	510	509	0	0	
7	0	0	0	0	509	510	0	0	
8	0	0	0	0	499	509	0	0	
9	0	0	0	0	493	510	0	0	
10	0	0	0	0	493	513	0	0	
11	0	0	0	0	504	513	0	0	
12	0	0	0	0	512	511	0	0	
13	0	0	0	0	519	512	0	0	
14	0	0	0	0	516	512	0	0	
15	0	0	0	0	516	513	0	0	
0	0	0	0	0	511	511	0	0	
1	0	0	0	0	511	508	0	0	
2	0	0	0	0	511	510	0	0	
3	0	0	0	0	505	508	0	0	
4	0	0	0	0	502	510	0	0	
5	0	0	0	0	503	509	0	0	
6	0	0	0	0	522	510	0	0	
7	0	0	0	0	526	511	0	0	
8	0	0	0	0	524	511	0	0	
9	0	0	0	0	504	511	0	0	
10	0	0	0	0	494	509	0	0	
11	0	0	0	0	500	511	0	0	
12	0	0	0	0	502	512	0	0	
13	0	0	0	0	501	511	0	0	
14	0	0	0	0	497	508	0	0	
15	0	0	0	0	502	511	0	0	
0	0	0	0	0	503	510	0	0	
1	0	0	0	0	510	511	0	0	
2	0	0	0	0	516	510	0	0	
3	0	0	0	0	523	512	0	0	
4	0	0	0	0	529	514	0	0	
5	0	0	0	0	519	509	0	0	
6	0	0	0	0	524	511	0	0	
7	0	0	0	0	523	511	0	0	
8	0	0	0	0	505	511	0	0	
9	0	0	0	0	493	510	0	0	
10	0	0	0	0	499	512	0	0	
11	0	0	0	0	500	512	0	0	
12	0	0	0	0	500	507	0	0	
13	0	0	0	0	504	508	0	0	
14	0	0	0	0	504	511	0	0	
15	0	0	0	0	514	509	0	0	
0	0	0	0	0	514	510	0	0	
1	0	0	0	0	504	511	0	0	
2	0	0	0	0	500	512	0	0	
3	0	0	0	0	508	511	0	0	
4	0	0	0	0	508	513	0	0	
5	0	0	0	0	509	511	0	0	
6	0	0	0	0	504	511	0	0	
7	0	0	0	0	498	505	0	0	
8	0	0	0	0	510	505	0	0	
9	0	0	0	0	511	506	0	0	
10	0	0	0	0	509	508	0	0	
11	0	0	0	0	520	509	0	0	
12	0	0	0	0	523	513	0	0	
13	0	0	0	0	516	516	0	0	
14	0	0	0	0	493	512	0	0	
15	0	0	0	0	493	512	0	0	
0	0	0	0	0	504	511	0	0	
1	0	0	0	0	508	511	1	0	
2	0	0	0	0	514	515	1	0	
3	0	0	0	0	510	510	2	0	
4	0	0	0	0	517	511	2	0	
5	0	0	0	0	536	512	2	0	
6	0	0	0	0	506	510	1	0	
7	0	0	0	0	501	508	2	0	
8	0	0	0	0	507	511	2	0	
9	0	0	0	0	507	513	2	0	
10	0	0	0	0	509	512	2	0	
11	0	0	0	0	513	512	2	0	
12	0	0	0	0	511	514	2	0	
13	0	0	0	0	505	510	3	0	
14	0	0	0	0	502	510	3	0	
15	0	0	0	0	507	509	3	0	
0	0	0	0	0	498	510	4	0	
1	0	0	0	0	504	508	4	0	
2	0	0	0	0	514	508	4	0	
3	0	0	0	0	508	508	4	0	
4	0	0	0	0	503	507	4	0	
5	0	0	0	0	499	509	3	0	
6	0	0	0	0	502	508	3	0	
7	0	0	0	0	512	509	3	0	
8	0	0	0	0	513	510	3	0	
9	0	0	0	0	514	511	3	0	
10	0	0	0	0	511	512	3	0	
11	0	0	0	0	516	512	3	0	
12	0	0	0	0	509	511	4	0	
13	0	0	0	0	506	511	4	0	
14	0	0	0	0	509	512	4	0	
15	0	0	0	0	513	512	4	0	
0	0	0	0	0	510	514	4	0	
1	0	0	0	0	510	513	4	0	
2	0	0	0	0	514	509	5	0	
3	0	0	0	0	515	510	5	0	
4	0	0	0	0	513	510	6	0	
5	0	0	0	0	503	507	6	0	
6	0	0	0	0	499	507	7	0	
7	0	0	0	0	500	510	9	0	
8	0	0	0	0	497	512	9	0	
9	0	0	0	0	502	519	8	0	
10	0	0	0	0	512	521	9	0	
11	0	0	0	0	498	516	13	0	
12	0	0	0	0	500	512	14	0	
13	0	0	0	0	511	509	15	0	
14	0	0	0	0	516	504	15	0	
15	0	0	0	0	519	500	14	0	
0	0	0	0	0	527	504	14	0	
1	0	0	0	0	520	501	14	0	
2	0	0	0	0	509	503	15	0	
3	0	0	0	0	502	505	15	0	
4	0	0	0	0	497	508	15	0	
5	0	0	0	0	495	509	15	0	
6	0	0	0	0	506	510	15	0	
7	0	0	0	0	505	513	16	0	
8	0	0	0	0	549	520	16	0	
9	0	0	0	0	550	519	17	0	
10	0	0	0	0	516	516	17	0	
11	0	0	0	0	494	512	17	0	
12	0	0	0	0	486	512	16	0	
13	0	0	0	0	492	516	16	0	
14	0	0	0	0	493	515	17	0	
15	0	0	0	0	485	516	17	0	
0	0	0	0	0	503	517	19	0	
1	0	0	0	0	508	510	18	0	
2	0	0	0	0	520	509	19	0	
3	0	0	0	0	525	504	21	0	
4	0	0	0	0	520	504	21	0	
5	0	0	0	0	504	505	22	0	
6	0	0	0	0	499	504	24	0	
7	0	0	0	0	504	503	25	0	
8	0	0	0	0	506	504	25	0	
9	0	0	0	0	490	495	32	0	
10	0	0	0	0	492	499	39	0	
11	0	0	0	0	515	518	44	0	
12	0	0	0	0	526	526	50	0	
13	0	0	0	0	520	518	51	0	
14	0	0	0	0	504	516	51	0	
15	0	0	0	0	498	512	55	0	
0	0	0	0	0	502	510	57	0	
1	0	0	0	0	504	509	59	0	
2	0	0	0	0	512	513	62	0	
3	0	0	0	0	508	510	63	0	
4	0	0	0	0	509	508	66	0	
5	0	0	0	0	517	512	67	0	
6	0	0	0	0	507	512	68	0	
7	0	0	0	0	529	513	68	0	
8	0	0	0	0	523	513	70	0	
9	0	0	0	0	506	514	71	0	
10	0	0	0	0	552	519	73	0	
11	0	0	0	0	553	518	75	0	
12	0	0	0	0	500	517	77	0	
13	0	0	0	0	489	512	79	0	
14	0	0	0	0	469	511	81	0	
15	0	0	0	0	467	512	84	0	
0	0	0	0	0	473	508	86	0	
1	0	0	0	0	480	513	88	0	
2	0	0	0	0	494	517	93	0	
3	0	0	0	0	519	514	94	0	
4	0	0	0	0	537	509	93	0	
5	0	0	0	0	559	502	94	0	
6	0	0	0	0	551	507	94	0	
7	0	0	0	0	518	499	95	0	
8	0	0	0	0	493	485	99	0	
9	0	0	0	0	502	491	105	0	
10	0	0	0	0	516	500	108	0	
11	0	0	0	0	513	510	109	0	
12	0	0	0	0	496	503	111	0	
13	0	0	0	0	492	502	110	0	
14	0	0	0	0	497	507	111	0	
15	0	0	0	0	509	523	110	0	
0	0	0	0	0	530	534	111	0	
1	0	0	0	0	526	534	115	0	
2	0	0	0	0	501	520	116	0	
3	0	0	0	0	487	512	117	0	
4	0	0	0	0	497	513	117	0	
5	0	0	0	0	503	511	121	0	
6	0	0	0	0	499	511	123	0	
7	0	0	0	0	495	505	126	0	
8	0	0	0	0	495	496	130	0	
9	0	0	0	0	500	505	133	0	
10	0	0	0	0	511	518	136	0	
11	0	0	0	0	505	520	135	0	
12	0	0	0	0	508	503	138	0	
13	0	0	0	0	500	494	143	0	
14	0	0	0	0	508	504	148	0	
15	0	0	0	0	519	518	147	0	
0	0	0	0	0	525	521	149	0	
1	0	0	0	0	520	523	157	0	
2	0	0	0	0	517	528	161	0	
3	0	0	0	0	515	512	168	0	
4	0	0	0	0	515	483	171	0	
5	0	0	0	0	519	494	175	0	
6	0	0	0	0	503	527	177	0	
7	0	0	0	0	489	524	180	0	
8	0	0	0	0	476	511	180	0	
9	0	0	0	0	489	508	180	0	
10	0	0	0	0	514	511	180	0	
11	0	0	0	0	521	507	182	0	
12	0	0	0	0	550	508	184	0	
13	0	0	0	0	534	501	186	0	
14	0	0	0	0	528	516	189	0	
15	0	0	0	0	514	534	189	0	
0	0	0	0	0	504	524	194	1	
1	0	0	0	0	474	501	199	1	
2	0	0	0	0	470	502	203	1	
3	0	0	0	0	483	495	209	2	
4	0	0	0	0	494	495	212	4	
5	0	0	0	0	509	492	213	5	
6	0	0	0	0	531	497	214	6	
7	0	0	0	0	544	496	218	5	
8	0	0	0	0	568	518	219	6	
9	0	0	0	0	576	529	221	6	
10	0	0	0	0	542	542	228	8	
11	0	0	0	0	513	519	230	8	
12	0	0	0	0	500	497	230	11	
13	0	0	0	0	462	477	233	12	
14	0	0	0	0	448	495	234	14	
15	0	0	0	0	431	524	234	14	
0	0	0	0	0	448	528	236	13	
1	0	0	0	0	472	518	235	15	
2	0	0	0	0	517	510	239	16	
3	0	0	0	0	569	484	243	22	
4	0	0	0	0	577	507	241	20	
5	0	0	0	0	559	562	243	21	
6	0	0	0	0	508	505	247	24	
7	0	0	0	0	495	484	250	31	
8	0	0	0	0	497	519	255	31	
9	0	0	0	0	498	577	259	39	
10	0	0	0	0	465	551	265	42	
11	0	0	0	0	434	486	268	50	
12	0	0	0	0	461	426	272	52	
13	0	0	0	0	511	364	276	60	
14	0	0	0	0	569	419	291	67	
15	0	0	0	0	596	455	301	78	
0	0	0	0	0	612	491	303	79	
1	0	0	0	0	547	491	304	88	
2	0	0	0	0	477	537	307	95	
3	0	0	0	0	456	627	307	100	
4	0	0	0	0	453	624	309	102	
5	0	0	0	0	481	559	310	104	
6	0	0	0	0	470	599	308	112	
7	0	0	0	0	468	616	308	118	
8	0	0	0	0	501	527	307	122	
9	0	0	0	0	510	528	311	133	
10	0	0	0	0	515	556	316	135	
11	0	0	0	0	533	547	315	141	
12	0	0	0	0	551	457	321	154	
13	0	0	0	0	551	395	324	157	
14	0	0	0	0	552	446	327	151	
15	0	0	0	0	536	464	329	159	
0	0	0	0	0	525	447	332	163	
1	0	0	0	0	499	451	331	168	
2	0	0	0	0	484	526	332	176	
3	0	0	0	0	496	585	333	181	
4	0	0	0	0	473	524	337	184	
5	0	0	0	0	491	478	339	190	
6	0	0	0	0	507	560	342	189	
7	0	0	0	0	489	540	346	191	
8	0	0	0	0	500	502	348	192	
9	0	0	0	0	505	496	349	195	
10	0	0	0	0	505	503	354	199	
11	0	0	0	0	518	528	357	212	
12	0	0	0	0	514	555	360	226	
13	0	0	0	0	505	529	362	230	
14	0	0	0	0	546	516	366	236	
15	0	0	0	0	550	521	365	248	
0	0	0	0	0	464	546	368	253	
1	0	0	0	0	421	509	369	259	
2	0	0	0	0	468	488	372	268	
3	0	0	0	0	544	411	374	275	
4	0	0	0	0	567	459	376	279	
5	0	0	0	0	558	470	379	282	
6	0	0	0	0	539	484	380	289	
7	0	0	0	0	505	503	379	302	
8	0	0	0	0	492	550	382	318	
9	0	0	0	0	485	601	380	324	
10	0	0	0	0	497	594	380	324	
11	0	0	0	0	496	508	380	339	
12	0	0	0	0	516	519	382	342	
13	0	0	0	0	518	505	380	347	
14	0	0	0	0	514	492	383	351	
15	0	0	0	0	513	457	382	359	
0	0	0	0	0	516	515	384	362	
1	0	0	0	0	508	607	387	360	
2	0	0	0	0	481	508	388	370	
3	0	0	0	0	477	471	389	373	
4	0	0	0	0	486	506	389	379	
5	0	0	0	0	522	551	391	382	
6	0	0	0	0	534	556	392	384	
7	0	0	0	0	537	481	390	382	
8	0	0	0	0	540	437	391	382	
9	0	0	0	0	534	460	393	382	
10	0	0	0	0	515	487	395	383	
11	0	0	0	0	524	563	395	381	
12	0	0	0	0	445	633	395	378	
13	0	0	0	0	408	648	396	381	
14	0	0	0	0	497	598	399	378	
15	0	0	0	0	545	452	401	374	
0	0	0	0	0	501	391	401	381	
1	0	0	0	0	470	383	403	380	
2	0	0	0	0	516	375	403	382	
3	0	0	0	0	563	393	404	381	
4	0	0	0	0	529	488	407	384	
5	0	0	0	0	472	486	408	382	
6	0	0	0	0	507	492	410	382	
7	0	0	0	0	504	537	412	380	
8	0	0	0	0	518	594	415	376	
9	0	0	0	0	557	619	416	373	
10	0	0	0	0	548	583	418	373	
11	0	0	0	0	616	470	419	375	
12	0	0	0	0	588	425	419	374	
13	0	0	0	0	513	425	419	377	
14	0	0	0	0	438	484	420	375	
15	0	0	0	0	437	599	423	374	
0	0	0	0	0	467	684	424	374	
1	0	0	0	0	496	672	426	375	
2	0	0	0	0	485	533	427	375	
3	0	0	0	0	500	473	429	376	
4	0	0	0	0	491	491	428	376	
5	0	0	0	0	500	470	429	376	
6	0	0	0	0	511	467	431	377	
7	0	0	0	0	495	484	432	380	
8	0	0	0	0	449	503	434	382	
9	0	0	0	0	398	504	433	377	
10	0	0	0	0	431	501	434	385	
11	0	0	0	0	511	527	435	382	
12	0	0	0	0	561	479	435	382	
13	0	0	0	0	606	440	436	387	
14	0	0	0	0	645	460	437	388	
15	0	0	0	0	628	540	437	390	
0	0	0	0	0	556	601	438	388	
1	0	0	0	0	489	561	439	392	
2	0	0	0	0	466	509	439	393	
3	0	0	0	0	468	465	440	393	
4	0	0	0	0	475	472	440	396	
5	0	0	0	0	502	543	441	398	
6	0	0	0	0	494	534	443	396	
7	0	0	0	0	533	474	444	397	
8	0	0	0	0	514	453	443	395	
9	0	0	0	0	485	481	444	397	
10	0	0	0	0	474	512	445	398	
11	0	0	0	0	490	549	446	398	
12	0	0	0	0	500	557	446	398	
13	0	0	0	0	499	540	447	392	
14	0	0	0	0	524	535	449	389	
15	0	0	0	0	536	485	448	389	
0	0	0	0	0	541	513	448	386	
1	0	0	0	0	560	521	448	387	
2	0	0	0	0	495	483	449	384	
3	0	0	0	0	413	449	451	381	
4	0	0	0	0	423	432	451	376	
5	0	0	0	0	479	516	453	375	
6	0	0	0	0	504	588	453	382	
7	0	0	0	0	586	539	454	380	
8	0	0	0	0	626	536	455	378	
9	0	0	0	0	571	519	455	383	
10	0	0	0	0	472	509	456	387	
11	0	0	0	0	438	499	455	386	
12	0	0	0	0	493	485	455	385	
13	0	0	0	0	470	503	457	383	
14	0	0	0	0	478	495	458	381	
15	0	0	0	0	504	515	459	386	
0	0	0	0	0	579	525	460	385	
1	0	0	0	0	575	528	461	382	
2	0	0	0	0	527	556	461	382	
3	0	0	0	0	492	555	462	382	
4	0	0	0	0	480	531	463	376	
5	0	0	0	0	495	482	464	375	
6	0	0	0	0	504	481	464	369	
7	0	0	0	0	527	494	464	366	
8	0	0	0	0	536	519	464	364	
9	0	0	0	0	505	521	465	360	
10	0	0	0	0	492	499	464	359	
11	0	0	0	0	491	500	464	359	
12	0	0	0	0	495	486	464	356	
13	0	0	0	0	485	462	464	354	
14	0	0	0	0	486	456	464	349	
15	0	0	0	0	505	506	465	347	
0	0	0	0	0	498	523	465	349	
1	0	0	0	0	504	516	463	349	
2	0	0	0	0	508	540	463	349	
3	0	0	0	0	507	546	462	350	
4	0	0	0	0	536	531	463	347	
5	0	0	0	0	581	484	462	350	
6	0	0	0	0	572	455	462	347	
7	0	0	0	0	523	492	463	348	
8	0	0	0	0	504	513	462	348	
9	0	0	0	0	491	492	462	349	
10	0	0	0	0	492	514	462	350	
11	0	0	0	0	483	564	462	351	
12	0	0	0	0	479	597	462	353	
13	0	0	0	0	488	560	461	351	
14	0	0	0	0	491	498	462	352	
15	0	0	0	0	497	448	462	355	
0	0	0	0	0	485	369	462	357	
1	0	0	0	0	499	474	462	355	
2	0	0	0	0	517	562	463	351	
3	0	0	0	0	505	590	462	349	
4	0	0	0	0	514	551	463	354	
5	0	0	0	0	528	576	463	352	
6	0	0	0	0	526	584	464	344	
7	0	0	0	0	517	496	464	344	
8	0	0	0	0	495	396	464	342	
9	0	0	0	0	482	408	464	353	
10	0	0	0	0	497	480	464	357	
11	0	0	0	0	520	581	464	363	
12	0	0	0	0	515	537	465	366	
13	0	0	0	0	523	470	463	363	
14	0	0	0	0	551	483	464	363	
15	0	0	0	0	554	509	463	364	
0	0	0	0	0	553	521	463	368	
1	0	0	0	0	518	548	464	369	
2	0	0	0	0	486	547	464	362	
3	0	0	0	0	491	521	465	364	
4	0	0	0	0	509	502	465	362	
5	0	0	0	0	510	483	465	366	
6	0	0	0	0	499	515	465	366	
7	0	0	0	0	502	506	465	368	
8	0	0	0	0	495	544	466	370	
9	0	0	0	0	492	553	465	370	
10	0	0	0	0	475	522	465	372	
11	0	0	0	0	497	512	465	372	
12	0	0	0	0	497	508	464	372	
13	0	0	0	0	511	492	464	374	
14	0	0	0	0	502	497	465	376	
15	0	0	0	0	481	545	464	382	
0	0	0	0	0	450	540	464	389	
1	0	0	0	0	471	478	464	385	
2	0	0	0	0	499	457	463	386	
3	0	0	0	0	546	456	462	383	
4	0	0	0	0	559	453	462	382	
5	0	0	0	0	550	462	461	379	
6	0	0	0	0	554	522	461	382	
7	0	0	0	0	533	560	462	380	
8	0	0	0	0	526	558	460	383	
9	0	0	0	0	498	513	461	380	
10	0	0	0	0	490	479	460	382	
11	0	0	0	0	473	463	459	382	
12	0	0	0	0	509	540	459	384	
13	0	0	0	0	491	604	458	386	
14	0	0	0	0	475	519	457	391	
15	0	0	0	0	493	499	457	394	
0	0	0	0	0	525	498	457	393	
1	0	0	0	0	558	500	454	391	
2	0	0	0	0	549	544	454	393	
3	0	0	0	0	562	523	454	393	
4	0	0	0	0	549	487	452	398	
5	0	0	0	0	523	476	452	396	
6	0	0	0	0	515	503	452	402	
7	0	0	0	0	482	544	454	404	
8	0	0	0	0	472	545	453	406	
9	0	0	0	0	472	532	452	410	
10	0	0	0	0	479	515	451	414	
11	0	0	0	0	496	450	451	416	
12	0	0	0	0	498	472	451	417	
13	0	0	0	0	479	580	451	417	
14	0	0	0	0	460	604	451	417	
15	0	0	0	0	471	546	451	420	
0	0	0	0	0	512	464	451	418	
1	0	0	0	0	522	388	451	417	
2	0	0	0	0	552	452	451	416	
3	0	0	0	0	551	456	450	421	
4	0	0	0	0	526	496	451	423	
5	0	0	0	0	492	531	451	423	
6	0	0	0	0	510	566	450	423	
7	0	0	0	0	508	505	450	421	
8	0	0	0	0	509	591	450	427	
9	0	0	0	0	502	552	450	427	
10	0	0	0	0	514	504	450	426	
11	0	0	0	0	532	475	451	423	
12	0	0	0	0	548	449	451	423	
13	0	0	0	0	533	493	451	422	
14	0	0	0	0	515	548	452	424	
15	0	0	0	0	500	560	452	427	
0	0	0	0	0	482	515	453	423	
1	0	0	0	0	510	494	453	423	
2	0	0	0	0	484	507	454	425	
3	0	0	0	0	488	502	454	428	
4	0	0	0	0	511	525	455	425	
5	0	0	0	0	541	536	455	424	
6	0	0	0	0	528	522	456	425	
7	0	0	0	0	509	489	457	424	
8	0	0	0	0	492	500	457	424	
9	0	0	0	0	485	523	457	426	
10	0	0	0	0	506	551	458	427	
11	0	0	0	0	492	523	459	428	
12	0	0	0	0	510	530	460	424	
13	0	0	0	0	508	544	460	424	
14	0	0	0	0	513	515	460	428	
15	0	0	0	0	515	480	460	428	
0	0	0	0	0	495	445	460	428	
1	0	0	0	0	501	498	459	430	
2	0	0	0	0	522	544	460	432	
3	0	0	0	0	528	514	459	432	
4	0	0	0	0	519	495	460	432	
5	0	0	0	0	519	527	459	430	
6	0	0	0	0	511	466	460	428	
7	0	0	0	0	494	479	460	432	
8	0	0	0	0	492	498	460	430	
9	0	0	0	0	480	538	459	429	
10	0	0	0	0	475	504	459	431	
11	0	0	0	0	488	484	460	432	
12	0	0	0	0	540	508	459	436	
13	0	0	0	0	552	512	459	438	
14	0	0	0	0	537	465	459	440	
15	0	0	0	0	507	499	458	438	
0	0	0	0	0	499	519	459	438	
1	0	0	0	0	503	530	458	439	
2	0	0	0	0	513	527	459	439	
3	0	0	0	0	523	526	458	440	
4	0	0	0	0	543	528	458	440	
5	0	0	0	0	518	520	458	438	
6	0	0	0	0	513	519	457	438	
7	0	0	0	0	518	518	456	438	
8	0	0	0	0	491	503	456	438	
9	0	0	0	0	475	493	456	440	
10	0	0	0	0	462	500	455	441	
11	0	0	0	0	490	524	455	440	
12	0	0	0	0	486	533	455	442	
13	0	0	0	0	523	568	455	441	
14	0	0	0	0	540	529	454	440	
15	0	0	0	0	549	458	453	439	
0	0	0	0	0	513	473	452	448	
1	0	0	0	0	477	504	451	449	
2	0	0	0	0	491	511	451	449	
3	0	0	0	0	511	536	450	449	
4	0	0	0	0	511	532	449	449	
5	0	0	0	0	498	506	449	446	
6	0	0	0	0	525	513	449	446	
7	0	0	0	0	539	519	447	448	
8	0	0	0	0	543	516	444	450	
9	0	0	0	0	521	496	443	448	
10	0	0	0	0	470	499	441	451	
11	0	0	0	0	451	496	441	446	
12	0	0	0	0	472	504	441	448	
13	0	0	0	0	487	521	442	448	
14	0	0	0	0	492	527	441	448	
15	0	0	0	0	487	511	440	449	
0	0	0	0	0	507	519	439	447	
1	0	0	0	0	519	515	437	445	
2	0	0	0	0	561	525	435	444	
3	0	0	0	0	560	516	434	443	
4	0	0	0	0	526	491	433	440	
5	0	0	0	0	489	483	433	440	
6	0	0	0	0	487	516	431	442	
7	0	0	0	0	494	494	430	440	
8	0	0	0	0	506	488	430	441	
9	0	0	0	0	522	507	429	438	
10	0	0	0	0	543	525	429	435	
11	0	0	0	0	535	537	428	432	
12	0	0	0	0	520	533	428	431	
13	0	0	0	0	512	529	427	430	
14	0	0	0	0	512	517	427	429	
15	0	0	0	0	503	512	425	430	
0	0	0	0	0	500	515	423	430	
1	0	0	0	0	502	507	423	424	
2	0	0	0	0	495	510	423	428	
3	0	0	0	0	499	514	423	427	
4	0	0	0	0	500	489	423	426	
5	0	0	0	0	508	491	423	421	
6	0	0	0	0	500	494	423	420	
7	0	0	0	0	504	496	422	423	
8	0	0	0	0	502	506	422	423	
9	0	0	0	0	494	499	422	422	
10	0	0	0	0	500	495	422	423	
11	0	0	0	0	521	507	421	423	
12	0	0	0	0	535	530	421	420	
13	0	0	0	0	529	516	420	416	
14	0	0	0	0	524	515	421	410	
15	0	0	0	0	525	518	419	409	
0	0	0	0	0	500	520	419	409	
1	0	0	0	0	496	524	419	409	
2	0	0	0	0	512	517	419	408	
3	0	0	0	0	511	520	419	408	
4	0	0	0	0	500	508	419	409	
5	0	0	0	0	516	502	419	412	
6	0	0	0	0	508	480	418	412	
7	0	0	0	0	502	511	418	410	
8	0	0	0	0	498	543	419	409	
9	0	0	0	0	498	554	418	407	
10	0	0	0	0	487	536	418	406	
11	0	0	0	0	483	493	419	406	
12	0	0	0	0	502	504	418	407	
13	0	0	0	0	517	500	418	411	
14	0	0	0	0	501	492	418	409	
15	0	0	0	0	506	475	418	409	
0	0	0	0	0	527	493	417	408	
1	0	0	0	0	537	504	418	405	
2	0	0	0	0	547	516	418	406	
3	0	0	0	0	527	521	418	408	
4	0	0	0	0	496	512	418	405	
5	0	0	0	0	505	488	417	404	
6	0	0	0	0	528	510	418	407	
7	0	0	0	0	522	534	417	406	
8	0	0	0	0	499	511	418	409	
9	0	0	0	0	479	489	418	410	
10	0	0	0	0	484	496	417	409	
11	0	0	0	0	473	492	418	407	
12	0	0	0	0	482	520	417	410	
13	0	0	0	0	506	532	418	419	
14	0	0	0	0	536	565	418	422	
15	0	0	0	0	530	547	418	422	
0	0	0	0	0	520	518	419	423	
1	0	0	0	0	513	476	418	417	
2	0	0	0	0	480	458	418	420	
3	0	0	0	0	496	473	418	418	
4	0	0	0	0	505	484	417	422	
5	0	0	0	0	524	527	416	423	
6	0	0	0	0	495	535	417	427	
7	0	0	0	0	483	523	417	427	
8	0	0	0	0	505	513	417	430	
9	0	0	0	0	536	523	417	426	
10	0	0	0	0	577	518	417	426	
11	0	0	0	0	561	519	417	427	
12	0	0	0	0	539	521	417	425	
13	0	0	0	0	491	523	417	423	
14	0	0	0	0	476	515	417	423	
15	0	0	0	0	491	526	417	423	
0	0	0	0	0	485	504	417	421	
1	0	0	0	0	488	492	416	423	
2	0	0	0	0	489	508	416	422	
3	0	0	0	0	496	519	416	423	
4	0	0	0	0	500	493	416	423	
5	0	0	0	0	508	495	415	427	
6	0	0	0	0	508	501	416	424	
7	0	0	0	0	535	504	415	425	
8	0	0	0	0	540	511	413	428	
9	0	0	0	0	513	515	413	425	
10	0	0	0	0	505	524	413	424	
11	0	0	0	0	521	531	412	427	
12	0	0	0	0	518	542	413	429	
13	0	0	0	0	501	529	413	430	
14	0	0	0	0	497	480	413	429	
15	0	0	0	0	496	484	413	429	
0	0	0	0	0	494	509	412	428	
1	0	0	0	0	492	504	413	429	
2	0	0	0	0	487	530	413	428	
3	0	0	0	0	499	552	413	428	
4	0	0	0	0	521	529	413	429	
5	0	0	0	0	500	520	413	430	
6	0	0	0	0	513	451	412	429	
7	0	0	0	0	541	495	413	428	
8	0	0	0	0	525	489	413	431	
9	0	0	0	0	496	488	413	430	
10	0	0	0	0	502	493	413	430	
11	0	0	0	0	511	513	414	429	
12	0	0	0	0	507	517	414	428	
13	0	0	0	0	504	520	414	428	
14	0	0	0	0	504	505	414	427	
15	0	0	0	0	521	505	413	425	
0	0	0	0	0	525	519	414	427	
1	0	0	0	0	515	530	413	427	
2	0	0	0	0	499	525	414	427	
3	0	0	0	0	481	519	414	427	
4	0	0	0	0	499	518	414	428	
5	0	0	0	0	513	527	414	428	
6	0	0	0	0	516	534	413	427	
7	0	0	0	0	516	518	414	428	
8	0	0	0	0	529	511	414	429	
9	0	0	0	0	527	481	414	429	
10	0	0	0	0	505	467	414	431	
11	0	0	0	0	488	492	415	433	
12	0	0	0	0	483	510	414	434	
13	0	0	0	0	502	507	413	436	
14	0	0	0	0	512	500	413	436	
15	0	0	0	0	516	508	413	437	
0	0	0	0	0	525	547	413	437	
1	0	0	0	0	521	535	412	435	
2	0	0	0	0	518	541	411	435	
3	0	0	0	0	499	532	411	433	
4	0	0	0	0	499	489	410	431	
5	0	0	0	0	499	463	408	431	
6	0	0	0	0	504	480	409	429	
7	0	0	0	0	499	504	409	429	
8	0	0	0	0	515	513	407	429	
9	0	0	0	0	516	512	407	427	
10	0	0	0	0	520	516	407	427	
11	0	0	0	0	503	515	403	428	
12	0	0	0	0	495	500	404	427	
13	0	0	0	0	498	502	405	428	
14	0	0	0	0	488	529	405	427	
15	0	0	0	0	496	533	404	427	
0	0	0	0	0	519	517	405	427	
1	0	0	0	0	522	526	403	425	
2	0	0	0	0	501	519	401	426	
3	0	0	0	0	522	515	403	426	
4	0	0	0	0	559	500	403	425	
5	0	0	0	0	538	485	402	428	
6	0	0	0	0	492	504	402	428	
7	0	0	0	0	506	497	400	428	
8	0	0	0	0	515	481	398	428	
9	0	0	0	0	519	492	397	427	
10	0	0	0	0	533	527	396	428	
11	0	0	0	0	502	545	394	427	
12	0	0	0	0	486	542	391	428	
13	0	0	0	0	467	527	391	428	
14	0	0	0	0	477	505	391	429	
15	0	0	0	0	496	499	391	428	
0	0	0	0	0	499	500	388	429	
1	0	0	0	0	515	500	387	429	
2	0	0	0	0	522	507	388	429	
3	0	0	0	0	521	496	387	431	
4	0	0	0	0	524	516	387	431	
5	0	0	0	0	511	519	387	431	
6	0	0	0	0	519	505	386	431	
7	0	0	0	0	504	499	386	433	
8	0	0	0	0	519	504	385	434	
9	0	0	0	0	509	527	386	435	
10	0	0	0	0	518	528	385	434	
11	0	0	0	0	502	518	385	434	
12	0	0	0	0	506	520	385	434	
13	0	0	0	0	517	514	383	434	
14	0	0	0	0	484	513	384	435	
15	0	0	0	0	454	507	384	435	
0	0	0	0	0	487	491	385	434	
1	0	0	0	0	502	516	384	435	
2	0	0	0	0	509	524	385	435	
3	0	0	0	0	531	526	384	433	
4	0	0	0	0	529	532	383	436	
5	0	0	0	0	516	526	383	437	
6	0	0	0	0	496	533	384	435	
7	0	0	0	0	505	502	383	436	
8	0	0	0	0	516	497	384	437	
9	0	0	0	0	523	479	384	437	
10	0	0	0	0	537	480	384	437	
11	0	0	0	0	545	489	384	439	
12	0	0	0	0	519	486	385	440	
13	0	0	0	0	497	483	384	439	
14	0	0	0	0	499	511	386	438	
15	0	0	0	0	511	523	385	438	
0	0	0	0	0	523	525	385	437	
1	0	0	0	0	508	515	384	437	
2	0	0	0	0	504	517	385	436	
3	0	0	0	0	495	490	386	437	
4	0	0	0	0	506	499	386	436	
5	0	0	0	0	500	521	385	436	
6	0	0	0	0	483	541	386	435	
7	0	0	0	0	480	540	386	435	
8	0	0	0	0	502	547	387	434	
9	0	0	0	0	508	563	387	434	
10	0	0	0	0	518	501	386	435	
11	0	0	0	0	536	457	386	436	
12	0	0	0	0	527	473	387	434	
13	0	0	0	0	499	432	387	434	
14	0	0	0	0	506	462	387	433	
15	0	0	0	0	521	502	387	433	
0	0	0	0	0	508	563	387	429	
1	0	0	0	0	504	579	388	426	
2	0	0	0	0	507	555	388	428	
3	0	0	0	0	512	515	388	427	
4	0	0	0	0	515	518	388	426	
5	0	0	0	0	497	512	388	426	
6	0	0	0	0	508	539	389	425	
7	0	0	0	0	521	545	390	424	
8	0	0	0	0	508	513	390	424	
9	0	0	0	0	515	470	390	423	
10	0	0	0	0	505	471	390	423	
11	0	0	0	0	504	466	389	423	
12	0	0	0	0	506	469	389	423	
13	0	0	0	0	497	492	389	424	
14	0	0	0	0	482	524	389	425	
15	0	0	0	0	490	530	389	425	
0	0	0	0	0	505	519	389	427	
1	0	0	0	0	502	500	390	425	
2	0	0	0	0	506	514	390	425	
3	0	0	0	0	512	514	390	425	
4	0	0	0	0	516	519	389	425	
5	0	0	0	0	515	525	389	424	
6	0	0	0	0	511	518	390	424	
7	0	0	0	0	522	507	388	425	
8	0	0	0	0	519	517	388	425	
9	0	0	0	0	535	537	389	425	
10	0	0	0	0	540	535	388	425	
11	0	0	0	0	512	515	388	425	
12	0	0	0	0	505	507	387	426	
13	0	0	0	0	516	495	388	426	
14	0	0	0	0	479	482	386	427	
15	0	0	0	0	483	484	385	427	
0	0	0	0	0	507	513	386	427	
1	0	0	0	0	502	534	386	428	
2	0	0	0	0	513	528	387	427	
3	0	0	0	0	518	512	385	427	
4	0	0	0	0	511	495	386	427	
5	0	0	0	0	493	489	385	427	
6	0	0	0	0	480	508	385	428	
7	0	0	0	0	501	521	384	427	
8	0	0	0	0	503	519	384	427	
9	0	0	0	0	500	509	384	427	
10	0	0	0	0	527	509	383	428	
11	0	0	0	0	546	499	383	426	
12	0	0	0	0	570	510	383	427	
13	0	0	0	0	523	525	383	426	
14	0	0	0	0	506	542	383	425	
15	0	0	0	0	505	526	381	425	
0	0	0	0	0	506	502	382	425	
1	0	0	0	0	496	484	382	425	
2	0	0	0	0	500	491	382	426	
3	0	0	0	0	493	511	382	425	
4	0	0	0	0	484	524	383	427	
5	0	0	0	0	496	509	382	426	
6	0	0	0	0	490	510	382	425	
7	0	0	0	0	476	516	382	425	
8	0	0	0	0	487	528	382	425	
9	0	0	0	0	518	533	381	425	
10	0	0	0	0	520	520	381	425	
11	0	0	0	0	524	497	380	426	
12	0	0	0	0	522	483	382	425	
13	0	0	0	0	516	470	381	426	
14	0	0	0	0	521	483	380	426	
15	0	0	0	0	521	529	381	426	
0	0	0	0	0	524	541	380	423	
1	0	0	0	0	523	531	380	422	
2	0	0	0	0	493	536	379	421	
3	0	0	0	0	493	522	379	419	
4	0	0	0	0	503	499	380	419	
5	0	0	0	0	502	475	379	418	
6	0	0	0	0	502	451	379	419	
7	0	0	0	0	519	484	380	418	
8	0	0	0	0	532	542	379	419	
9	0	0	0	0	528	530	379	420	
10	0	0	0	0	525	516	379	419	
11	0	0	0	0	510	514	378	418	
12	0	0	0	0	497	508	378	417	
13	0	0	0	0	497	507	378	418	
14	0	0	0	0	497	513	379	418	
15	0	0	0	0	503	519	379	419	
0	0	0	0	0	513	518	378	419	
1	0	0	0	0	507	517	378	420	
2	0	0	0	0	499	517	378	420	
3	0	0	0	0	504	514	377	420	
4	0	0	0	0	515	514	379	420	
5	0	0	0	0	521	514	377	421	
6	0	0	0	0	518	525	378	421	
7	0	0	0	0	495	522	378	420	
8	0	0	0	0	488	510	379	422	
9	0	0	0	0	489	498	378	420	
10	0	0	0	0	509	504	378	420	
11	0	0	0	0	519	511	378	420	
12	0	0	0	0	529	499	378	420	
13	0	0	0	0	534	489	377	422	
14	0	0	0	0	511	491	378	424	
15	0	0	0	0	508	495	377	423	
0	0	0	0	0	502	500	378	422	
1	0	0	0	0	504	537	377	422	
2	0	0	0	0	495	543	377	423	
3	0	0	0	0	497	520	377	422	
4	0	0	0	0	512	507	378	423	
5	0	0	0	0	496	515	376	424	
6	0	0	0	0	510	496	377	423	
7	0	0	0	0	512	480	376	424	
8	0	0	0	0	521	513	376	425	
9	0	0	0	0	505	532	376	423	
10	0	0	0	0	496	528	375	422	
11	0	0	0	0	505	513	374	423	
12	0	0	0	0	517	482	373	423	
13	0	0	0	0	538	483	372	422	
14	0	0	0	0	538	524	371	419	
15	0	0	0	0	505	521	371	419	
0	0	0	0	0	487	499	370	418	
1	0	0	0	0	486	511	369	418	
2	0	0	0	0	482	519	370	416	
3	0	0	0	0	487	515	369	414	
4	0	0	0	0	461	513	369	414	
5	0	0	0	0	477	506	368	413	
6	0	0	0	0	518	507	367	412	
7	0	0	0	0	531	513	367	412	
8	0	0	0	0	551	522	367	409	
9	0	0	0	0	581	523	366	408	
10	0	0	0	0	588	517	367	408	
11	0	0	0	0	548	520	367	411	
12	0	0	0	0	495	508	366	408	
13	0	0	0	0	493	516	365	407	
14	0	0	0	0	496	524	365	405	
15	0	0	0	0	499	522	364	405	
0	0	0	0	0	479	497	364	402	
1	0	0	0	0	449	479	363	402	
2	0	0	0	0	461	485	363	399	
3	0	0	0	0	486	489	363	398	
4	0	0	0	0	498	523	361	399	
5	0	0	0	0	506	529	362	400	
6	0	0	0	0	522	528	363	400	
7	0	0	0	0	525	487	361	398	
8	0	0	0	0	516	486	362	396	
9	0	0	0	0	510	511	362	396	
10	0	0	0	0	510	511	361	395	
11	0	0	0	0	500	514	361	395	
12	0	0	0	0	497	519	361	393	
13	0	0	0	0	509	515	362	395	
14	0	0	0	0	518	514	360	393	
15	0	0	0	0	531	517	360	396	
0	0	0	0	0	536	518	361	393	
1	0	0	0	0	528	512	363	393	
2	0	0	0	0	541	514	362	393	
3	0	0	0	0	517	524	361	392	
4	0	0	0	0	503	519	361	393	
5	0	0	0	0	498	513	360	395	
6	0	0	0	0	496	504	361	395	
7	0	0	0	0	496	505	361	396	
8	0	0	0	0	500	504	361	395	
9	0	0	0	0	498	505	360	393	
10	0	0	0	0	497	508	361	392	
11	0	0	0	0	500	512	360	391	
12	0	0	0	0	512	512	360	391	
13	0	0	0	0	509	513	359	392	
14	0	0	0	0	513	513	360	390	
15	0	0	0	0	513	514	360	389	
0	0	0	0	0	505	507	359	391	
1	0	0	0	0	513	504	359	391	
2	0	0	0	0	516	509	359	389	
3	0	0	0	0	513	506	359	390	
4	0	0	0	0	514	501	359	392	
5	0	0	0	0	506	504	359	391	
6	0	0	0	0	508	510	358	392	
7	0	0	0	0	510	511	358	393	
8	0	0	0	0	513	512	358	393	
9	0	0	0	0	493	520	356	395	
10	0	0	0	0	485	527	356	395	
11	0	0	0	0	485	523	357	396	
12	0	0	0	0	491	517	356	396	
13	0	0	0	0	510	519	356	395	
14	0	0	0	0	520	525	355	395	
15	0	0	0	0	516	515	356	395	
0	0	0	0	0	535	504	356	396	
1	0	0	0	0	534	486	357	396	
2	0	0	0	0	527	486	356	394	
3	0	0	0	0	522	504	355	394	
4	0	0	0	0	504	506	356	394	
5	0	0	0	0	515	494	355	396	
6	0	0	0	0	517	495	356	396	
7	0	0	0	0	499	504	355	395	
8	0	0	0	0	488	511	355	396	
9	0	0	0	0	497	516	354	396	
10	0	0	0	0	504	518	355	396	
11	0	0	0	0	506	521	355	395	
12	0	0	0	0	512	526	353	393	
13	0	0	0	0	500	524	355	391	
14	0	0	0	0	503	519	355	390	
15	0	0	0	0	518	519	354	388	
0	0	0	0	0	531	515	352	387	
1	0	0	0	0	512	507	353	388	
2	0	0	0	0	497	503	352	381	
3	0	0	0	0	494	497	351	379	
4	0	0	0	0	486	505	353	376	
5	0	0	0	0	493	506	352	375	
6	0	0	0	0	500	502	349	371	
7	0	0	0	0	531	515	349	367	
8	0	0	0	0	528	527	351	365	
9	0	0	0	0	515	529	349	363	
10	0	0	0	0	497	518	348	361	
11	0	0	0	0	489	514	348	356	
12	0	0	0	0	499	523	347	341	
13	0	0	0	0	508	530	346	335	
14	0	0	0	0	487	530	347	332	
15	0	0	0	0	499	506	346	327	
0	0	0	0	0	545	496	345	318	
1	0	0	0	0	534	511	348	315	
2	0	0	0	0	514	525	349	306	
3	0	0	0	0	493	512	348	295	
4	0	0	0	0	504	488	347	289	
5	0	0	0	0	531	466	349	286	
6	0	0	0	0	552	467	352	280	
7	0	0	0	0	541	487	352	285	
8	0	0	0	0	509	509	352	279	
9	0	0	0	0	472	519	354	271	
10	0	0	0	0	460	521	353	273	
11	0	0	0	0	469	520	355	270	
12	0	0	0	0	504	511	358	271	
13	0	0	0	0	524	507	355	267	
14	0	0	0	0	524	501	358	266	
15	0	0	0	0	517	494	359	264	
0	0	0	0	0	521	526	360	260	
1	0	0	0	0	525	538	362	257	
2	0	0	0	0	518	536	364	259	
3	0	0	0	0	531	536	365	261	
4	0	0	0	0	497	523	364	261	
5	0	0	0	0	497	509	364	259	
6	0	0	0	0	475	501	362	258	
7	0	0	0	0	460	519	365	260	
8	0	0	0	0	470	515	366	259	
9	0	0	0	0	480	511	371	259	
10	0	0	0	0	509	503	374	262	
11	0	0	0	0	560	492	376	263	
12	0	0	0	0	569	486	379	264	
13	0	0	0	0	560	481	379	258	
14	0	0	0	0	543	482	382	259	
15	0	0	0	0	504	489	384	255	
0	0	0	0	0	477	499	390	256	
1	0	0	0	0	487	511	389	256	
2	0	0	0	0	505	518	391	253	
3	0	0	0	0	527	521	391	255	
4	0	0	0	0	510	523	391	255	
5	0	0	0	0	508	520	393	253	
6	0	0	0	0	492	518	396	249	
7	0	0	0	0	495	516	395	248	
8	0	0	0	0	510	518	393	248	
9	0	0	0	0	509	518	394	250	
10	0	0	0	0	501	515	395	248	
11	0	0	0	0	496	512	396	245	
12	0	0	0	0	494	515	397	242	
13	0	0	0	0	516	518	399	240	
14	0	0	0	0	515	515	398	232	
15	0	0	0	0	508	513	399	234	
0	0	0	0	0	507	519	401	234	
1	0	0	0	0	513	522	401	232	
2	0	0	0	0	515	516	400	229	
3	0	0	0	0	506	515	401	227	
4	0	0	0	0	499	510	402	226	
5	0	0	0	0	503	502	402	224	
6	0	0	0	0	511	502	403	221	
7	0	0	0	0	520	497	403	220	
8	0	0	0	0	529	501	402	219	
9	0	0	0	0	514	513	403	214	
10	0	0	0	0	507	515	405	208	
11	0	0	0	0	507	516	406	206	
12	0	0	0	0	501	515	406	202	
13	0	0	0	0	497	513	407	204	
14	0	0	0	0	503	511	406	204	
15	0	0	0	0	512	506	405	199	
0	0	0	0	0	510	505	405	196	
1	0	0	0	0	511	506	406	191	
2	0	0	0	0	506	503	406	190	
3	0	0	0	0	504	513	406	191	
4	0	0	0	0	504	513	405	188	
5	0	0	0	0	509	514	405	189	
6	0	0	0	0	505	513	405	188	
7	0	0	0	0	506	502	405	184	
8	0	0	0	0	509	508	405	179	
9	0	0	0	0	512	511	404	175	
10	0	0	0	0	513	508	404	169	
11	0	0	0	0	513	508	402	169	
12	0	0	0	0	511	510	402	168	
13	0	0	0	0	511	509	400	168	
14	0	0	0	0	511	512	399	167	
15	0	0	0	0	512	513	398	163	
0	0	0	0	0	509	512	396	154	
1	0	0	0	0	504	511	395	152	
2	0	0	0	0	506	511	394	148	
3	0	0	0	0	504	511	393	148	
4	0	0	0	0	507	509	393	151	
5	0	0	0	0	507	511	391	151	
6	0	0	0	0	509	512	391	152	
7	0	0	0	0	503	520	391	150	
8	0	0	0	0	502	519	389	148	
9	0	0	0	0	507	517	387	149	
10	0	0	0	0	505	511	387	152	
11	0	0	0	0	509	508	385	147	
12	0	0	0	0	507	502	384	147	
13	0	0	0	0	511	500	380	141	
14	0	0	0	0	513	504	376	141	
15	0	0	0	0	516	501	374	141	
0	0	0	0	0	513	505	370	140	
1	0	0	0	0	515	511	367	139	
2	0	0	0	0	514	513	364	137	
3	0	0	0	0	521	511	361	137	
4	0	0	0	0	517	511	355	132	
5	0	0	0	0	505	513	355	132	
6	0	0	0	0	502	512	352	131	
7	0	0	0	0	502	511	350	127	
8	0	0	0	0	503	513	350	126	
9	0	0	0	0	502	512	347	125	
10	0	0	0	0	504	512	344	127	
11	0	0	0	0	501	511	341	123	
12	0	0	0	0	508	510	338	120	
13	0	0	0	0	507	511	335	119	
14	0	0	0	0	509	510	334	121	
15	0	0	0	0	511	511	333	118	
0	0	0	0	0	512	511	333	116	
1	0	0	0	0	512	512	327	116	
2	0	0	0	0	512	512	325	116	
3	0	0	0	0	514	512	322	113	
4	0	0	0	0	513	512	321	114	
5	0	0	0	0	511	511	317	113	
6	0	0	0	0	511	510	312	110	
7	0	0	0	0	510	512	308	108	
8	0	0	0	0	509	510	306	104	
9	0	0	0	0	507	508	305	100	
10	0	0	0	0	505	511	303	98	
11	0	0	0	0	504	510	300	97	
12	0	0	0	0	504	508	299	95	
13	0	0	0	0	504	510	294	94	
14	0	0	0	0	500	509	294	94	
15	0	0	0	0	503	509	293	94	
0	0	0	0	0	505	512	291	90	
1	0	0	0	0	508	511	286	89	
2	0	0	0	0	510	510	286	87	
3	0	0	0	0	512	508	283	86	
4	0	0	0	0	510	510	282	79	
5	0	0	0	0	511	510	280	81	
6	0	0	0	0	516	513	278	79	
7	0	0	0	0	516	512	275	78	
8	0	0	0	0	515	509	271	75	
9	0	0	0	0	516	510	266	75	
10	0	0	0	0	512	511	263	75	
11	0	0	0	0	509	511	244	73	
12	0	0	0	0	507	511	226	73	
13	0	0	0	0	502	510	223	71	
14	0	0	0	0	502	511	220	71	
15	0	0	0	0	505	508	219	75	
0	0	0	0	0	506	511	218	77	
1	0	0	0	0	506	509	216	70	
2	0	0	0	0	505	511	216	71	
3	0	0	0	0	503	512	215	65	
4	0	0	0	0	501	512	216	64	
5	0	0	0	0	501	510	215	61	
6	0	0	0	0	504	507	215	60	
7	0	0	0	0	508	511	212	53	
8	0	0	0	0	514	511	212	44	
9	0	0	0	0	515	510	209	41	
10	0	0	0	0	521	510	210	41	
11	0	0	0	0	516	510	209	41	
12	0	0	0	0	513	512	210	41	
13	0	0	0	0	515	511	206	35	
14	0	0	0	0	512	510	205	29	
15	0	0	0	0	510	511	204	19	
0	0	0	0	0	503	510	202	8	
1	0	0	0	0	500	508	201	0	
2	0	0	0	0	505	510	200	0	
3	0	0	0	0	506	509	201	0	
4	0	0	0	0	507	512	199	0	
5	0	0	0	0	509	513	199	0	
6	0	0	0	0	506	511	199	0	
7	0	0	0	0	506	512	194	0	
8	0	0	0	0	507	512	190	0	
9	0	0	0	0	500	510	189	0	
10	0	0	0	0	505	508	183	0	
11	0	0	0	0	515	510	181	0	
12	0	0	0	0	516	512	176	0	
13	0	0	0	0	512	511	173	0	
14	0	0	0	0	508	511	171	0	
15	0	0	0	0	512	510	170	0	
0	0	0	0	0	514	511	169	0	
1	0	0	0	0	512	511	169	0	
2	0	0	0	0	513	511	168	0	
3	0	0	0	0	511	511	159	0	
4	0	0	0	0	508	513	152	0	
5	0	0	0	0	508	515	145	0	
6	0	0	0	0	504	510	142	0	
7	0	0	0	0	503	509	141	0	
8	0	0	0	0	502	511	135	0	
9	0	0	0	0	504	508	130	0	
10	0	0	0	0	508	508	126	0	
11	0	0	0	0	504	510	121	0	
12	0	0	0	0	504	510	121	0	
13	0	0	0	0	504	509	117	0	
14	0	0	0	0	511	511	112	0	
15	0	0	0	0	511	511	111	0	
0	0	0	0	0	512	514	103	0	
1	0	0	0	0	511	513	98	0	
2	0	0	0	0	513	514	96	0	
3	0	0	0	0	516	512	96	0	
4	0	0	0	0	515	511	95	0	
5	0	0	0	0	514	512	91	0	
6	0	0	0	0	512	511	91	0	
7	0	0	0	0	510	508	86	0	
8	0	0	0	0	510	509	81	0	
9	0	0	0	0	501	509	76	0	
10	0	0	0	0	500	509	77	0	
11	0	0	0	0	500	510	76	0	
12	0	0	0	0	503	508	74	0	
13	0	0	0	0	507	509	74	0	
14	0	0	0	0	507	510	73	0	
15	0	0	0	0	504	509	72	0	
0	0	0	0	0	505	510	71	0	
1	0	0	0	0	507	511	72	0	
2	0	0	0	0	511	508	71	0	
3	0	0	0	0	515	511	73	0	
4	0	0	0	0	515	508	73	0	
5	0	0	0	0	515	510	73	0	
6	0	0	0	0	515	509	74	0	
7	0	0	0	0	514	512	73	0	
8	0	0	0	0	512	510	73	0	
9	0	0	0	0	512	509	70	0	
10	0	0	0	0	510	510	71	0	
11	0	0	0	0	508	509	70	0	
12	0	0	0	0	506	509	71	0	
13	0	0	0	0	503	512	71	0	
14	0	0	0	0	503	511	71	0	
15	0	0	0	0	506	510	71	0	
0	0	0	0	0	504	509	70	0	
1	0	0	0	0	504	510	70	0	
2	0	0	0	0	506	510	69	0	
3	0	0	0	0	505	509	68	0	
4	0	0	0	0	506	511	69	0	
5	0	0	0	0	506	512	68	0	
6	0	0	0	0	508	511	69	0	
7	0	0	0	0	509	512	67	0	
8	0	0	0	0	511	511	67	0	
9	0	0	0	0	511	510	66	0	
10	0	0	0	0	513	512	65	0	
11	0	0	0	0	514	511	64	0	
12	0	0	0	0	516	510	62	0	
13	0	0	0	0	514	512	62	0	
14	0	0	0	0	510	512	61	0	
15	0	0	0	0	512	511	59	0	
0	0	0	0	0	512	509	59	0	
1	0	0	0	0	508	509	58	0	
2	0	0	0	0	505	510	58	0	
3	0	0	0	0	506	510	55	0	
4	0	0	0	0	506	511	54	0	
5	0	0	0	0	503	510	53	0	
6	0	0	0	0	505	513	52	0	
7	0	0	0	0	505	511	51	0	
8	0	0	0	0	503	512	50	0	
9	0	0	0	0	507	510	48	0	
10	0	0	0	0	505	510	47	0	
11	0	0	0	0	505	510	48	0	
12	0	0	0	0	509	512	46	0	
13	0	0	0	0	511	509	44	0	
14	0	0	0	0	514	509	43	0	
15	0	0	0	0	513	509	41	0	
0	0	0	0	0	511	510	39	0	
1	0	0	0	0	507	508	37	0	
2	0	0	0	0	515	511	37	0	
3	0	0	0	0	516	513	36	0	
4	0	0	0	0	508	511	35	0	
5	0	0	0	0	507	508	34	0	
6	0	0	0	0	507	510	34	0	
7	0	0	0	0	506	510	33	0	
8	0	0	0	0	506	508	32	0	
9	0	0	0	0	502	510	32	0	
10	0	0	0	0	499	512	29	0	
11	0	0	0	0	496	513	27	0	
12	0	0	0	0	498	511	23	0	
13	0	0	0	0	509	510	17	0	
14	0	0	0	0	511	511	7	0	
15	0	0	0	0	517	508	0	0	
0	0	0	0	0	518	512	0	0	
1	0	0	0	0	517	511	0	0	
2	0	0	0	0	515	510	0	0	
3	0	0	0	0	514	511	0	0	
4	0	0	0	0	514	512	0	0	
5	0	0	0	0	512	508	0	0	
6	0	0	0	0	511	510	0	0	
7	0	0	0	0	510	511	0	0	
8	0	0	0	0	509	512	0	0	
9	0	0	0	0	507	513	0	0	
10	0	0	0	0	503	513	0	0	
11	0	0	0	0	501	512	0	0	
12	0	0	0	0	503	509	0	0	
13	0	0	0	0	506	510	0	0	
14	0	0	0	0	507	509	0	0	
15	0	0	0	0	507	510	0	0	
0	0	0	0	0	507	510	0	0	
1	0	0	0	0	507	512	0	0	
2	0	0	0	0	508	511	0	0	
3	0	0	0	0	508	511	0	0	
4	0	0	0	0	510	510	0	0	
5	0	0	0	0	511	510	0	0	
6	0	0	0	0	509	510	0	0	
7	0	0	0	0	511	510	0	0	
8	0	0	0	0	510	512	0	0	
9	0	0	0	0	513	511	0	0	
10	0	0	0	0	511	514	0	0	
11	0	0	0	0	515	511	0	0	
12	0	0	0	0	515	509	0	0	
13	0	0	0	0	509	507	0	0	
14	0	0	0	0	504	510	0	0	
15	0	0	0	0	504	510	0	0	
0	0	0	0	0	504	512	0	0	
1	0	0	0	0	505	513	0	0	
2	0	0	0	0	507	510	0	0	
3	0	0	0	0	505	512	0	0	
4	0	0	0	0	503	511	0	0	
5	0	0	0	0	505	511	0	0	
6	0	0	0	0	505	511	0	0	
7	0	0	0	0	511	512	0	0	
8	0	0	0	0	515	512	0	0	
9	0	0	0	0	509	508	0	0	
10	0	0	0	0	514	509	0	0	
11	0	0	0	0	514	511	0	0	
12	0	0	0	0	515	511	0	0	
13	0	0	0	0	513	513	0	0	
14	0	0	0	0	512	512	0	0	
15	0	0	0	0	511	510	0	0	
0	0	0	0	0	509	509	0	0	
1	0	0	0	0	507	512	0	0	
2	0	0	0	0	504	510	0	0	
3	0	0	0	0	503	512	0	0	
4	0	0	0	0	504	512	0	0	
5	0	0	0	0	503	511	0	0	
6	0	0	0	0	503	511	0	0	
7	0	0	0	0	498	509	0	0	
8	0	0	0	0	505	505	0	0	
9	0	0	0	0	508	507	0	0	
10	0	0	0	0	508	508	0	0	
11	0	0	0	0	512	510	0	0	
12	0	0	0	0	512	509	0	0	
13	0	0	0	0	512	511	0	0	
14	0	0	0	0	512	511	0	0	
15	0	0	0	0	514	511	0	0	
0	0	0	0	0	516	512	0	0	
1	0	0	0	0	513	511	0	0	
2	0	0	0	0	512	511	0	0	
3	0	0	0	0	511	514	0	0	
4	0	0	0	0	508	512	0	0	
5	0	0	0	0	509	512	0	0	
6	0	0	0	0	504	510	0	0	
7	0	0	0	0	505	511	0	0	
8	0	0	0	0	504	510	0	0	
9	0	0	0	0	501	510	0	0	
10	0	0	0	0	504	509	0	0	
11	0	0	0	0	505	510	0	0	
12	0	0	0	0	506	509	0	0	
13	0	0	0	0	510	511	0	0	
14	0	0	0	0	510	511	0	0	
15	0	0	0	0	509	510	0	0	
0	0	0	0	0	511	510	0	0	
1	0	0	0	0	510	509	0	0	
2	0	0	0	0	513	508	0	0	
3	0	0	0	0	515	511	0	0	
4	0	0	0	0	514	513	0	0	
5	0	0	0	0	513	513	0	0	
6	0	0	0	0	511	513	0	0	
7	0	0	0	0	511	512	0	0	
8	0	0	0	0	506	510	0	0	
9	0	0	0	0	504	510	0	0	
10	0	0	0	0	505	508	0	0	
11	0	0	0	0	504	510	0	0	
12	0	0	0	0	504	508	0	0	
13	0	0	0	0	503	507	0	0	
14	0	0	0	0	505	509	0	0	
15	0	0	0	0	506	506	0	0	
0	0	0	0	0	506	508	0	0	
1	0	0	0	0	508	511	0	0	
2	0	0	0	0	506	513	0	0	
3	0	0	0	0	508	514	0	0	
4	0	0	0	0	512	513	0	0	
5	0	0	0	0	514	511	0	0	
6	0	0	0	0	515	512	0	0	
7	0	0	0	0	514	512	0	0	
8	0	0	0	0	515	512	0	0	
9	0	0	0	0	511	510	0	0	
10	0	0	0	0	509	508	0	0	
11	0	0	0	0	510	513	0	0	
12	0	0	0	0	510	515	0	0	
13	0	0	0	0	508	512	0	0	
14	0	0	0	0	504	511	0	0	
15	0	0	0	0	504	508	0	0	
0	0	0	0	0	503	512	0	0	
1	0	0	0	0	504	508	0	0	
2	0	0	0	0	505	511	0	0	
3	0	0	0	0	504	511	0	0	
4	0	0	0	0	504	510	0	0	
5	0	0	0	0	507	509	0	0	
6	0	0	0	0	510	510	0	0	
7	0	0	0	0	511	511	0	0	
8	0	0	0	0	511	510	0	0	
9	0	0	0	0	511	510	0	0	
10	0	0	0	0	514	509	0	0	
11	0	0	0	0	511	512	0	0	
12	0	0	0	0	512	511	0	0	
13	0	0	0	0	508	510	0	0	
14	0	0	0	0	514	508	0	0	
15	0	0	0	0	512	510	0	0	
0	0	0	0	0	510	510	0	0	
1	0	0	0	0	508	510	0	0	
2	0	0	0	0	503	510	0	0	
3	0	0	0	0	504	510	0	0	
4	0	0	0	0	505	511	0	0	
5	0	0	0	0	506	510	0	0	
6	0	0	0	0	507	511	0	0	
7	0	0	0	0	504	513	0	0	
8	0	0	0	0	508	513	0	0	
9	0	0	0	0	508	512	0	0	
10	0	0	0	0	511	511	0	0	
11	0	0	0	0	511	512	0	0	
12	0	0	0	0	512	513	0	0	
13	0	0	0	0	512	511	0	0	
14	0	0	0	0	512	508	0	0	
15	0	0	0	0	511	511	0	0	
0	0	0	0	0	511	509	0	0	
1	0	0	0	0	512	507	0	0	
2	0	0	0	0	510	510	0	0	
3	0	0	0	0	509	510	0	0	
4	0	0	0	0	508	512	0	0	
5	0	0	0	0	505	512	0	0	
6	0	0	0	0	504	512	0	0	
7	0	0	0	0	504	512	0	0	
8	0	0	0	0	505	512	0	0	
9	0	0	0	0	504	508	0	0	
10	0	0	0	0	503	510	0	0	
11	0	0	0	0	504	507	0	0	
12	0	0	0	0	504	508	0	0	
13	0	0	0	0	506	508	0	0	
14	0	0	0	0	508	512	0	0	
15	0	0	0	0	513	512	0	0	
0	0	0	0	0	512	512	0	0	
1	0	0	0	0	511	513	0	0	
2	0	0	0	0	513	512	0	0	
3	0	0	0	0	513	511	0	0	
4	0	0	0	0	512	513	0	0	
5	0	0	0	0	513	510	0	0	
6	0	0	0	0	512	511	0	0	
7	0	0	0	0	510	511	0	0	
8	0	0	0	0	506	512	0	0	
9	0	0	0	0	506	512	0	0	
10	0	0	0	0	507	511	0	0	
11	0	0	0	0	506	510	0	0	
12	0	0	0	0	507	510	0	0	
13	0	0	0	0	504	509	0	0	
14	0	0	0	0	505	512	0	0	
15	0	0	0	0	504	510	0	0	
0	0	0	0	0	506	511	0	0	
1	0	0	0	0	508	512	0	0	
2	0	0	0	0	510	512	0	0	
3	0	0	0	0	512	510	0	0	
4	0	0	0	0	510	509	0	0	
5	0	0	0	0	511	511	0	0	
6	0	0	0	0	512	509	0	0	
7	0	0	0	0	514	511	0	0	
8	0	0	0	0	514	510	0	0	
9	0	0	0	0	511	513	0	0	
10	0	0	0	0	513	511	0	0	
11	0	0	0	0	511	510	0	0	
12	0	0	0	0	510	512	0	0	
13	0	0	0	0	508	511	0	0	
14	0	0	0	0	505	512	0	0	
15	0	0	0	0	506	509	0	0	
0	0	0	0	0	505	510	0	0	
1	0	0	0	0	504	508	0	0	
2	0	0	0	0	503	511	0	0	
3	0	0	0	0	506	509	0	0	
4	0	0	0	0	505	510	0	0	
5	0	0	0	0	504	513	0	0	
6	0	0	0	0	505	511	0	0	
7	0	0	0	0	506	512	0	0	
8	0	0	0	0	514	510	0	0	
9	0	0	0	0	512	511	0	0	
10	0	0	0	0	514	509	0	0	
11	0	0	0	0	515	509	0	0	
12	0	0	0	0	515	512	0	0	
13	0	0	0	0	514	512	0	0	
14	0	0	0	0	512	509	0	0	
15	0	0	0	0	511	512	0	0	
0	0	0	0	0	508	510	0	0	
1	0	0	0	0	505	510	0	0	
2	0	0	0	0	505	510	0	0	
3	0	0	0	0	504	507	0	0	
4	0	0	0	0	503	511	0	0	
5	0	0	0	0	504	512	0	0	
6	0	0	0	0	506	511	0	0	
7	0	0	0	0	505	512	0	0	
8	0	0	0	0	507	510	0	0	
9	0	0	0	0	506	511	0	0	
10	0	0	0	0	507	511	0	0	
11	0	0	0	0	512	512	0	0	
12	0	0	0	0	513	510	0	0	
13	0	0	0	0	513	511	0	0	
14	0	0	0	0	514	509	0	0	
15	0	0	0	0	515	513	0	0	
0	0	0	0	0	516	511	0	0	
1	0	0	0	0	511	510	0	0	
2	0	0	0	0	511	511	0	0	
3	0	0	0	0	509	510	0	0	
4	0	0	0	0	505	511	0	0	
5	0	0	0	0	505	512	0	0	
6	0	0	0	0	504	509	0	0	
7	0	0	0	0	504	511	0	0	
8	0	0	0	0	503	509	0	0	
9	0	0	0	0	504	510	0	0	
10	0	0	0	0	504	510	0	0	
11	0	0	0	0	504	510	0	0	
12	0	0	0	0	507	509	0	0	
13	0	0	0	0	507	509	0	0	
14	0	0	0	0	508	511	0	0	
15	0	0	0	0	512	511	0	0	
0	0	0	0	0	512	512	0	0	
1	0	0	0	0	512	510	0	0	
2	0	0	0	0	514	511	0	0	
3	0	0	0	0	514	512	0	0	
4	0	0	0	0	513	511	0	0	
5	0	0	0	0	512	511	0	0	
6	0	0	0	0	511	511	0	0	
7	0	0	0	0	509	512	0	0	
8	0	0	0	0	506	510	0	0	
9	0	0	0	0	505	509	0	0	
10	0	0	0	0	505	510	0	0	
11	0	0	0	0	505	511	0	0	
12	0	0	0	0	503	511	0	0	
13	0	0	0	0	502	509	0	0	
14	0	0	0	0	504	512	0	0	
15	0	0	0	0	508	510	0	0	
0	0	0	0	0	506	510	0	0	
1	0	0	0	0	509	511	0	0	
2	0	0	0	0	511	510	0	0	
3	0	0	0	0	511	514	0	0	
4	0	0	0	0	512	508	0	0	
5	0	0	0	0	514	512	0	0	
6	0	0	0	0	513	511	0	0	
7	0	0	0	0	514	511	0	0	
8	0	0	0	0	511	510	0	0	
9	0	0	0	0	511	509	0	0	
10	0	0	0	0	508	511	0	0	
11	0	0	0	0	508	511	0	0	
12	0	0	0	0	507	510	0	0	
13	0	0	0	0	505	511	0	0	
14	0	0	0	0	504	510	0	0	
15	0	0	0	0	506	508	0	0	
0	0	0	0	0	502	511	0	0	
1	0	0	0	0	503	511	0	0	
2	0	0	0	0	505	508	0	0	
3	0	0	0	0	505	510	0	0	
4	0	0	0	0	507	510	0	0	
5	0	0	0	0	510	511	0	0	
6	0	0	0	0	509	510	0	0	
7	0	0	0	0	513	511	0	0	
8	0	0	0	0	512	510	0	0	
9	0	0	0	0	515	513	0	0	
10	0	0	0	0	513	511	0	0	
11	0	0	0	0	513	512	0	0	
12	0	0	0	0	512	509	0	0	
13	0	0	0	0	513	510	0	0	
14	0	0	0	0	512	510	0	0	
15	0	0	0	0	508	511	0	0	
0	0	0	0	0	508	511	0	0	
1	0	0	0	0	505	509	0	0	
2	0	0	0	0	504	510	0	0	
3	0	0	0	0	505	511	0	0	
4	0	0	0	0	504	511	0	0	
5	0	0	0	0	501	513	0	0	
6	0	0	0	0	503	510	0	0	
7	0	0	0	0	504	510	0	0	
8	0	0	0	0	508	510	0	0	
9	0	0	0	0	509	511	0	0	
10	0	0	0	0	509	510	0	0	
11	0	0	0	0	511	512	0	0	
12	0	0	0	0	513	509	0	0	
13	0	0	0	0	513	511	0	0	
14	0	0	0	0	513	510	0	0	
15	0	0	0	0	514	513	0	0	
0	0	0	0	0	513	512	0	0	
1	0	0	0	0	511	510	0	0	
2	0	0	0	0	511	511	0	0	
3	0	0	0	0	509	512	0	0	
4	0	0	0	0	506	511	0	0	
5	0	0	0	0	507	512	0	0	
6	0	0	0	0	506	511	0	0	
7	0	0	0	0	504	510	0	0	
8	0	0	0	0	505	508	0	0	
9	0	0	0	0	504	510	0	0	
10	0	0	0	0	504	512	0	0	
11	0	0	0	0	503	510	0	0	
12	0	0	0	0	505	509	0	0	
13	0	0	0	0	506	512	0	0	
14	0	0	0	0	510	512	0	0	
15	0	0	0	0	512	511	0	0	
0	0	0	0	0	513	510	0	0	
1	0	0	0	0	512	512	0	0	
2	0	0	0	0	514	510	0	0	
3	0	0	0	0	513	510	0	0	
4	0	0	0	0	513	510	0	0	
5	0	0	0	0	514	510	0	0	
6	0	0	0	0	512	510	0	0	
7	0	0	0	0	509	512	0	0	
8	0	0	0	0	509	510	0	0	
9	0	0	0	0	505	511	0	0	
10	0	0	0	0	504	509	0	0	
11	0	0	0	0	504	509	0	0	
12	0	0	0	0	503	511	0	0	
13	0	0	0	0	502	509	0	0	
14	0	0	0	0	505	511	0	0	
15	0	0	0	0	506	509	0	0	
0	0	0	0	0	508	512	0	0	
1	0	0	0	0	510	511	0	0	
2	0	0	0	0	510	511	0	0	
3	0	0	0	0	511	510	0	0	
4	0	0	0	0	510	513	0	0	
5	0	0	0	0	512	511	0	0	
6	0	0	0	0	514	512	0	0	
7	0	0	0	0	512	512	0	0	
8	0	0	0	0	515	511	0	0	
9	0	0	0	0	512	510	0	0	
10	0	0	0	0	511	511	0	0	
11	0	0	0	0	508	510	0	0	
12	0	0	0	0	507	510	0	0	
13	0	0	0	0	505	511	0	0	
14	0	0	0	0	504	509	0	0	
15	0	0	0	0	502	509	0	0	
0	0	0	0	0	501	508	0	0	
1	0	0	0	0	503	509	0	0	
2	0	0	0	0	504	510	0	0	
3	0	0	0	0	507	509	0	0	
4	0	0	0	0	506	512	0	0	
5	0	0	0	0	508	512	0	0	
6	0	0	0	0	506	511	0	0	
7	0	0	0	0	512	513	0	0	
8	0	0	0	0	514	509	0	0	
9	0	0	0	0	515	510	0	0	
10	0	0	0	0	516	511	0	0	
11	0	0	0	0	514	510	0	0	
12	0	0	0	0	512	512	0	0	
13	0	0	0	0	512	513	0	0	
14	0	0	0	0	511	511	0	0	
15	0	0	0	0	510	514	0	0	
0	0	0	0	0	509	509	0	0	
1	0	0	0	0	507	509	0	0	
2	0	0	0	0	504	508	0	0	
3	0	0	0	0	503	512	0	0	
4	0	0	0	0	502	511	0	0	
5	0	0	0	0	503	511	0	0	
6	0	0	0	0	503	510	0	0	
7	0	0	0	0	504	510	0	0	
8	0	0	0	0	507	510	0	0	
9	0	0	0	0	507	508	0	0	
10	0	0	0	0	510	513	0	0	
11	0	0	0	0	509	510	0	0	
12	0	0	0	0	514	511	0	0	
13	0	0	0	0	512	513	0	0	
14	0	0	0	0	513	509	0	0	
15	0	0	0	0	512	511	0	0	
0	0	0	0	0	515	511	0	0	
1	0	0	0	0	513	512	0	0	
2	0	0	0	0	513	511	0	0	
3	0	0	0	0	512	510	0	0	
4	0	0	0	0	508	511	0	0	
5	0	0	0	0	507	511	0	0	
6	0	0	0	0	506	512	0	0	
7	0	0	0	0	504	512	0	0	
8	0	0	0	0	505	509	0	0	
9	0	0	0	0	502	511	0	0	
10	0	0	0	0	499	510	0	0	
11	0	0	0	0	499	512	0	0	
12	0	0	0	0	504	509	0	0	
13	0	0	0	0	507	508	0	0	
14	0	0	0	0	510	510	0	0	
15	0	0	0	0	512	510	0	0	
0	0	0	0	0	515	510	0	0	
1	0	0	0	0	513	512	0	0	
2	0	0	0	0	514	509	0	0	
3	0	0	0	0	514	510	0	0	
4	0	0	0	0	514	511	0	0	
5	0	0	0	0	512	510	0	0	
6	0	0	0	0	513	510	0	0	
7	0	0	0	0	511	512	0	0	
8	0	0	0	0	511	509	0	0	
9	0	0	0	0	507	513	0	0	
10	0	0	0	0	505	510	0	0	
11	0	0	0	0	503	510	0	0	
12	0	0	0	0	503	510	0	0	
13	0	0	0	0	504	509	0	0	
14	0	0	0	0	504	509	0	0	
15	0	0	0	0	504	508	0	0	
0	0	0	0	0	505	511	0	0	
1	0	0	0	0	507	511	0	0	
2	0	0	0	0	508	511	0	0	
3	0	0	0	0	511	510	0	0	
4	0	0	0	0	510	511	0	0	
5	0	0	0	0	513	512	0	0	
6	0	0	0	0	514	509	0	0	
7	0	0	0	0	513	512	0	0	
8	0	0	0	0	513	510	0	0	
9	0	0	0	0	513	513	0	0	
10	0	0	0	0	511	510	0	0	
11	0	0	0	0	509	510	0	0	
12	0	0	0	0	507	511	0	0	
13	0	0	0	0	505	510	0	0	
14	0	0	0	0	505	510	0	0	
15	0	0	0	0	506	510	0	0	
0	0	0	0	0	505	508	0	0	
1	0	0	0	0	504	511	0	0	
2	0	0	0	0	504	511	0	0	
3	0	0	0	0	502	513	0	0	
4	0	0	0	0	506	508	0	0	
5	0	0	0	0	507	509	0	0	
6	0	0	0	0	510	512	0	0	
7	0	0	0	0	514	512	0	0	
8	0	0	0	0	512	511	0	0	
9	0	0	0	0	513	511	0	0	
10	0	0	0	0	513	511	0	0	
11	0	0	0	0	511	514	0	0	
12	0	0	0	0	511	511	0	0	
13	0	0	0	0	509	511	0	0	
14	0	0	0	0	510	511	0	0	
15	0	0	0	0	510	511	0	0	
0	0	0	0	0	508	512	0	0	
1	0	0	0	0	505	511	0	0	
2	0	0	0	0	506	510	0	0	
3	0	0	0	0	506	509	0	0	
4	0	0	0	0	504	510	0	0	
5	0	0	0	0	505	509	0	0	
6	0	0	0	0	506	509	0	0	
7	0	0	0	0	505	510	0	0	
8	0	0	0	0	506	510	0	0	
9	0	0	0	0	506	509	0	0	
10	0	0	0	0	507	513	0	0	
11	0	0	0	0	510	513	0	0	
12	0	0	0	0	512	511	0	0	
13	0	0	0	0	513	509	0	0	
14	0	0	0	0	516	511	0	0	
15	0	0	0	0	516	511	0	0	
0	0	0	0	0	511	513	0	0	
1	0	0	0	0	511	513	0	0	
2	0	0	0	0	511	511	0	0	
3	0	0	0	0	508	510	0	0	
4	0	0	0	0	508	511	0	0	
5	0	0	0	0	506	509	0	0	
6	0	0	0	0	502	510	0	0	
7	0	0	0	0	501	511	0	0	
8	0	0	0	0	503	510	0	0	
9	0	0	0	0	502	510	0	0	
10	0	0	0	0	504	509	0	0	
11	0	0	0	0	505	511	0	0	
12	0	0	0	0	508	510	0	0	
13	0	0	0	0	510	512	0	0	
14	0	0	0	0	512	510	0	0	
15	0	0	0	0	514	513	0	0	
0	0	0	0	0	516	511	0	0	
1	0	0	0	0	518	513	0	0	
2	0	0	0	0	516	510	0	0	
3	0	0	0	0	514	511	0	0	
4	0	0	0	0	512	513	0	0	
5	0	0	0	0	512	510	0	0	
6	0	0	0	0	506	511	0	0	
7	0	0	0	0	504	510	0	0	
8	0	0	0	0	504	511	0	0	
9	0	0	0	0	501	509	0	0	
10	0	0	0	0	503	510	0	0	
11	0	0	0	0	505	511	0	0	
12	0	0	0	0	506	511	0	0	
13	0	0	0	0	507	512	0	0	
14	0	0	0	0	504	512	0	0	
15	0	0	0	0	506	510	0	0	
0	0	0	0	0	506	508	0	0	
1	0	0	0	0	508	512	0	0	
2	0	0	0	0	507	508	0	0	
3	0	0	0	0	509	512	0	0	
4	0	0	0	0	512	510	0	0	
5	0	0	0	0	513	509	0	0	
6	0	0	0	0	514	510	0	0	
7	0	0	0	0	513	511	0	0	
8	0	0	0	0	513	511	0	0	
9	0	0	0	0	513	513	0	0	
10	0	0	0	0	512	511	0	0	
11	0	0	0	0	510	511	0	0	
12	0	0	0	0	511	512	0	0	
13	0	0	0	0	507	509	0	0	
14	0	0	0	0	506	511	0	0	
15	0	0	0	0	504	512	0	0	
0	0	0	0	0	505	510	0	0	
1	0	0	0	0	504	509	0	0	
2	0	0	0	0	503	510	0	0	
3	0	0	0	0	500	511	0	0	
4	0	0	0	0	505	509	0	0	
5	0	0	0	0	508	509	0	0	
6	0	0	0	0	508	513	0	0	
7	0	0	0	0	512	511	0	0	
8	0	0	0	0	512	511	0	0	
9	0	0	0	0	514	510	0	0	
10	0	0	0	0	514	512	0	0	
11	0	0	0	0	512	511	0	0	
12	0	0	0	0	511	509	0	0	
13	0	0	0	0	512	509	0	0	
14	0	0	0	0	510	511	0	0	
15	0	0	0	0	510	509	0	0	
0	0	0	0	0	508	509	0	0	
1	0	0	0	0	507	510	0	0	
2	0	0	0	0	508	510	0	0	
3	0	0	0	0	507	508	0	0	
4	0	0	0	0	503	511	0	0	
5	0	0	0	0	502	513	0	0	
6	0	0	0	0	503	511	0	0	
7	0	0	0	0	505	511	0	0	
8	0	0	0	0	507	509	0	0	
9	0	0	0	0	508	509	0	0	
10	0	0	0	0	508	513	0	0	
11	0	0	0	0	511	511	0	0	
12	0	0	0	0	511	509	0	0	
13	0	0	0	0	514	511	0	0	
14	0	0	0	0	513	512	0	0	
15	0	0	0	0	514	511	0	0	
0	0	0	0	0	511	510	0	0	
1	0	0	0	0	511	511	0	0	
2	0	0	0	0	510	512	0	0	
3	0	0	0	0	507	508	0	0	
4	0	0	0	0	505	510	0	0	
5	0	0	0	0	505	509	0	0	
6	0	0	0	0	505	512	0	0	
7	0	0	0	0	510	510	0	0	
8	0	0	0	0	503	510	0	0	
9	0	0	0	0	506	511	0	0	
10	0	0	0	0	504	510	0	0	
11	0	0	0	0	507	512	0	0	
12	0	0	0	0	506	512	0	0	
13	0	0	0	0	507	510	0	0	
14	0	0	0	0	509	510	0	0	
15	0	0	0	0	511	511	0	0	
0	0	0	0	0	511	511	0	0	
1	0	0	0	0	512	509	0	0	
2	0	0	0	0	512	511	0	0	
3	0	0	0	0	513	510	0	0	
4	0	0	0	0	511	513	0	0	
5	0	0	0	0	511	510	0	0	
6	0	0	0	0	510	511	0	0	
7	0	0	0	0	510	511	0	0	
8	0	0	0	0	512	511	0	0	
9	0	0	0	0	509	512	0	0	
10	0	0	0	0	503	509	0	0	
11	0	0	0	0	504	509	0	0	
12	0	0	0	0	502	511	0	0	
13	0	0	0	0	505	512	0	0	
14	0	0	0	0	504	511	0	0	
15	0	0	0	0	506	510	0	0	
0	0	0	0	0	506	511	0	0	
1	0	0	0	0	506	510	0	0	
2	0	0	0	0	508	509	0	0	
3	0	0	0	0	510	509	0	0	
4	0	0	0	0	510	511	0	0	
5	0	0	0	0	510	511	0	0	
6	0	0	0	0	514	511	0	0	
7	0	0	0	0	516	510	0	0	
8	0	0	0	0	515	511	0	0	
9	0	0	0	0	513	513	0	0	
10	0	0	0	0	511	511	0	0	
11	0	0	0	0	510	512	0	0	
12	0	0	0	0	507	511	0	0	
13	0	0	0	0	504	510	0	0	
14	0	0	0	0	504	508	0	0	
15	0	0	0	0	504	510	0	0	
0	0	0	0	0	502	511	0	0	
1	0	0	0	0	503	509	0	0	
2	0	0	0	0	505	509	0	0	
3	0	0	0	0	509	512	0	0	
4	0	0	0	0	505	509	0	0	
5	0	0	0	0	508	511	0	0	
6	0	0	0	0	509	511	0	0	
7	0	0	0	0	510	508	0	0	
8	0	0	0	0	512	510	0	0	
9	0	0	0	0	514	512	0	0	
10	0	0	0	0	516	508	0	0	
11	0	0	0	0	512	512	0	0	
12	0	0	0	0	512	512	0	0	
13	0	0	0	0	511	513	0	0	
14	0	0	0	0	508	513	0	0	
15	0	0	0	0	509	511	0	0	
0	0	0	0	0	506	510	0	0	
1	0	0	0	0	507	511	0	0	
2	0	0	0	0	507	510	0	0	
3	0	0	0	0	505	512	0	0	
4	0	0	0	0	505	510	0	0	
5	0	0	0	0	506	509	0	0	
6	0	0	0	0	505	510	0	0	
7	0	0	0	0	504	509	0	0	
8	0	0	0	0	506	508	0	0	
9	0	0	0	0	506	509	0	0	
10	0	0	0	0	508	510	0	0	
11	0	0	0	0	510	510	0	0	
12	0	0	0	0	509	509	0	0	
13	0	0	0	0	512	512	0	0	
14	0	0	0	0	514	511	0	0	
15	0	0	0	0	515	512	0	0	
0	0	0	0	0	513	510	0	0	
1	0	0	0	0	514	512	0	0	
2	0	0	0	0	511	511	0	0	
3	0	0	0	0	511	512	0	0	
4	0	0	0	0	508	509	0	0	
5	0	0	0	0	508	511	0	0	
6	0	0	0	0	504	510	0	0	
7	0	0	0	0	504	511	0	0	
8	0	0	0	0	504	510	0	0	
9	0	0	0	0	503	509	0	0	
10	0	0	0	0	505	511	0	0	
11	0	0	0	0	507	511	0	0	
12	0	0	0	0	507	510	0	0	
13	0	0	0	0	503	511	0	0	
14	0	0	0	0	510	509	0	0	
15	0	0	0	0	510	510	0	0	
0	0	0	0	0	512	510	0	0	
1	0	0	0	0	511	510	0	0	
2	0	0	0	0	512	514	0	0	
3	0	0	0	0	510	514	0	0	
4	0	0	0	0	511	511	0	0	
5	0	0	0	0	511	511	0	0	
6	0	0	0	0	513	511	0	0	
7	0	0	0	0	511	509	0	0	
8	0	0	0	0	509	510	0	0	
9	0	0	0	0	508	513	0	0	
10	0	0	0	0	505	511	0	0	
11	0	0	0	0	508	510	0	0	
12	0	0	0	0	506	509	0	0	
13	0	0	0	0	503	510	0	0	
14	0	0	0	0	505	511	0	0	
15	0	0	0	0	504	509	0	0	
0	0	0	0	0	507	510	0	0	
1	0	0	0	0	506	510	0	0	
2	0	0	0	0	509	512	0	0	
3	0	0	0	0	507	512	0	0	
4	0	0	0	0	509	511	0	0	
5	0	0	0	0	511	510	0	0	
6	0	0	0	0	515	510	0	0	
7	0	0	0	0	515	509	0	0	
8	0	0	0	0	513	510	0	0	
9	0	0	0	0	512	512	0	0	
10	0	0	0	0	511	510	0	0	
11	0	0	0	0	509	509	0	0	
12	0	0	0	0	507	510	0	0	
13	0	0	0	0	507	511	0	0	
14	0	0	0	0	506	511	0	0	
15	0	0	0	0	505	511	0	0	
0	0	0	0	0	505	512	0	0	
1	0	0	0	0	508	510	0	0	
2	0	0	0	0	507	511	0	0	
3	0	0	0	0	505	511	0	0	
4	0	0	0	0	504	510	0	0	
5	0	0	0	0	507	510	0	0	
6	0	0	0	0	507	510	0	0	
7	0	0	0	0	511	507	0	0	
8	0	0	0	0	512	512	0	0	
9	0	0	0	0	513	511	0	0	
10	0	0	0	0	516	513	0	0	
11	0	0	0	0	514	513	0	0	
12	0	0	0	0	511	511	0	0	
13	0	0	0	0	511	511	0	0	
14	0	0	0	0	509	509	0	0	
15	0	0	0	0	510	511	0	0	
0	0	0	0	0	508	512	0	0	
1	0	0	0	0	503	510	0	0	
2	0	0	0	0	504	510	0	0	
3	0	0	0	0	504	507	0	0	
4	0	0	0	0	503	511	0	0	
5	0	0	0	0	504	511	0	0	
6	0	0	0	0	504	510	0	0	
7	0	0	0	0	505	511	0	0	
8	0	0	0	0	508	509	0	0	
9	0	0	0	0	510	511	0	0	
10	0	0	0	0	510	509	0	0	
11	0	0	0	0	510	510	0	0	
12	0	0	0	0	508	511	0	0	
13	0	0	0	0	511	511	0	0	
14	0	0	0	0	514	509	0	0	
15	0	0	0	0	513	510	0	0	
0	0	0	0	0	514	511	0	0	
1	0	0	0	0	513	513	0	0	
2	0	0	0	0	512	512	0	0	
3	0	0	0	0	510	511	0	0	
4	0	0	0	0	508	511	0	0	
5	0	0	0	0	506	510	0	0	
6	0	0	0	0	506	509	0	0	
7	0	0	0	0	504	511	0	0	
8	0	0	0	0	503	511	0	0	
9	0	0	0	0	505	511	0	0	
10	0	0	0	0	502	510	0	0	
11	0	0	0	0	504	509	0	0	
12	0	0	0	0	504	511	0	0	
13	0	0	0	0	508	511	0	0	
14	0	0	0	0	508	511	0	0	
15	0	0	0	0	511	512	0	0	
0	0	0	0	0	514	509	0	0	
1	0	0	0	0	512	511	0	0	
2	0	0	0	0	514	510	0	0	
3	0	0	0	0	515	510	0	0	
4	0	0	0	0	512	512	0	0	
5	0	0	0	0	513	508	0	0	
6	0	0	0	0	511	510	0	0	
7	0	0	0	0	510	510	0	0	
8	0	0	0	0	509	510	0	0	
9	0	0	0	0	506	510	0	0	
10	0	0	0	0	504	510	0	0	
11	0	0	0	0	508	510	0	0	
12	0	0	0	0	502	510	0	0	
13	0	0	0	0	503	510	0	0	
14	0	0	0	0	503	512	0	0	
15	0	0	0	0	505	511	0	0	
0	0	0	0	0	509	510	0	0	
1	0	0	0	0	508	512	0	0	
2	0	0	0	0	508	512	0	0	
3	0	0	0	0	509	511	0	0	
4	0	0	0	0	512	512	0	0	
5	0	0	0	0	512	511	0	0	
6	0	0	0	0	513	510	0	0	
7	0	0	0	0	516	511	0	0	
8	0	0	0	0	513	509	0	0	
9	0	0	0	0	510	511	0	0	
10	0	0	0	0	510	509	0	0	
11	0	0	0	0	508	512	0	0	
12	0	0	0	0	508	510	0	0	
13	0	0	0	0	507	509	0	0	
14	0	0	0	0	504	511	0	0	
15	0	0	0	0	507	511	0	0	
0	0	0	0	0	505	511	0	0	
1	0	0	0	0	505	510	0	0	
2	0	0	0	0	505	510	0	0	
3	0	0	0	0	504	510	0	0	
4	0	0	0	0	505	511	0	0	
5	0	0	0	0	507	511	0	0	
6	0	0	0	0	507	511	0	0	
7	0	0	0	0	511	511	0	0	
8	0	0	0	0	512	510	0	0	
9	0	0	0	0	513	509	0	0	
10	0	0	0	0	512	512	0	0	
11	0	0	0	0	510	511	0	0	
12	0	0	0	0	512	513	0	0	
13	0	0	0	0	509	512	0	0	
14	0	0	0	0	512	511	0	0	
15	0	0	0	0	511	510	0	0	
0	0	0	0	0	509	511	0	0	
1	0	0	0	0	506	509	0	0	
2	0	0	0	0	504	511	0	0	
3	0	0	0	0	503	512	0	0	
4	0	0	0	0	506	510	0	0	
5	0	0	0	0	505	510	0	0	
6	0	0	0	0	502	511	0	0	
7	0	0	0	0	505	512	0	0	
8	0	0	0	0	508	513	0	0	
9	0	0	0	0	507	509	0	0	
10	0	0	0	0	507	511	0	0	
11	0	0	0	0	512	511	0	0	
12	0	0	0	0	511	511	0	0	
13	0	0	0	0	514	508	0	0	
14	0	0	0	0	515	511	0	0	
15	0	0	0	0	512	511	0	0	
0	0	0	0	0	513	511	0	0	
1	0	0	0	0	512	511	0	0	
2	0	0	0	0	510	511	0	0	
3	0	0	0	0	510	510	0	0	
4	0	0	0	0	510	511	0	0	
5	0	0	0	0	505	508	0	0	
6	0	0	0	0	505	510	0	0	
7	0	0	0	0	505	509	0	0	
8	0	0	0	0	502	509	0	0	
9	0	0	0	0	504	512	0	0	
10	0	0	0	0	504	509	0	0	
11	0	0	0	0	507	511	0	0	
12	0	0	0	0	506	509	0	0	
