# OpenSignals Text File Format. Version 1
# {"20:18:06:13:21:78": {"position": 0, "device": "bitalino_rev", "device name": "20:18:06:13:21:78", "device connection": "BTH20:18:06:13:21:78", "sampling rate": 1000, "resolution": [4, 1, 1, 1, 1, 10, 10, 10, 10], "firmware version": 1281, "comments": "", "keywords": "", "mode": 0, "sync interval": 2, "date": "2023-6-5", "time": "23:58:10.918", "channels": [1, 2, 3, 4], "sensor": ["EMGBITREV", "EMGBITREV", "RAW", "RAW"], "label": ["A1", "A2", "A3", "A4"], "column": ["nSeq", "I1", "I2", "O1", "O2", "A1", "A2", "A3", "A4"], "special": [{}, {}, {}, {}], "digital IO": [0, 0, 1, 1]}}
# EndOfHeader
0	0	0	0	0	511	510	0	0	
1	0	0	0	0	510	512	0	0	
2	0	0	0	0	509	509	0	0	
3	0	0	0	0	510	509	0	0	
4	0	0	0	0	507	511	0	0	
5	0	0	0	0	505	509	0	0	
6	0	0	0	0	504	509	0	0	
7	0	0	0	0	501	508	0	0	
8	0	0	0	0	503	512	0	0	
9	0	0	0	0	505	511	0	0	
10	0	0	0	0	505	511	0	0	
11	0	0	0	0	505	512	0	0	
12	0	0	0	0	508	511	0	0	
13	0	0	0	0	506	509	0	0	
14	0	0	0	0	512	511	0	0	
15	0	0	0	0	513	509	0	0	
0	0	0	0	0	513	510	0	0	
1	0	0	0	0	514	512	0	0	
2	0	0	0	0	513	512	0	0	
3	0	0	0	0	514	510	0	0	
4	0	0	0	0	513	511	0	0	
5	0	0	0	0	513	510	0	0	
6	0	0	0	0	510	511	0	0	
7	0	0	0	0	508	511	0	0	
8	0	0	0	0	506	512	0	0	
9	0	0	0	0	505	511	0	0	
10	0	0	0	0	504	510	0	0	
11	0	0	0	0	503	509	0	0	
12	0	0	0	0	502	510	0	0	
13	0	0	0	0	501	510	0	0	
14	0	0	0	0	503	510	0	0	
15	0	0	0	0	507	510	0	0	
0	0	0	0	0	509	511	0	0	
1	0	0	0	0	509	511	0	0	
2	0	0	0	0	511	512	0	0	
3	0	0	0	0	513	511	0	0	
4	0	0	0	0	515	512	0	0	
5	0	0	0	0	515	512	0	0	
6	0	0	0	0	514	510	0	0	
7	0	0	0	0	513	511	0	0	
8	0	0	0	0	510	511	0	0	
9	0	0	0	0	511	513	0	0	
10	0	0	0	0	506	510	0	0	
11	0	0	0	0	507	510	0	0	
12	0	0	0	0	505	512	0	0	
13	0	0	0	0	504	510	0	0	
14	0	0	0	0	505	511	0	0	
15	0	0	0	0	504	511	0	0	
0	0	0	0	0	502	510	0	0	
1	0	0	0	0	503	511	0	0	
2	0	0	0	0	505	508	0	0	
3	0	0	0	0	505	509	0	0	
4	0	0	0	0	510	511	0	0	
5	0	0	0	0	510	509	0	0	
6	0	0	0	0	514	512	0	0	
7	0	0	0	0	514	510	0	0	
8	0	0	0	0	512	510	0	0	
9	0	0	0	0	514	511	0	0	
10	0	0	0	0	514	510	0	0	
11	0	0	0	0	515	511	0	0	
12	0	0	0	0	511	509	0	0	
13	0	0	0	0	506	512	0	0	
14	0	0	0	0	506	511	0	0	
15	0	0	0	0	511	510	0	0	
0	0	0	0	0	507	512	0	0	
1	0	0	0	0	506	511	0	0	
2	0	0	0	0	504	513	0	0	
3	0	0	0	0	503	510	0	0	
4	0	0	0	0	503	511	0	0	
5	0	0	0	0	503	509	0	0	
6	0	0	0	0	504	511	0	0	
7	0	0	0	0	506	508	0	0	
8	0	0	0	0	507	511	0	0	
9	0	0	0	0	510	511	0	0	
10	0	0	0	0	513	511	0	0	
11	0	0	0	0	511	510	0	0	
12	0	0	0	0	516	510	0	0	
13	0	0	0	0	514	511	0	0	
14	0	0	0	0	514	511	0	0	
15	0	0	0	0	513	511	0	0	
0	0	0	0	0	511	509	0	0	
1	0	0	0	0	510	511	0	0	
2	0	0	0	0	510	510	0	0	
3	0	0	0	0	505	510	0	0	
4	0	0	0	0	505	512	0	0	
5	0	0	0	0	505	510	0	0	
6	0	0	0	0	502	508	0	0	
7	0	0	0	0	504	510	0	0	
8	0	0	0	0	503	509	0	0	
9	0	0	0	0	503	509	0	0	
10	0	0	0	0	505	511	0	0	
11	0	0	0	0	506	509	0	0	
12	0	0	0	0	509	511	0	0	
13	0	0	0	0	509	512	0	0	
14	0	0	0	0	512	511	0	0	
15	0	0	0	0	512	511	0	0	
0	0	0	0	0	515	512	0	0	
1	0	0	0	0	514	511	0	0	
2	0	0	0	0	516	510	0	0	
3	0	0	0	0	516	509	0	0	
4	0	0	0	0	511	512	0	0	
5	0	0	0	0	509	511	0	0	
6	0	0	0	0	509	512	0	0	
7	0	0	0	0	507	510	0	0	
8	0	0	0	0	503	511	0	0	
9	0	0	0	0	505	510	0	0	
10	0	0	0	0	505	512	0	0	
11	0	0	0	0	504	511	0	0	
12	0	0	0	0	502	511	0	0	
13	0	0	0	0	504	512	0	0	
14	0	0	0	0	504	508	0	0	
15	0	0	0	0	507	508	0	0	
0	0	0	0	0	508	509	0	0	
1	0	0	0	0	508	509	0	0	
2	0	0	0	0	514	511	0	0	
3	0	0	0	0	513	511	0	0	
4	0	0	0	0	512	513	0	0	
5	0	0	0	0	513	511	0	0	
6	0	0	0	0	515	510	0	0	
7	0	0	0	0	513	510	0	0	
8	0	0	0	0	512	512	0	0	
9	0	0	0	0	511	513	0	0	
10	0	0	0	0	511	510	0	0	
11	0	0	0	0	507	511	0	0	
12	0	0	0	0	504	509	0	0	
13	0	0	0	0	505	511	0	0	
14	0	0	0	0	502	512	0	0	
15	0	0	0	0	501	511	0	0	
0	0	0	0	0	503	512	0	0	
1	0	0	0	0	504	509	0	0	
2	0	0	0	0	507	511	0	0	
3	0	0	0	0	509	510	0	0	
4	0	0	0	0	508	509	0	0	
5	0	0	0	0	510	509	0	0	
6	0	0	0	0	512	513	0	0	
7	0	0	0	0	511	510	0	0	
8	0	0	0	0	511	511	0	0	
9	0	0	0	0	514	509	0	0	
10	0	0	0	0	514	511	0	0	
11	0	0	0	0	513	509	0	0	
12	0	0	0	0	511	510	0	0	
13	0	0	0	0	509	510	0	0	
14	0	0	0	0	511	511	0	0	
15	0	0	0	0	506	510	0	0	
0	0	0	0	0	504	512	0	0	
1	0	0	0	0	503	509	0	0	
2	0	0	0	0	504	509	0	0	
3	0	0	0	0	506	511	0	0	
4	0	0	0	0	504	510	0	0	
5	0	0	0	0	505	512	0	0	
6	0	0	0	0	503	508	0	0	
7	0	0	0	0	507	510	0	0	
8	0	0	0	0	507	510	0	0	
9	0	0	0	0	510	512	0	0	
10	0	0	0	0	512	511	0	0	
11	0	0	0	0	512	512	0	0	
12	0	0	0	0	513	511	0	0	
13	0	0	0	0	515	512	0	0	
14	0	0	0	0	515	511	0	0	
15	0	0	0	0	513	512	0	0	
0	0	0	0	0	511	510	0	0	
1	0	0	0	0	508	510	0	0	
2	0	0	0	0	510	511	0	0	
3	0	0	0	0	506	510	0	0	
4	0	0	0	0	504	511	0	0	
5	0	0	0	0	506	510	0	0	
6	0	0	0	0	502	509	0	0	
7	0	0	0	0	502	509	0	0	
8	0	0	0	0	501	510	0	0	
9	0	0	0	0	503	511	0	0	
10	0	0	0	0	504	510	0	0	
11	0	0	0	0	505	511	0	0	
12	0	0	0	0	510	511	0	0	
13	0	0	0	0	513	508	0	0	
14	0	0	0	0	513	510	0	0	
15	0	0	0	0	515	510	0	0	
0	0	0	0	0	514	513	0	0	
1	0	0	0	0	518	511	0	0	
2	0	0	0	0	514	509	0	0	
3	0	0	0	0	514	510	0	0	
4	0	0	0	0	512	511	0	0	
5	0	0	0	0	510	510	0	0	
6	0	0	0	0	508	510	0	0	
7	0	0	0	0	505	511	0	0	
8	0	0	0	0	504	511	0	0	
9	0	0	0	0	506	508	0	0	
10	0	0	0	0	503	512	0	0	
11	0	0	0	0	503	512	0	0	
12	0	0	0	0	504	510	0	0	
13	0	0	0	0	505	509	0	0	
14	0	0	0	0	504	510	0	0	
15	0	0	0	0	507	510	0	0	
0	0	0	0	0	507	511	0	0	
1	0	0	0	0	510	511	0	0	
2	0	0	0	0	513	511	0	0	
3	0	0	0	0	513	510	0	0	
4	0	0	0	0	514	511	0	0	
5	0	0	0	0	515	511	0	0	
6	0	0	0	0	515	509	0	0	
7	0	0	0	0	515	513	0	0	
8	0	0	0	0	515	510	0	0	
9	0	0	0	0	505	510	0	0	
10	0	0	0	0	506	512	0	0	
11	0	0	0	0	508	512	0	0	
12	0	0	0	0	505	510	0	0	
13	0	0	0	0	504	511	0	0	
14	0	0	0	0	502	510	0	0	
15	0	0	0	0	502	511	0	0	
0	0	0	0	0	503	510	0	0	
1	0	0	0	0	503	508	0	0	
2	0	0	0	0	504	509	0	0	
3	0	0	0	0	508	511	0	0	
4	0	0	0	0	508	511	0	0	
5	0	0	0	0	511	510	0	0	
6	0	0	0	0	512	509	0	0	
7	0	0	0	0	515	510	0	0	
8	0	0	0	0	514	509	0	0	
9	0	0	0	0	515	509	0	0	
10	0	0	0	0	515	512	0	0	
11	0	0	0	0	515	511	0	0	
12	0	0	0	0	513	512	0	0	
13	0	0	0	0	509	509	0	0	
14	0	0	0	0	508	511	0	0	
15	0	0	0	0	506	510	0	0	
0	0	0	0	0	504	512	0	0	
1	0	0	0	0	505	510	0	0	
2	0	0	0	0	504	509	0	0	
3	0	0	0	0	502	512	0	0	
4	0	0	0	0	502	511	0	0	
5	0	0	0	0	505	513	0	0	
6	0	0	0	0	505	512	0	0	
7	0	0	0	0	505	510	0	0	
8	0	0	0	0	508	511	0	0	
9	0	0	0	0	508	511	0	0	
10	0	0	0	0	511	510	0	0	
11	0	0	0	0	513	510	0	0	
12	0	0	0	0	515	510	0	0	
13	0	0	0	0	515	514	0	0	
14	0	0	0	0	512	512	0	0	
15	0	0	0	0	513	510	0	0	
0	0	0	0	0	511	510	0	0	
1	0	0	0	0	511	514	0	0	
2	0	0	0	0	509	508	0	0	
3	0	0	0	0	508	512	0	0	
4	0	0	0	0	504	512	0	0	
5	0	0	0	0	504	509	0	0	
6	0	0	0	0	502	508	0	0	
7	0	0	0	0	499	509	0	0	
8	0	0	0	0	504	510	0	0	
9	0	0	0	0	503	510	0	0	
10	0	0	0	0	508	510	0	0	
11	0	0	0	0	507	511	0	0	
12	0	0	0	0	506	511	0	0	
13	0	0	0	0	509	511	0	0	
14	0	0	0	0	511	508	0	0	
15	0	0	0	0	513	508	0	0	
0	0	0	0	0	515	511	0	0	
1	0	0	0	0	515	511	0	0	
2	0	0	0	0	514	511	0	0	
3	0	0	0	0	514	510	0	0	
4	0	0	0	0	511	510	0	0	
5	0	0	0	0	512	511	0	0	
6	0	0	0	0	509	512	0	0	
7	0	0	0	0	505	509	0	0	
8	0	0	0	0	507	511	0	0	
9	0	0	0	0	504	510	0	0	
10	0	0	0	0	502	510	0	0	
11	0	0	0	0	502	509	0	0	
12	0	0	0	0	503	511	0	0	
13	0	0	0	0	504	510	0	0	
14	0	0	0	0	505	509	0	0	
15	0	0	0	0	504	511	0	0	
0	0	0	0	0	504	508	0	0	
1	0	0	0	0	507	511	0	0	
2	0	0	0	0	512	511	0	0	
3	0	0	0	0	515	512	0	0	
4	0	0	0	0	515	513	0	0	
5	0	0	0	0	515	511	0	0	
6	0	0	0	0	515	510	0	0	
7	0	0	0	0	514	510	0	0	
8	0	0	0	0	513	511	0	0	
9	0	0	0	0	511	511	0	0	
10	0	0	0	0	508	510	0	0	
11	0	0	0	0	506	511	0	0	
12	0	0	0	0	504	511	0	0	
13	0	0	0	0	506	511	0	0	
14	0	0	0	0	503	511	0	0	
15	0	0	0	0	504	508	0	0	
0	0	0	0	0	503	511	0	0	
1	0	0	0	0	503	511	0	0	
2	0	0	0	0	504	510	0	0	
3	0	0	0	0	507	510	0	0	
4	0	0	0	0	507	512	0	0	
5	0	0	0	0	509	510	0	0	
6	0	0	0	0	512	510	0	0	
7	0	0	0	0	512	508	0	0	
8	0	0	0	0	511	508	0	0	
9	0	0	0	0	513	511	0	0	
10	0	0	0	0	512	511	0	0	
11	0	0	0	0	516	510	0	0	
12	0	0	0	0	516	510	0	0	
13	0	0	0	0	511	509	0	0	
14	0	0	0	0	506	509	0	0	
15	0	0	0	0	507	510	0	0	
0	0	0	0	0	507	511	0	0	
1	0	0	0	0	508	510	0	0	
2	0	0	0	0	502	508	0	0	
3	0	0	0	0	502	512	0	0	
4	0	0	0	0	501	509	0	0	
5	0	0	0	0	504	511	0	0	
6	0	0	0	0	504	510	0	0	
7	0	0	0	0	506	509	0	0	
8	0	0	0	0	508	511	0	0	
9	0	0	0	0	511	512	0	0	
10	0	0	0	0	512	511	0	0	
11	0	0	0	0	512	510	0	0	
12	0	0	0	0	514	513	0	0	
13	0	0	0	0	512	510	0	0	
14	0	0	0	0	515	512	0	0	
15	0	0	0	0	515	510	0	0	
0	0	0	0	0	512	509	0	0	
1	0	0	0	0	511	512	0	0	
2	0	0	0	0	508	512	0	0	
3	0	0	0	0	506	509	0	0	
4	0	0	0	0	505	511	0	0	
5	0	0	0	0	504	512	0	0	
6	0	0	0	0	502	511	0	0	
7	0	0	0	0	503	510	0	0	
8	0	0	0	0	503	510	0	0	
9	0	0	0	0	504	509	0	0	
10	0	0	0	0	504	508	0	0	
11	0	0	0	0	505	510	0	0	
12	0	0	0	0	509	511	0	0	
13	0	0	0	0	510	511	0	0	
14	0	0	0	0	512	510	0	0	
15	0	0	0	0	514	511	0	0	
0	0	0	0	0	516	511	0	0	
1	0	0	0	0	517	511	0	0	
2	0	0	0	0	515	513	0	0	
3	0	0	0	0	514	511	0	0	
4	0	0	0	0	509	512	0	0	
5	0	0	0	0	509	511	0	0	
6	0	0	0	0	507	511	0	0	
7	0	0	0	0	507	511	0	0	
8	0	0	0	0	507	511	0	0	
9	0	0	0	0	504	512	0	0	
10	0	0	0	0	503	510	0	0	
11	0	0	0	0	503	511	0	0	
12	0	0	0	0	504	508	0	0	
13	0	0	0	0	503	512	0	0	
14	0	0	0	0	504	512	0	0	
15	0	0	0	0	507	511	0	0	
0	0	0	0	0	508	511	0	0	
1	0	0	0	0	511	511	0	0	
2	0	0	0	0	510	510	0	0	
3	0	0	0	0	510	509	0	0	
4	0	0	0	0	514	511	0	0	
5	0	0	0	0	517	510	0	0	
6	0	0	0	0	518	510	0	0	
7	0	0	0	0	513	511	0	0	
8	0	0	0	0	512	511	0	0	
9	0	0	0	0	511	511	0	0	
10	0	0	0	0	508	509	0	0	
11	0	0	0	0	504	511	0	0	
12	0	0	0	0	501	511	0	0	
13	0	0	0	0	504	510	0	0	
14	0	0	0	0	502	512	0	0	
15	0	0	0	0	500	510	0	0	
0	0	0	0	0	503	510	0	0	
1	0	0	0	0	506	510	0	0	
2	0	0	0	0	507	509	0	0	
3	0	0	0	0	507	511	0	0	
4	0	0	0	0	508	509	0	0	
5	0	0	0	0	511	510	0	0	
6	0	0	0	0	514	511	0	0	
7	0	0	0	0	514	509	0	0	
8	0	0	0	0	515	510	0	0	
9	0	0	0	0	513	512	0	0	
10	0	0	0	0	512	510	0	0	
11	0	0	0	0	514	511	0	0	
12	0	0	0	0	513	511	0	0	
13	0	0	0	0	509	510	0	0	
14	0	0	0	0	511	512	0	0	
15	0	0	0	0	508	511	0	0	
0	0	0	0	0	507	511	0	0	
1	0	0	0	0	505	510	0	0	
2	0	0	0	0	502	510	0	0	
3	0	0	0	0	503	510	0	0	
4	0	0	0	0	505	510	0	0	
5	0	0	0	0	504	509	0	0	
6	0	0	0	0	503	509	0	0	
7	0	0	0	0	506	512	0	0	
8	0	0	0	0	507	508	0	0	
9	0	0	0	0	508	508	0	0	
10	0	0	0	0	512	509	0	0	
11	0	0	0	0	513	513	0	0	
12	0	0	0	0	513	509	0	0	
13	0	0	0	0	514	511	0	0	
14	0	0	0	0	515	512	0	0	
15	0	0	0	0	513	512	0	0	
0	0	0	0	0	513	511	0	0	
1	0	0	0	0	509	511	0	0	
2	0	0	0	0	509	510	0	0	
3	0	0	0	0	506	511	0	0	
4	0	0	0	0	505	508	0	0	
5	0	0	0	0	506	507	0	0	
6	0	0	0	0	502	509	0	0	
7	0	0	0	0	502	508	0	0	
8	0	0	0	0	500	510	0	0	
9	0	0	0	0	501	511	0	0	
10	0	0	0	0	502	510	0	0	
11	0	0	0	0	508	511	0	0	
12	0	0	0	0	508	510	0	0	
13	0	0	0	0	513	510	0	0	
14	0	0	0	0	516	511	0	0	
15	0	0	0	0	512	509	0	0	
0	0	0	0	0	513	510	0	0	
1	0	0	0	0	515	511	0	0	
2	0	0	0	0	515	512	0	0	
3	0	0	0	0	513	512	0	0	
4	0	0	0	0	513	512	0	0	
5	0	0	0	0	515	510	0	0	
6	0	0	0	0	510	511	0	0	
7	0	0	0	0	506	512	0	0	
8	0	0	0	0	503	511	0	0	
9	0	0	0	0	503	512	0	0	
10	0	0	0	0	504	511	0	0	
11	0	0	0	0	501	510	0	0	
12	0	0	0	0	501	510	0	0	
13	0	0	0	0	502	511	0	0	
14	0	0	0	0	504	510	0	0	
15	0	0	0	0	506	510	0	0	
0	0	0	0	0	508	512	0	0	
1	0	0	0	0	512	511	0	0	
2	0	0	0	0	514	510	0	0	
3	0	0	0	0	513	513	0	0	
4	0	0	0	0	513	512	0	0	
5	0	0	0	0	513	512	0	0	
6	0	0	0	0	512	510	0	0	
7	0	0	0	0	513	510	0	0	
8	0	0	0	0	511	509	0	0	
9	0	0	0	0	510	512	0	0	
10	0	0	0	0	512	511	0	0	
11	0	0	0	0	507	510	0	0	
12	0	0	0	0	505	510	0	0	
13	0	0	0	0	504	508	0	0	
14	0	0	0	0	503	512	0	0	
15	0	0	0	0	504	510	0	0	
0	0	0	0	0	503	510	0	0	
1	0	0	0	0	503	511	0	0	
2	0	0	0	0	505	508	0	0	
3	0	0	0	0	503	510	0	0	
4	0	0	0	0	505	511	0	0	
5	0	0	0	0	512	511	0	0	
6	0	0	0	0	515	511	0	0	
7	0	0	0	0	514	512	0	0	
8	0	0	0	0	516	510	0	0	
9	0	0	0	0	515	510	0	0	
10	0	0	0	0	516	508	0	0	
11	0	0	0	0	514	509	0	0	
12	0	0	0	0	510	511	0	0	
13	0	0	0	0	508	511	0	0	
14	0	0	0	0	508	510	0	0	
15	0	0	0	0	504	513	0	0	
0	0	0	0	0	502	511	0	0	
1	0	0	0	0	505	511	0	0	
2	0	0	0	0	506	512	0	0	
3	0	0	0	0	503	511	0	0	
4	0	0	0	0	505	510	0	0	
5	0	0	0	0	504	511	0	0	
6	0	0	0	0	505	508	0	0	
7	0	0	0	0	507	509	0	0	
8	0	0	0	0	507	511	0	0	
9	0	0	0	0	509	511	0	0	
10	0	0	0	0	513	508	0	0	
11	0	0	0	0	512	510	0	0	
12	0	0	0	0	514	512	0	0	
13	0	0	0	0	514	508	0	0	
14	0	0	0	0	516	510	0	0	
15	0	0	0	0	513	510	0	0	
0	0	0	0	0	512	511	0	0	
1	0	0	0	0	511	511	0	0	
2	0	0	0	0	510	512	0	0	
3	0	0	0	0	507	511	0	0	
4	0	0	0	0	504	513	0	0	
5	0	0	0	0	504	512	0	0	
6	0	0	0	0	502	512	0	0	
7	0	0	0	0	502	510	0	0	
8	0	0	0	0	501	511	0	0	
9	0	0	0	0	503	511	0	0	
10	0	0	0	0	504	508	0	0	
11	0	0	0	0	507	511	0	0	
12	0	0	0	0	507	509	0	0	
13	0	0	0	0	509	508	0	0	
14	0	0	0	0	512	510	0	0	
15	0	0	0	0	513	510	0	0	
0	0	0	0	0	515	509	0	0	
1	0	0	0	0	517	511	0	0	
2	0	0	0	0	515	512	0	0	
3	0	0	0	0	512	511	0	0	
4	0	0	0	0	511	508	0	0	
5	0	0	0	0	509	508	0	0	
6	0	0	0	0	507	512	0	0	
7	0	0	0	0	507	511	0	0	
8	0	0	0	0	505	511	0	0	
9	0	0	0	0	506	511	0	0	
10	0	0	0	0	506	510	0	0	
11	0	0	0	0	505	511	0	0	
12	0	0	0	0	502	511	0	0	
13	0	0	0	0	502	511	0	0	
14	0	0	0	0	505	510	0	0	
15	0	0	0	0	507	510	0	0	
0	0	0	0	0	506	511	0	0	
1	0	0	0	0	508	512	0	0	
2	0	0	0	0	510	512	0	0	
3	0	0	0	0	509	510	0	0	
4	0	0	0	0	514	512	0	0	
5	0	0	0	0	515	510	0	0	
6	0	0	0	0	515	512	0	0	
7	0	0	0	0	513	512	0	0	
8	0	0	0	0	512	510	0	0	
9	0	0	0	0	511	510	0	0	
10	0	0	0	0	510	510	0	0	
11	0	0	0	0	507	513	0	0	
12	0	0	0	0	507	514	0	0	
13	0	0	0	0	506	509	0	0	
14	0	0	0	0	502	510	0	0	
15	0	0	0	0	505	510	0	0	
0	0	0	0	0	504	511	0	0	
1	0	0	0	0	503	511	0	0	
2	0	0	0	0	506	511	0	0	
3	0	0	0	0	505	511	0	0	
4	0	0	0	0	508	511	0	0	
5	0	0	0	0	510	510	0	0	
6	0	0	0	0	512	511	0	0	
7	0	0	0	0	511	510	0	0	
8	0	0	0	0	513	513	0	0	
9	0	0	0	0	515	511	0	0	
10	0	0	0	0	515	510	0	0	
11	0	0	0	0	514	509	0	0	
12	0	0	0	0	511	510	0	0	
13	0	0	0	0	510	511	0	0	
14	0	0	0	0	510	510	0	0	
15	0	0	0	0	508	511	0	0	
0	0	0	0	0	504	511	0	0	
1	0	0	0	0	503	510	0	0	
2	0	0	0	0	503	511	0	0	
3	0	0	0	0	501	510	0	0	
4	0	0	0	0	504	509	0	0	
5	0	0	0	0	503	510	0	0	
6	0	0	0	0	505	510	0	0	
7	0	0	0	0	507	510	0	0	
8	0	0	0	0	506	511	0	0	
9	0	0	0	0	508	511	0	0	
10	0	0	0	0	513	510	0	0	
11	0	0	0	0	515	512	0	0	
12	0	0	0	0	517	511	0	0	
13	0	0	0	0	519	510	0	0	
14	0	0	0	0	511	510	0	0	
15	0	0	0	0	511	510	0	0	
0	0	0	0	0	512	511	0	0	
1	0	0	0	0	509	512	0	0	
2	0	0	0	0	509	511	0	0	
3	0	0	0	0	506	510	0	0	
4	0	0	0	0	505	511	0	0	
5	0	0	0	0	506	510	0	0	
6	0	0	0	0	504	511	0	0	
7	0	0	0	0	502	510	0	0	
8	0	0	0	0	504	510	0	0	
9	0	0	0	0	504	511	0	0	
10	0	0	0	0	505	513	0	0	
11	0	0	0	0	508	510	0	0	
12	0	0	0	0	505	512	0	0	
13	0	0	0	0	512	510	0	0	
14	0	0	0	0	514	510	0	0	
15	0	0	0	0	511	509	0	0	
0	0	0	0	0	514	510	0	0	
1	0	0	0	0	515	510	0	0	
2	0	0	0	0	515	510	0	0	
3	0	0	0	0	515	508	0	0	
4	0	0	0	0	512	510	0	0	
5	0	0	0	0	511	508	0	0	
6	0	0	0	0	508	509	0	0	
7	0	0	0	0	509	511	0	0	
8	0	0	0	0	505	511	0	0	
9	0	0	0	0	502	510	0	0	
10	0	0	0	0	500	511	0	0	
11	0	0	0	0	504	514	0	0	
12	0	0	0	0	503	513	0	0	
13	0	0	0	0	504	511	0	0	
14	0	0	0	0	504	510	0	0	
15	0	0	0	0	507	510	0	0	
0	0	0	0	0	508	511	0	0	
1	0	0	0	0	511	509	0	0	
2	0	0	0	0	514	509	0	0	
3	0	0	0	0	513	513	0	0	
4	0	0	0	0	513	509	0	0	
5	0	0	0	0	513	511	0	0	
6	0	0	0	0	515	512	0	0	
7	0	0	0	0	514	512	0	0	
8	0	0	0	0	511	511	0	0	
9	0	0	0	0	508	510	0	0	
10	0	0	0	0	509	512	0	0	
11	0	0	0	0	507	509	0	0	
12	0	0	0	0	503	512	0	0	
13	0	0	0	0	505	510	0	0	
14	0	0	0	0	504	508	0	0	
15	0	0	0	0	502	508	0	0	
0	0	0	0	0	503	510	0	0	
1	0	0	0	0	502	511	0	0	
2	0	0	0	0	504	509	0	0	
3	0	0	0	0	504	511	0	0	
4	0	0	0	0	508	510	0	0	
5	0	0	0	0	511	510	0	0	
6	0	0	0	0	513	513	0	0	
7	0	0	0	0	515	511	0	0	
8	0	0	0	0	516	509	0	0	
9	0	0	0	0	518	510	0	0	
10	0	0	0	0	520	511	0	0	
11	0	0	0	0	518	510	0	0	
12	0	0	0	0	510	510	0	0	
13	0	0	0	0	508	511	0	0	
14	0	0	0	0	508	512	0	0	
15	0	0	0	0	506	508	0	0	
0	0	0	0	0	504	511	0	0	
1	0	0	0	0	503	511	0	0	
2	0	0	0	0	500	509	0	0	
3	0	0	0	0	499	510	0	0	
4	0	0	0	0	503	510	0	0	
5	0	0	0	0	504	509	0	0	
6	0	0	0	0	503	510	0	0	
7	0	0	0	0	504	510	0	0	
8	0	0	0	0	507	511	0	0	
9	0	0	0	0	511	509	0	0	
10	0	0	0	0	513	512	0	0	
11	0	0	0	0	513	511	0	0	
12	0	0	0	0	516	512	0	0	
13	0	0	0	0	517	509	0	0	
14	0	0	0	0	516	512	0	0	
15	0	0	0	0	513	512	0	0	
0	0	0	0	0	511	511	0	0	
1	0	0	0	0	511	510	0	0	
2	0	0	0	0	508	511	0	0	
3	0	0	0	0	507	509	0	0	
4	0	0	0	0	503	511	0	0	
5	0	0	0	0	504	511	0	0	
6	0	0	0	0	504	509	0	0	
7	0	0	0	0	502	508	0	0	
8	0	0	0	0	504	511	0	0	
9	0	0	0	0	504	512	0	0	
10	0	0	0	0	505	511	0	0	
11	0	0	0	0	505	510	0	0	
12	0	0	0	0	505	509	0	0	
13	0	0	0	0	508	510	0	0	
14	0	0	0	0	510	510	0	0	
15	0	0	0	0	512	510	0	0	
0	0	0	0	0	515	509	0	0	
1	0	0	0	0	514	510	0	0	
2	0	0	0	0	514	511	0	0	
3	0	0	0	0	514	513	0	0	
4	0	0	0	0	512	513	0	0	
5	0	0	0	0	509	510	0	0	
6	0	0	0	0	508	509	0	0	
7	0	0	0	0	506	511	0	0	
8	0	0	0	0	504	511	0	0	
9	0	0	0	0	507	511	0	0	
10	0	0	0	0	505	508	0	0	
11	0	0	0	0	504	510	0	0	
12	0	0	0	0	504	509	0	0	
13	0	0	0	0	503	510	0	0	
14	0	0	0	0	504	510	0	0	
15	0	0	0	0	506	511	0	0	
0	0	0	0	0	507	511	0	0	
1	0	0	0	0	512	511	0	0	
2	0	0	0	0	513	511	0	0	
3	0	0	0	0	512	510	0	0	
4	0	0	0	0	515	509	0	0	
5	0	0	0	0	516	513	0	0	
6	0	0	0	0	513	511	0	0	
7	0	0	0	0	514	512	0	0	
8	0	0	0	0	510	512	0	0	
9	0	0	0	0	509	512	0	0	
10	0	0	0	0	509	510	0	0	
11	0	0	0	0	506	511	0	0	
12	0	0	0	0	505	509	0	0	
13	0	0	0	0	503	509	0	0	
14	0	0	0	0	502	509	0	0	
15	0	0	0	0	503	509	0	0	
0	0	0	0	0	503	507	0	0	
1	0	0	0	0	504	509	0	0	
2	0	0	0	0	504	509	0	0	
3	0	0	0	0	505	511	0	0	
4	0	0	0	0	510	512	0	0	
5	0	0	0	0	510	509	0	0	
6	0	0	0	0	510	510	0	0	
7	0	0	0	0	512	510	0	0	
8	0	0	0	0	514	512	0	0	
9	0	0	0	0	515	510	0	0	
10	0	0	0	0	515	513	0	0	
11	0	0	0	0	515	511	0	0	
12	0	0	0	0	511	511	0	0	
13	0	0	0	0	509	514	0	0	
14	0	0	0	0	510	513	0	0	
15	0	0	0	0	507	508	0	0	
0	0	0	0	0	504	510	0	0	
1	0	0	0	0	505	508	0	0	
2	0	0	0	0	504	510	0	0	
3	0	0	0	0	504	509	0	0	
4	0	0	0	0	503	510	0	0	
5	0	0	0	0	506	512	0	0	
6	0	0	0	0	507	509	0	0	
7	0	0	0	0	505	510	0	0	
8	0	0	0	0	510	510	0	0	
9	0	0	0	0	507	511	0	0	
10	0	0	0	0	508	510	0	0	
11	0	0	0	0	511	511	0	0	
12	0	0	0	0	516	512	0	0	
13	0	0	0	0	515	510	0	0	
14	0	0	0	0	513	510	0	0	
15	0	0	0	0	513	509	0	0	
0	0	0	0	0	511	509	0	0	
1	0	0	0	0	509	509	0	0	
2	0	0	0	0	509	510	0	0	
3	0	0	0	0	509	513	0	0	
4	0	0	0	0	505	510	0	0	
5	0	0	0	0	505	512	0	0	
6	0	0	0	0	504	511	0	0	
7	0	0	0	0	502	511	0	0	
8	0	0	0	0	502	511	0	0	
9	0	0	0	0	504	510	0	0	
10	0	0	0	0	505	508	0	0	
11	0	0	0	0	505	508	0	0	
12	0	0	0	0	506	509	0	0	
13	0	0	0	0	509	511	0	0	
14	0	0	0	0	512	512	0	0	
15	0	0	0	0	511	513	0	0	
0	0	0	0	0	514	511	0	0	
1	0	0	0	0	514	510	0	0	
2	0	0	0	0	516	509	0	0	
3	0	0	0	0	516	510	0	0	
4	0	0	0	0	513	510	0	0	
5	0	0	0	0	510	512	0	0	
6	0	0	0	0	509	510	0	0	
7	0	0	0	0	505	511	0	0	
8	0	0	0	0	503	510	0	0	
9	0	0	0	0	503	511	0	0	
10	0	0	0	0	505	510	0	0	
11	0	0	0	0	501	510	0	0	
12	0	0	0	0	500	509	0	0	
13	0	0	0	0	500	511	0	0	
14	0	0	0	0	507	511	0	0	
15	0	0	0	0	511	512	0	0	
0	0	0	0	0	508	513	0	0	
1	0	0	0	0	512	511	0	0	
2	0	0	0	0	515	511	0	0	
3	0	0	0	0	517	512	0	0	
4	0	0	0	0	518	511	0	0	
5	0	0	0	0	516	511	0	0	
6	0	0	0	0	512	512	0	0	
7	0	0	0	0	513	511	0	0	
8	0	0	0	0	509	510	0	0	
9	0	0	0	0	510	512	0	0	
10	0	0	0	0	508	510	0	0	
11	0	0	0	0	507	511	0	0	
12	0	0	0	0	505	512	0	0	
13	0	0	0	0	501	510	0	0	
14	0	0	0	0	502	510	0	0	
15	0	0	0	0	503	509	0	0	
0	0	0	0	0	504	510	0	0	
1	0	0	0	0	506	509	0	0	
2	0	0	0	0	505	507	0	0	
3	0	0	0	0	505	507	0	0	
4	0	0	0	0	506	510	0	0	
5	0	0	0	0	509	512	0	0	
6	0	0	0	0	512	511	0	0	
7	0	0	0	0	513	510	0	0	
8	0	0	0	0	513	512	0	0	
9	0	0	0	0	515	511	0	0	
10	0	0	0	0	514	512	0	0	
11	0	0	0	0	515	513	0	0	
12	0	0	0	0	513	512	0	0	
13	0	0	0	0	510	512	0	0	
14	0	0	0	0	508	510	0	0	
15	0	0	0	0	507	508	0	0	
0	0	0	0	0	504	508	0	0	
1	0	0	0	0	503	510	0	0	
2	0	0	0	0	503	507	0	0	
3	0	0	0	0	502	510	0	0	
4	0	0	0	0	505	510	0	0	
5	0	0	0	0	504	509	0	0	
6	0	0	0	0	505	510	0	0	
7	0	0	0	0	505	511	0	0	
8	0	0	0	0	506	510	0	0	
9	0	0	0	0	511	511	0	0	
10	0	0	0	0	512	511	0	0	
11	0	0	0	0	512	511	0	0	
12	0	0	0	0	515	511	0	0	
13	0	0	0	0	515	511	0	0	
14	0	0	0	0	513	512	0	0	
15	0	0	0	0	513	513	0	0	
0	0	0	0	0	511	511	0	0	
1	0	0	0	0	510	512	0	0	
2	0	0	0	0	509	510	0	0	
3	0	0	0	0	509	511	0	0	
4	0	0	0	0	507	512	0	0	
5	0	0	0	0	504	510	0	0	
6	0	0	0	0	504	510	0	0	
7	0	0	0	0	501	509	0	0	
8	0	0	0	0	504	511	0	0	
9	0	0	0	0	502	508	0	0	
10	0	0	0	0	501	508	0	0	
11	0	0	0	0	505	511	0	0	
12	0	0	0	0	508	510	0	0	
13	0	0	0	0	513	511	0	0	
14	0	0	0	0	514	512	0	0	
15	0	0	0	0	512	509	0	0	
0	0	0	0	0	514	512	0	0	
1	0	0	0	0	515	509	0	0	
2	0	0	0	0	516	511	0	0	
3	0	0	0	0	512	510	0	0	
4	0	0	0	0	509	510	0	0	
5	0	0	0	0	510	509	0	0	
6	0	0	0	0	508	510	0	0	
7	0	0	0	0	507	512	0	0	
8	0	0	0	0	507	511	0	0	
9	0	0	0	0	505	510	0	0	
10	0	0	0	0	503	510	0	0	
11	0	0	0	0	500	510	0	0	
12	0	0	0	0	502	507	0	0	
13	0	0	0	0	503	511	0	0	
14	0	0	0	0	509	510	0	0	
15	0	0	0	0	509	511	0	0	
0	0	0	0	0	508	511	0	0	
1	0	0	0	0	510	512	0	0	
2	0	0	0	0	512	513	0	0	
3	0	0	0	0	514	512	0	0	
4	0	0	0	0	514	511	0	0	
5	0	0	0	0	514	510	0	0	
6	0	0	0	0	513	510	0	0	
7	0	0	0	0	515	512	0	0	
8	0	0	0	0	511	510	0	0	
9	0	0	0	0	508	509	0	0	
10	0	0	0	0	510	510	0	0	
11	0	0	0	0	506	512	0	0	
12	0	0	0	0	504	511	0	0	
13	0	0	0	0	505	512	0	0	
14	0	0	0	0	503	509	0	0	
15	0	0	0	0	504	510	0	0	
0	0	0	0	0	504	508	0	0	
1	0	0	0	0	503	509	0	0	
2	0	0	0	0	504	510	0	0	
3	0	0	0	0	507	512	0	0	
4	0	0	0	0	508	510	0	0	
5	0	0	0	0	510	511	0	0	
6	0	0	0	0	511	511	0	0	
7	0	0	0	0	511	512	0	0	
8	0	0	0	0	512	512	0	0	
9	0	0	0	0	516	512	0	0	
10	0	0	0	0	516	510	0	0	
11	0	0	0	0	514	512	0	0	
12	0	0	0	0	514	512	0	0	
13	0	0	0	0	511	512	0	0	
14	0	0	0	0	506	509	0	0	
15	0	0	0	0	503	509	0	0	
0	0	0	0	0	503	508	0	0	
1	0	0	0	0	504	508	0	0	
2	0	0	0	0	503	508	0	0	
3	0	0	0	0	505	510	0	0	
4	0	0	0	0	504	509	0	0	
5	0	0	0	0	508	511	0	0	
6	0	0	0	0	508	512	0	0	
7	0	0	0	0	509	509	0	0	
8	0	0	0	0	508	508	0	0	
9	0	0	0	0	508	511	0	0	
10	0	0	0	0	509	512	0	0	
11	0	0	0	0	512	512	0	0	
12	0	0	0	0	514	510	0	0	
13	0	0	0	0	515	511	0	0	
14	0	0	0	0	515	510	0	0	
15	0	0	0	0	513	511	0	0	
0	0	0	0	0	511	511	0	0	
1	0	0	0	0	509	511	0	0	
2	0	0	0	0	509	510	0	0	
3	0	0	0	0	507	511	0	0	
4	0	0	0	0	505	510	0	0	
5	0	0	0	0	504	511	0	0	
6	0	0	0	0	505	512	0	0	
7	0	0	0	0	504	512	0	0	
8	0	0	0	0	505	510	0	0	
9	0	0	0	0	499	511	0	0	
10	0	0	0	0	501	509	0	0	
11	0	0	0	0	506	512	0	0	
12	0	0	0	0	507	509	0	0	
13	0	0	0	0	511	510	0	0	
14	0	0	0	0	510	511	0	0	
15	0	0	0	0	511	511	0	0	
0	0	0	0	0	513	509	0	0	
1	0	0	0	0	518	508	0	0	
2	0	0	0	0	515	508	0	0	
3	0	0	0	0	515	510	0	0	
4	0	0	0	0	512	511	0	0	
5	0	0	0	0	511	511	0	0	
6	0	0	0	0	507	510	0	0	
7	0	0	0	0	506	510	0	0	
8	0	0	0	0	505	511	0	0	
9	0	0	0	0	504	512	0	0	
10	0	0	0	0	502	509	0	0	
11	0	0	0	0	503	509	0	0	
12	0	0	0	0	502	511	0	0	
13	0	0	0	0	503	511	0	0	
14	0	0	0	0	507	508	0	0	
15	0	0	0	0	509	512	0	0	
0	0	0	0	0	508	509	0	0	
1	0	0	0	0	511	511	0	0	
2	0	0	0	0	510	510	0	0	
3	0	0	0	0	514	511	0	0	
4	0	0	0	0	515	513	0	0	
5	0	0	0	0	516	511	0	0	
6	0	0	0	0	514	510	0	0	
7	0	0	0	0	512	510	0	0	
8	0	0	0	0	512	509	0	0	
9	0	0	0	0	509	511	0	0	
10	0	0	0	0	509	511	0	0	
11	0	0	0	0	505	508	0	0	
12	0	0	0	0	506	510	0	0	
13	0	0	0	0	504	510	0	0	
14	0	0	0	0	504	511	0	0	
15	0	0	0	0	505	509	0	0	
0	0	0	0	0	502	510	0	0	
1	0	0	0	0	502	509	0	0	
2	0	0	0	0	505	511	0	0	
3	0	0	0	0	504	511	0	0	
4	0	0	0	0	508	513	0	0	
5	0	0	0	0	510	508	0	0	
6	0	0	0	0	513	512	0	0	
7	0	0	0	0	513	512	0	0	
8	0	0	0	0	516	511	0	0	
9	0	0	0	0	517	510	0	0	
10	0	0	0	0	513	511	0	0	
11	0	0	0	0	514	511	0	0	
12	0	0	0	0	512	510	0	0	
13	0	0	0	0	509	510	0	0	
14	0	0	0	0	508	511	0	0	
15	0	0	0	0	508	512	0	0	
0	0	0	0	0	507	513	0	0	
1	0	0	0	0	504	511	0	0	
2	0	0	0	0	502	509	0	0	
3	0	0	0	0	501	511	0	0	
4	0	0	0	0	503	511	0	0	
5	0	0	0	0	503	511	0	0	
6	0	0	0	0	506	509	0	0	
7	0	0	0	0	508	510	0	0	
8	0	0	0	0	509	511	0	0	
9	0	0	0	0	511	509	0	0	
10	0	0	0	0	512	511	0	0	
11	0	0	0	0	510	511	0	0	
12	0	0	0	0	514	511	0	0	
13	0	0	0	0	513	511	0	0	
14	0	0	0	0	512	511	0	0	
15	0	0	0	0	512	510	0	0	
0	0	0	0	0	512	513	0	0	
1	0	0	0	0	510	509	0	0	
2	0	0	0	0	512	510	0	0	
3	0	0	0	0	510	510	0	0	
4	0	0	0	0	510	510	0	0	
5	0	0	0	0	509	510	0	0	
6	0	0	0	0	504	511	0	0	
7	0	0	0	0	501	510	0	0	
8	0	0	0	0	502	508	0	0	
9	0	0	0	0	501	510	0	0	
10	0	0	0	0	504	510	0	0	
11	0	0	0	0	505	511	0	0	
12	0	0	0	0	508	511	0	0	
13	0	0	0	0	509	512	0	0	
14	0	0	0	0	514	511	0	0	
15	0	0	0	0	510	510	0	0	
0	0	0	0	0	515	512	0	0	
1	0	0	0	0	514	510	0	0	
2	0	0	0	0	516	511	0	0	
3	0	0	0	0	512	512	0	0	
4	0	0	0	0	511	512	0	0	
5	0	0	0	0	510	513	0	0	
6	0	0	0	0	511	510	0	0	
7	0	0	0	0	505	511	0	0	
8	0	0	0	0	502	511	0	0	
9	0	0	0	0	503	509	0	0	
10	0	0	0	0	503	510	0	0	
11	0	0	0	0	502	510	0	0	
12	0	0	0	0	504	509	0	0	
13	0	0	0	0	507	510	0	0	
14	0	0	0	0	508	509	0	0	
15	0	0	0	0	508	511	0	0	
0	0	0	0	0	504	509	0	0	
1	0	0	0	0	509	507	0	0	
2	0	0	0	0	515	511	0	0	
3	0	0	0	0	515	511	0	0	
4	0	0	0	0	514	509	0	0	
5	0	0	0	0	515	509	0	0	
6	0	0	0	0	513	511	0	0	
7	0	0	0	0	512	511	0	0	
8	0	0	0	0	508	512	0	0	
9	0	0	0	0	508	511	0	0	
10	0	0	0	0	508	512	0	0	
11	0	0	0	0	507	512	0	0	
12	0	0	0	0	508	513	0	0	
13	0	0	0	0	504	509	0	0	
14	0	0	0	0	502	510	0	0	
15	0	0	0	0	502	511	0	0	
0	0	0	0	0	504	511	0	0	
1	0	0	0	0	505	511	0	0	
2	0	0	0	0	505	509	0	0	
3	0	0	0	0	508	510	0	0	
4	0	0	0	0	507	508	0	0	
5	0	0	0	0	510	511	0	0	
6	0	0	0	0	513	510	0	0	
7	0	0	0	0	517	512	0	0	
8	0	0	0	0	513	509	0	0	
9	0	0	0	0	512	510	0	0	
10	0	0	0	0	516	511	0	0	
11	0	0	0	0	513	511	0	0	
12	0	0	0	0	511	514	0	0	
13	0	0	0	0	509	509	0	0	
14	0	0	0	0	510	512	0	0	
15	0	0	0	0	506	510	0	0	
0	0	0	0	0	506	510	0	0	
1	0	0	0	0	504	510	0	0	
2	0	0	0	0	502	511	0	0	
3	0	0	0	0	501	511	0	0	
4	0	0	0	0	504	511	0	0	
5	0	0	0	0	502	511	0	0	
6	0	0	0	0	505	514	0	0	
7	0	0	0	0	506	511	0	0	
8	0	0	0	0	507	510	0	0	
9	0	0	0	0	510	510	0	0	
10	0	0	0	0	513	510	0	0	
11	0	0	0	0	513	512	0	0	
12	0	0	0	0	517	511	0	0	
13	0	0	0	0	517	511	0	0	
14	0	0	0	0	515	510	0	0	
15	0	0	0	0	511	510	0	0	
0	0	0	0	0	511	511	0	0	
1	0	0	0	0	509	512	0	0	
2	0	0	0	0	508	511	0	0	
3	0	0	0	0	507	512	0	0	
4	0	0	0	0	505	512	0	0	
5	0	0	0	0	504	509	0	0	
6	0	0	0	0	502	510	0	0	
7	0	0	0	0	501	508	0	0	
8	0	0	0	0	503	508	0	0	
9	0	0	0	0	502	510	0	0	
10	0	0	0	0	507	508	0	0	
11	0	0	0	0	508	511	0	0	
12	0	0	0	0	508	511	0	0	
13	0	0	0	0	509	511	0	0	
14	0	0	0	0	513	511	0	0	
15	0	0	0	0	513	511	0	0	
0	0	0	0	0	515	511	0	0	
1	0	0	0	0	514	510	0	0	
2	0	0	0	0	515	513	0	0	
3	0	0	0	0	512	511	0	0	
4	0	0	0	0	511	512	0	0	
5	0	0	0	0	510	510	0	0	
6	0	0	0	0	509	510	0	0	
7	0	0	0	0	508	510	0	0	
8	0	0	0	0	506	511	0	0	
9	0	0	0	0	506	511	0	0	
10	0	0	0	0	501	511	0	0	
11	0	0	0	0	499	509	0	0	
12	0	0	0	0	500	509	0	0	
13	0	0	0	0	504	510	0	0	
14	0	0	0	0	504	510	0	0	
15	0	0	0	0	508	511	0	0	
0	0	0	0	0	507	509	0	0	
1	0	0	0	0	511	508	0	0	
2	0	0	0	0	513	511	0	0	
3	0	0	0	0	515	511	0	0	
4	0	0	0	0	515	512	0	0	
5	0	0	0	0	517	511	0	0	
6	0	0	0	0	515	510	0	0	
7	0	0	0	0	516	511	0	0	
8	0	0	0	0	514	513	0	0	
9	0	0	0	0	515	511	0	0	
10	0	0	0	0	512	510	0	0	
11	0	0	0	0	504	510	0	0	
12	0	0	0	0	499	511	0	0	
13	0	0	0	0	502	511	0	0	
14	0	0	0	0	500	510	0	0	
15	0	0	0	0	499	513	0	0	
0	0	0	0	0	503	509	0	0	
1	0	0	0	0	502	510	0	0	
2	0	0	0	0	504	511	0	0	
3	0	0	0	0	504	510	0	0	
4	0	0	0	0	507	509	0	0	
5	0	0	0	0	511	511	0	0	
6	0	0	0	0	513	511	0	0	
7	0	0	0	0	514	509	0	0	
8	0	0	0	0	518	510	0	0	
9	0	0	0	0	519	513	0	0	
10	0	0	0	0	513	510	0	0	
11	0	0	0	0	512	512	0	0	
12	0	0	0	0	512	510	0	0	
13	0	0	0	0	509	509	0	0	
14	0	0	0	0	508	511	0	0	
15	0	0	0	0	506	512	0	0	
0	0	0	0	0	507	511	0	0	
1	0	0	0	0	504	513	0	0	
2	0	0	0	0	500	510	0	0	
3	0	0	0	0	502	510	0	0	
4	0	0	0	0	503	509	0	0	
5	0	0	0	0	503	510	0	0	
6	0	0	0	0	506	509	0	0	
7	0	0	0	0	507	511	0	0	
8	0	0	0	0	509	510	0	0	
9	0	0	0	0	511	510	0	0	
10	0	0	0	0	512	511	0	0	
11	0	0	0	0	513	510	0	0	
12	0	0	0	0	516	510	0	0	
13	0	0	0	0	515	511	0	0	
14	0	0	0	0	514	509	0	0	
15	0	0	0	0	512	511	0	0	
0	0	0	0	0	512	511	0	0	
1	0	0	0	0	511	511	0	0	
2	0	0	0	0	509	510	0	0	
3	0	0	0	0	505	512	0	0	
4	0	0	0	0	504	510	0	0	
5	0	0	0	0	502	509	0	0	
6	0	0	0	0	503	510	0	0	
7	0	0	0	0	503	509	0	0	
8	0	0	0	0	503	511	0	0	
9	0	0	0	0	504	512	0	0	
10	0	0	0	0	507	510	0	0	
11	0	0	0	0	508	512	0	0	
12	0	0	0	0	508	513	0	0	
13	0	0	0	0	509	512	0	0	
14	0	0	0	0	510	511	0	0	
15	0	0	0	0	513	508	0	0	
0	0	0	0	0	515	511	0	0	
1	0	0	0	0	516	511	0	0	
2	0	0	0	0	514	512	0	0	
3	0	0	0	0	513	512	0	0	
4	0	0	0	0	511	511	0	0	
5	0	0	0	0	511	510	0	0	
6	0	0	0	0	509	511	0	0	
7	0	0	0	0	508	511	0	0	
8	0	0	0	0	504	511	0	0	
9	0	0	0	0	501	510	0	0	
10	0	0	0	0	502	510	0	0	
11	0	0	0	0	502	509	0	0	
12	0	0	0	0	503	506	0	0	
13	0	0	0	0	503	511	0	0	
14	0	0	0	0	504	508	0	0	
15	0	0	0	0	512	510	0	0	
0	0	0	0	0	512	511	0	0	
1	0	0	0	0	508	510	0	0	
2	0	0	0	0	509	511	0	0	
3	0	0	0	0	512	511	0	0	
4	0	0	0	0	515	515	0	0	
5	0	0	0	0	514	513	0	0	
6	0	0	0	0	515	511	0	0	
7	0	0	0	0	514	512	0	0	
8	0	0	0	0	511	510	0	0	
9	0	0	0	0	510	510	0	0	
10	0	0	0	0	508	509	0	0	
11	0	0	0	0	503	510	0	0	
12	0	0	0	0	504	510	0	0	
13	0	0	0	0	503	509	0	0	
14	0	0	0	0	503	511	0	0	
15	0	0	0	0	506	508	0	0	
0	0	0	0	0	508	508	0	0	
1	0	0	0	0	508	509	0	0	
2	0	0	0	0	511	511	0	0	
3	0	0	0	0	509	511	0	0	
4	0	0	0	0	504	511	0	0	
5	0	0	0	0	508	512	0	0	
6	0	0	0	0	510	512	0	0	
7	0	0	0	0	511	510	0	0	
8	0	0	0	0	511	511	0	0	
9	0	0	0	0	514	509	0	0	
10	0	0	0	0	514	512	0	0	
11	0	0	0	0	512	511	0	0	
12	0	0	0	0	512	511	0	0	
13	0	0	0	0	510	511	0	0	
14	0	0	0	0	507	510	0	0	
15	0	0	0	0	507	512	0	0	
0	0	0	0	0	504	509	0	0	
1	0	0	0	0	506	512	0	0	
2	0	0	0	0	502	510	0	0	
3	0	0	0	0	504	511	0	0	
4	0	0	0	0	504	510	0	0	
5	0	0	0	0	504	509	0	0	
6	0	0	0	0	503	509	0	0	
7	0	0	0	0	505	510	0	0	
8	0	0	0	0	508	509	0	0	
9	0	0	0	0	512	512	0	0	
10	0	0	0	0	512	511	0	0	
11	0	0	0	0	513	510	0	0	
12	0	0	0	0	514	510	0	0	
13	0	0	0	0	515	510	0	0	
14	0	0	0	0	513	510	0	0	
15	0	0	0	0	516	512	0	0	
0	0	0	0	0	514	511	0	0	
1	0	0	0	0	511	512	0	0	
2	0	0	0	0	508	511	0	0	
3	0	0	0	0	505	510	0	0	
4	0	0	0	0	506	510	0	0	
5	0	0	0	0	505	511	0	0	
6	0	0	0	0	501	507	0	0	
7	0	0	0	0	500	509	0	0	
8	0	0	0	0	503	510	0	0	
9	0	0	0	0	503	510	0	0	
10	0	0	0	0	507	511	0	0	
11	0	0	0	0	505	510	0	0	
12	0	0	0	0	509	510	0	0	
13	0	0	0	0	511	510	0	0	
14	0	0	0	0	512	512	0	0	
15	0	0	0	0	512	512	0	0	
0	0	0	0	0	514	512	0	0	
1	0	0	0	0	516	510	0	0	
2	0	0	0	0	516	511	0	0	
3	0	0	0	0	516	512	0	0	
4	0	0	0	0	515	509	0	0	
5	0	0	0	0	511	511	0	0	
6	0	0	0	0	510	510	0	0	
7	0	0	0	0	503	510	0	0	
8	0	0	0	0	502	511	0	0	
9	0	0	0	0	504	511	0	0	
10	0	0	0	0	501	510	0	0	
11	0	0	0	0	501	512	0	0	
12	0	0	0	0	504	512	0	0	
13	0	0	0	0	505	511	0	0	
14	0	0	0	0	505	508	0	0	
15	0	0	0	0	508	511	0	0	
0	0	0	0	0	506	510	0	0	
1	0	0	0	0	509	509	0	0	
2	0	0	0	0	512	511	0	0	
3	0	0	0	0	513	511	0	0	
4	0	0	0	0	512	511	0	0	
5	0	0	0	0	515	509	0	0	
6	0	0	0	0	512	510	0	0	
7	0	0	0	0	514	510	0	0	
8	0	0	0	0	512	510	0	0	
9	0	0	0	0	510	510	0	0	
10	0	0	0	0	508	512	0	0	
11	0	0	0	0	506	511	0	0	
12	0	0	0	0	504	511	0	0	
13	0	0	0	0	506	509	0	0	
14	0	0	0	0	506	511	0	0	
15	0	0	0	0	502	509	0	0	
0	0	0	0	0	502	508	0	0	
1	0	0	0	0	504	510	0	0	
2	0	0	0	0	503	513	0	0	
3	0	0	0	0	503	509	0	0	
4	0	0	0	0	504	509	0	0	
5	0	0	0	0	511	511	0	0	
6	0	0	0	0	515	511	0	0	
7	0	0	0	0	516	510	0	0	
8	0	0	0	0	516	510	0	0	
9	0	0	0	0	519	511	0	0	
10	0	0	0	0	519	509	0	0	
11	0	0	0	0	512	512	0	0	
12	0	0	0	0	511	509	0	0	
13	0	0	0	0	508	511	0	0	
14	0	0	0	0	508	511	0	0	
15	0	0	0	0	504	510	0	0	
0	0	0	0	0	505	511	0	0	
1	0	0	0	0	504	511	0	0	
2	0	0	0	0	502	510	0	0	
3	0	0	0	0	503	511	0	0	
4	0	0	0	0	504	510	0	0	
5	0	0	0	0	504	510	0	0	
6	0	0	0	0	504	510	0	0	
7	0	0	0	0	507	510	0	0	
8	0	0	0	0	507	512	0	0	
9	0	0	0	0	511	510	0	0	
10	0	0	0	0	510	509	0	0	
11	0	0	0	0	511	508	0	0	
12	0	0	0	0	513	511	0	0	
13	0	0	0	0	513	511	0	0	
14	0	0	0	0	513	512	0	0	
15	0	0	0	0	515	511	0	0	
0	0	0	0	0	512	512	0	0	
1	0	0	0	0	512	512	0	0	
2	0	0	0	0	508	512	0	0	
3	0	0	0	0	509	509	0	0	
4	0	0	0	0	505	511	0	0	
5	0	0	0	0	503	510	0	0	
6	0	0	0	0	499	510	0	0	
7	0	0	0	0	503	508	0	0	
8	0	0	0	0	505	508	0	0	
9	0	0	0	0	505	512	0	0	
10	0	0	0	0	506	512	0	0	
11	0	0	0	0	506	513	0	0	
12	0	0	0	0	507	512	0	0	
13	0	0	0	0	510	510	0	0	
14	0	0	0	0	511	511	0	0	
15	0	0	0	0	510	509	0	0	
0	0	0	0	0	515	511	0	0	
1	0	0	0	0	515	510	0	0	
2	0	0	0	0	513	510	0	0	
3	0	0	0	0	515	512	0	0	
4	0	0	0	0	515	510	0	0	
5	0	0	0	0	508	509	0	0	
6	0	0	0	0	509	510	0	0	
7	0	0	0	0	504	510	0	0	
8	0	0	0	0	503	511	0	0	
9	0	0	0	0	503	510	0	0	
10	0	0	0	0	504	510	0	0	
11	0	0	0	0	506	509	0	0	
12	0	0	0	0	506	509	0	0	
13	0	0	0	0	505	511	0	0	
14	0	0	0	0	504	509	0	0	
15	0	0	0	0	506	511	0	0	
0	0	0	0	0	506	508	0	0	
1	0	0	0	0	509	511	0	0	
2	0	0	0	0	511	510	0	0	
3	0	0	0	0	513	510	0	0	
4	0	0	0	0	518	510	0	0	
5	0	0	0	0	516	510	0	0	
6	0	0	0	0	514	510	0	0	
7	0	0	0	0	513	510	0	0	
8	0	0	0	0	513	511	0	0	
9	0	0	0	0	510	511	0	0	
10	0	0	0	0	508	510	0	0	
11	0	0	0	0	503	510	0	0	
12	0	0	0	0	504	510	0	0	
13	0	0	0	0	505	510	0	0	
14	0	0	0	0	505	510	0	0	
15	0	0	0	0	503	510	0	0	
0	0	0	0	0	503	510	0	0	
1	0	0	0	0	504	510	0	0	
2	0	0	0	0	504	509	0	0	
3	0	0	0	0	507	511	0	0	
4	0	0	0	0	509	509	0	0	
5	0	0	0	0	511	511	0	0	
6	0	0	0	0	513	512	0	0	
7	0	0	0	0	513	511	0	0	
8	0	0	0	0	515	513	0	0	
9	0	0	0	0	514	512	0	0	
10	0	0	0	0	512	511	0	0	
11	0	0	0	0	513	511	0	0	
12	0	0	0	0	511	510	0	0	
13	0	0	0	0	511	512	0	0	
14	0	0	0	0	507	510	0	0	
15	0	0	0	0	505	511	0	0	
0	0	0	0	0	505	512	0	0	
1	0	0	0	0	504	511	0	0	
2	0	0	0	0	504	508	0	0	
3	0	0	0	0	504	511	0	0	
4	0	0	0	0	501	510	0	0	
5	0	0	0	0	504	509	0	0	
6	0	0	0	0	504	510	0	0	
7	0	0	0	0	506	512	0	0	
8	0	0	0	0	508	509	0	0	
9	0	0	0	0	508	509	0	0	
10	0	0	0	0	513	509	0	0	
11	0	0	0	0	513	509	0	0	
12	0	0	0	0	516	511	0	0	
13	0	0	0	0	516	512	0	0	
14	0	0	0	0	515	510	0	0	
15	0	0	0	0	513	511	0	0	
0	0	0	0	0	509	509	0	0	
1	0	0	0	0	510	512	0	0	
2	0	0	0	0	508	511	0	0	
3	0	0	0	0	508	513	0	0	
4	0	0	0	0	505	509	0	0	
5	0	0	0	0	504	512	0	0	
6	0	0	0	0	502	510	0	0	
7	0	0	0	0	501	508	0	0	
8	0	0	0	0	504	509	0	0	
9	0	0	0	0	503	509	0	0	
10	0	0	0	0	504	508	0	0	
11	0	0	0	0	507	510	0	0	
12	0	0	0	0	508	508	0	0	
13	0	0	0	0	511	509	0	0	
14	0	0	0	0	514	510	0	0	
15	0	0	0	0	512	511	0	0	
0	0	0	0	0	515	510	0	0	
1	0	0	0	0	516	510	0	0	
2	0	0	0	0	513	511	0	0	
3	0	0	0	0	513	512	0	0	
4	0	0	0	0	510	509	0	0	
5	0	0	0	0	511	511	0	0	
6	0	0	0	0	509	511	0	0	
7	0	0	0	0	507	510	0	0	
8	0	0	0	0	504	513	0	0	
9	0	0	0	0	503	511	0	0	
10	0	0	0	0	502	511	0	0	
11	0	0	0	0	502	511	0	0	
12	0	0	0	0	503	510	0	0	
13	0	0	0	0	504	510	0	0	
14	0	0	0	0	503	511	0	0	
15	0	0	0	0	506	510	0	0	
0	0	0	0	0	508	509	0	0	
1	0	0	0	0	512	509	0	0	
2	0	0	0	0	511	511	0	0	
3	0	0	0	0	515	512	0	0	
4	0	0	0	0	514	511	0	0	
5	0	0	0	0	515	510	0	0	
6	0	0	0	0	515	511	0	0	
7	0	0	0	0	512	512	0	0	
8	0	0	0	0	512	512	0	0	
9	0	0	0	0	511	512	0	0	
10	0	0	0	0	510	510	0	0	
11	0	0	0	0	506	511	0	0	
12	0	0	0	0	505	511	0	0	
13	0	0	0	0	504	512	0	0	
14	0	0	0	0	503	510	0	0	
15	0	0	0	0	502	510	0	0	
0	0	0	0	0	503	511	0	0	
1	0	0	0	0	502	509	0	0	
2	0	0	0	0	506	510	0	0	
3	0	0	0	0	506	512	0	0	
4	0	0	0	0	507	510	0	0	
5	0	0	0	0	510	511	0	0	
6	0	0	0	0	513	513	0	0	
7	0	0	0	0	513	512	0	0	
8	0	0	0	0	514	512	0	0	
9	0	0	0	0	516	511	0	0	
10	0	0	0	0	515	511	0	0	
11	0	0	0	0	515	510	0	0	
12	0	0	0	0	511	511	0	0	
13	0	0	0	0	509	510	0	0	
14	0	0	0	0	508	511	0	0	
15	0	0	0	0	506	509	0	0	
0	0	0	0	0	504	511	0	0	
1	0	0	0	0	503	510	0	0	
2	0	0	0	0	501	511	0	0	
3	0	0	0	0	502	510	0	0	
4	0	0	0	0	505	511	0	0	
5	0	0	0	0	504	509	0	0	
6	0	0	0	0	505	508	0	0	
7	0	0	0	0	506	510	0	0	
8	0	0	0	0	508	511	0	0	
9	0	0	0	0	510	510	0	0	
10	0	0	0	0	513	512	0	0	
11	0	0	0	0	513	510	0	0	
12	0	0	0	0	513	511	0	0	
13	0	0	0	0	515	512	0	0	
14	0	0	0	0	515	510	0	0	
15	0	0	0	0	512	510	0	0	
0	0	0	0	0	512	512	0	0	
1	0	0	0	0	509	510	0	0	
2	0	0	0	0	508	509	0	0	
3	0	0	0	0	508	508	0	0	
4	0	0	0	0	505	510	0	0	
5	0	0	0	0	507	511	0	0	
6	0	0	0	0	504	509	0	0	
7	0	0	0	0	502	510	0	0	
8	0	0	0	0	500	511	0	0	
9	0	0	0	0	504	512	0	0	
10	0	0	0	0	506	509	0	0	
11	0	0	0	0	507	511	0	0	
12	0	0	0	0	508	512	0	0	
13	0	0	0	0	511	511	0	0	
14	0	0	0	0	513	512	0	0	
15	0	0	0	0	512	510	0	0	
0	0	0	0	0	514	510	0	0	
1	0	0	0	0	515	510	0	0	
2	0	0	0	0	515	511	0	0	
3	0	0	0	0	515	511	0	0	
4	0	0	0	0	511	511	0	0	
5	0	0	0	0	509	509	0	0	
6	0	0	0	0	507	510	0	0	
7	0	0	0	0	505	510	0	0	
8	0	0	0	0	504	513	0	0	
9	0	0	0	0	504	512	0	0	
10	0	0	0	0	504	510	0	0	
11	0	0	0	0	504	510	0	0	
12	0	0	0	0	502	511	0	0	
13	0	0	0	0	504	510	0	0	
14	0	0	0	0	505	510	0	0	
15	0	0	0	0	504	510	0	0	
0	0	0	0	0	508	511	0	0	
1	0	0	0	0	512	511	0	0	
2	0	0	0	0	512	512	0	0	
3	0	0	0	0	512	512	0	0	
4	0	0	0	0	514	511	0	0	
5	0	0	0	0	516	510	0	0	
6	0	0	0	0	514	509	0	0	
7	0	0	0	0	516	511	0	0	
8	0	0	0	0	511	511	0	0	
9	0	0	0	0	511	512	0	0	
10	0	0	0	0	508	510	0	0	
11	0	0	0	0	506	510	0	0	
12	0	0	0	0	504	510	0	0	
13	0	0	0	0	505	511	0	0	
14	0	0	0	0	504	511	0	0	
15	0	0	0	0	503	510	0	0	
0	0	0	0	0	503	511	0	0	
1	0	0	0	0	504	510	0	0	
2	0	0	0	0	506	509	0	0	
3	0	0	0	0	506	511	0	0	
4	0	0	0	0	508	511	0	0	
5	0	0	0	0	511	510	0	0	
6	0	0	0	0	513	511	0	0	
7	0	0	0	0	514	511	0	0	
8	0	0	0	0	513	511	0	0	
9	0	0	0	0	515	511	0	0	
10	0	0	0	0	514	510	0	0	
11	0	0	0	0	512	512	0	0	
12	0	0	0	0	511	512	0	0	
13	0	0	0	0	511	513	0	0	
14	0	0	0	0	507	512	0	0	
15	0	0	0	0	505	511	0	0	
0	0	0	0	0	505	510	0	0	
1	0	0	0	0	504	508	0	0	
2	0	0	0	0	504	510	0	0	
3	0	0	0	0	502	510	0	0	
4	0	0	0	0	505	510	0	0	
5	0	0	0	0	504	510	0	0	
6	0	0	0	0	505	509	0	0	
7	0	0	0	0	505	509	0	0	
8	0	0	0	0	508	507	0	0	
9	0	0	0	0	511	509	0	0	
10	0	0	0	0	513	512	0	0	
11	0	0	0	0	513	511	0	0	
12	0	0	0	0	516	510	0	0	
13	0	0	0	0	516	512	0	0	
14	0	0	0	0	513	510	0	0	
15	0	0	0	0	513	511	0	0	
0	0	0	0	0	511	511	0	0	
1	0	0	0	0	510	513	0	0	
2	0	0	0	0	507	510	0	0	
3	0	0	0	0	507	511	0	0	
4	0	0	0	0	505	512	0	0	
5	0	0	0	0	504	511	0	0	
6	0	0	0	0	502	511	0	0	
7	0	0	0	0	502	511	0	0	
8	0	0	0	0	502	509	0	0	
9	0	0	0	0	504	510	0	0	
10	0	0	0	0	505	510	0	0	
11	0	0	0	0	506	509	0	0	
12	0	0	0	0	508	511	0	0	
13	0	0	0	0	510	511	0	0	
14	0	0	0	0	513	511	0	0	
15	0	0	0	0	515	509	0	0	
0	0	0	0	0	514	508	0	0	
1	0	0	0	0	515	511	0	0	
2	0	0	0	0	514	511	0	0	
3	0	0	0	0	515	512	0	0	
4	0	0	0	0	512	511	0	0	
5	0	0	0	0	510	512	0	0	
6	0	0	0	0	507	511	0	0	
7	0	0	0	0	506	511	0	0	
8	0	0	0	0	503	512	0	0	
9	0	0	0	0	504	510	0	0	
10	0	0	0	0	504	511	0	0	
11	0	0	0	0	502	512	0	0	
12	0	0	0	0	503	510	0	0	
13	0	0	0	0	504	510	0	0	
14	0	0	0	0	504	509	0	0	
15	0	0	0	0	507	509	0	0	
0	0	0	0	0	507	512	0	0	
1	0	0	0	0	511	511	0	0	
2	0	0	0	0	512	511	0	0	
3	0	0	0	0	514	511	0	0	
4	0	0	0	0	515	511	0	0	
5	0	0	0	0	515	511	0	0	
6	0	0	0	0	515	511	0	0	
7	0	0	0	0	514	510	0	0	
8	0	0	0	0	512	510	0	0	
9	0	0	0	0	508	512	0	0	
10	0	0	0	0	510	511	0	0	
11	0	0	0	0	504	510	0	0	
12	0	0	0	0	504	509	0	0	
13	0	0	0	0	505	508	0	0	
14	0	0	0	0	506	511	0	0	
15	0	0	0	0	503	512	0	0	
0	0	0	0	0	505	511	0	0	
1	0	0	0	0	502	510	0	0	
2	0	0	0	0	504	510	0	0	
3	0	0	0	0	505	509	0	0	
4	0	0	0	0	507	511	0	0	
5	0	0	0	0	510	509	0	0	
6	0	0	0	0	513	508	0	0	
7	0	0	0	0	512	510	0	0	
8	0	0	0	0	516	512	0	0	
9	0	0	0	0	514	511	0	0	
10	0	0	0	0	515	512	0	0	
11	0	0	0	0	513	511	0	0	
12	0	0	0	0	511	509	0	0	
13	0	0	0	0	508	508	0	0	
14	0	0	0	0	507	510	0	0	
15	0	0	0	0	507	509	0	0	
0	0	0	0	0	505	512	0	0	
1	0	0	0	0	504	511	0	0	
2	0	0	0	0	502	510	0	0	
3	0	0	0	0	503	509	0	0	
4	0	0	0	0	503	510	0	0	
5	0	0	0	0	504	511	0	0	
6	0	0	0	0	503	510	0	0	
7	0	0	0	0	508	510	0	0	
8	0	0	0	0	509	513	0	0	
9	0	0	0	0	510	511	0	0	
10	0	0	0	0	514	513	0	0	
11	0	0	0	0	513	510	0	0	
12	0	0	0	0	515	512	0	0	
13	0	0	0	0	516	510	0	0	
14	0	0	0	0	514	510	0	0	
15	0	0	0	0	511	512	0	0	
0	0	0	0	0	512	509	0	0	
1	0	0	0	0	509	512	0	0	
2	0	0	0	0	510	511	0	0	
3	0	0	0	0	507	510	0	0	
4	0	0	0	0	503	512	0	0	
5	0	0	0	0	504	509	0	0	
6	0	0	0	0	503	509	0	0	
7	0	0	0	0	502	512	0	0	
8	0	0	0	0	502	511	0	0	
9	0	0	0	0	505	510	0	0	
10	0	0	0	0	503	509	0	0	
11	0	0	0	0	509	510	0	0	
12	0	0	0	0	511	512	0	0	
13	0	0	0	0	511	511	0	0	
14	0	0	0	0	511	510	0	0	
15	0	0	0	0	511	510	0	0	
0	0	0	0	0	516	511	0	0	
1	0	0	0	0	516	512	0	0	
2	0	0	0	0	517	509	0	0	
3	0	0	0	0	512	512	0	0	
4	0	0	0	0	509	511	0	0	
5	0	0	0	0	508	511	0	0	
6	0	0	0	0	509	513	0	0	
7	0	0	0	0	507	510	0	0	
8	0	0	0	0	504	510	0	0	
9	0	0	0	0	503	511	0	0	
10	0	0	0	0	504	511	0	0	
11	0	0	0	0	504	510	0	0	
12	0	0	0	0	504	509	0	0	
13	0	0	0	0	504	511	0	0	
14	0	0	0	0	507	510	0	0	
15	0	0	0	0	505	509	0	0	
0	0	0	0	0	508	510	0	0	
1	0	0	0	0	511	510	0	0	
2	0	0	0	0	512	512	0	0	
3	0	0	0	0	511	509	0	0	
4	0	0	0	0	516	510	0	0	
5	0	0	0	0	515	510	0	0	
6	0	0	0	0	514	513	0	0	
7	0	0	0	0	513	511	0	0	
8	0	0	0	0	512	509	0	0	
9	0	0	0	0	511	512	0	0	
10	0	0	0	0	508	510	0	0	
11	0	0	0	0	506	509	0	0	
12	0	0	0	0	503	510	0	0	
13	0	0	0	0	503	510	0	0	
14	0	0	0	0	505	512	0	0	
15	0	0	0	0	502	510	0	0	
0	0	0	0	0	502	511	0	0	
1	0	0	0	0	503	512	0	0	
2	0	0	0	0	505	512	0	0	
3	0	0	0	0	505	511	0	0	
4	0	0	0	0	510	511	0	0	
5	0	0	0	0	511	510	0	0	
6	0	0	0	0	513	511	0	0	
7	0	0	0	0	509	510	0	0	
8	0	0	0	0	515	510	0	0	
9	0	0	0	0	516	509	0	0	
10	0	0	0	0	515	511	0	0	
11	0	0	0	0	513	511	0	0	
12	0	0	0	0	511	509	0	0	
13	0	0	0	0	510	511	0	0	
14	0	0	0	0	509	509	0	0	
15	0	0	0	0	505	508	0	0	
0	0	0	0	0	503	510	0	0	
1	0	0	0	0	503	508	0	0	
2	0	0	0	0	503	510	0	0	
3	0	0	0	0	503	513	0	0	
4	0	0	0	0	504	511	0	0	
5	0	0	0	0	505	509	0	0	
6	0	0	0	0	505	510	0	0	
7	0	0	0	0	508	510	0	0	
8	0	0	0	0	507	511	0	0	
9	0	0	0	0	511	511	0	0	
10	0	0	0	0	512	512	0	0	
11	0	0	0	0	512	511	0	0	
12	0	0	0	0	515	510	0	0	
13	0	0	0	0	515	511	0	0	
14	0	0	0	0	513	513	0	0	
15	0	0	0	0	514	510	0	0	
0	0	0	0	0	511	508	0	0	
1	0	0	0	0	511	511	0	0	
2	0	0	0	0	509	511	0	0	
3	0	0	0	0	507	510	0	0	
4	0	0	0	0	504	510	0	0	
5	0	0	0	0	504	509	0	0	
6	0	0	0	0	503	507	0	0	
7	0	0	0	0	502	510	0	0	
8	0	0	0	0	502	510	0	0	
9	0	0	0	0	505	510	0	0	
10	0	0	0	0	506	510	0	0	
11	0	0	0	0	507	510	0	0	
12	0	0	0	0	506	511	0	0	
13	0	0	0	0	510	510	0	0	
14	0	0	0	0	513	511	0	0	
15	0	0	0	0	511	510	0	0	
0	0	0	0	0	516	509	0	0	
1	0	0	0	0	515	511	0	0	
2	0	0	0	0	512	512	0	0	
3	0	0	0	0	513	513	0	0	
4	0	0	0	0	512	510	0	0	
5	0	0	0	0	510	510	0	0	
6	0	0	0	0	508	510	0	0	
7	0	0	0	0	508	511	0	0	
8	0	0	0	0	505	509	0	0	
9	0	0	0	0	507	510	0	0	
10	0	0	0	0	504	510	0	0	
11	0	0	0	0	501	510	0	0	
12	0	0	0	0	500	511	0	0	
13	0	0	0	0	503	510	0	0	
14	0	0	0	0	504	512	0	0	
15	0	0	0	0	508	510	0	0	
0	0	0	0	0	508	511	0	0	
1	0	0	0	0	511	511	0	0	
2	0	0	0	0	513	511	0	0	
3	0	0	0	0	512	509	0	0	
4	0	0	0	0	515	512	0	0	
5	0	0	0	0	515	512	0	0	
6	0	0	0	0	514	511	0	0	
7	0	0	0	0	513	513	0	0	
8	0	0	0	0	511	511	0	0	
9	0	0	0	0	511	512	0	0	
10	0	0	0	0	509	511	0	0	
11	0	0	0	0	505	509	0	0	
12	0	0	0	0	504	508	0	0	
13	0	0	0	0	503	510	0	0	
14	0	0	0	0	504	510	0	0	
15	0	0	0	0	505	510	0	0	
0	0	0	0	0	503	510	0	0	
1	0	0	0	0	503	512	0	0	
2	0	0	0	0	506	508	0	0	
3	0	0	0	0	504	508	0	0	
4	0	0	0	0	507	509	0	0	
5	0	0	0	0	511	509	0	0	
6	0	0	0	0	512	509	0	0	
7	0	0	0	0	513	508	0	0	
8	0	0	0	0	514	511	0	0	
9	0	0	0	0	515	512	0	0	
10	0	0	0	0	513	511	0	0	
11	0	0	0	0	513	513	0	0	
12	0	0	0	0	512	512	0	0	
13	0	0	0	0	512	510	0	0	
14	0	0	0	0	508	510	0	0	
15	0	0	0	0	506	509	0	0	
0	0	0	0	0	503	512	0	0	
1	0	0	0	0	503	511	0	0	
2	0	0	0	0	504	512	0	0	
3	0	0	0	0	503	510	0	0	
4	0	0	0	0	501	510	0	0	
5	0	0	0	0	504	510	0	0	
6	0	0	0	0	507	508	0	0	
7	0	0	0	0	508	510	0	0	
8	0	0	0	0	507	511	0	0	
9	0	0	0	0	511	508	0	0	
10	0	0	0	0	513	511	0	0	
11	0	0	0	0	513	511	0	0	
12	0	0	0	0	514	510	0	0	
13	0	0	0	0	513	510	0	0	
14	0	0	0	0	516	510	0	0	
15	0	0	0	0	513	510	0	0	
0	0	0	0	0	512	512	0	0	
1	0	0	0	0	511	512	0	0	
2	0	0	0	0	512	511	0	0	
3	0	0	0	0	507	511	0	0	
4	0	0	0	0	504	511	0	0	
5	0	0	0	0	503	511	0	0	
6	0	0	0	0	504	511	0	0	
7	0	0	0	0	504	511	0	0	
8	0	0	0	0	503	510	0	0	
9	0	0	0	0	504	511	0	0	
10	0	0	0	0	505	513	0	0	
11	0	0	0	0	507	512	0	0	
12	0	0	0	0	508	511	0	0	
13	0	0	0	0	511	508	0	0	
14	0	0	0	0	511	510	0	0	
15	0	0	0	0	512	509	0	0	
0	0	0	0	0	515	510	0	0	
1	0	0	0	0	515	511	0	0	
2	0	0	0	0	515	510	0	0	
3	0	0	0	0	513	511	0	0	
4	0	0	0	0	512	510	0	0	
5	0	0	0	0	508	511	0	0	
6	0	0	0	0	508	510	0	0	
7	0	0	0	0	504	511	0	0	
8	0	0	0	0	506	509	0	0	
9	0	0	0	0	502	510	0	0	
10	0	0	0	0	503	510	0	0	
11	0	0	0	0	501	510	0	0	
12	0	0	0	0	505	511	0	0	
13	0	0	0	0	506	510	0	0	
14	0	0	0	0	503	510	0	0	
15	0	0	0	0	508	510	0	0	
0	0	0	0	0	511	508	0	0	
1	0	0	0	0	513	511	0	0	
2	0	0	0	0	512	510	0	0	
3	0	0	0	0	510	511	0	0	
4	0	0	0	0	514	510	0	0	
5	0	0	0	0	513	509	0	0	
6	0	0	0	0	513	510	0	0	
7	0	0	0	0	515	511	0	0	
8	0	0	0	0	512	512	0	0	
9	0	0	0	0	507	512	0	0	
10	0	0	0	0	507	513	0	0	
11	0	0	0	0	506	512	0	0	
12	0	0	0	0	504	510	0	0	
13	0	0	0	0	505	510	0	0	
14	0	0	0	0	503	511	0	0	
15	0	0	0	0	503	509	0	0	
0	0	0	0	0	504	511	0	0	
1	0	0	0	0	504	508	0	0	
2	0	0	0	0	505	509	0	0	
3	0	0	0	0	506	511	0	0	
4	0	0	0	0	510	512	0	0	
5	0	0	0	0	513	511	0	0	
6	0	0	0	0	511	512	0	0	
7	0	0	0	0	512	510	0	0	
8	0	0	0	0	513	510	0	0	
9	0	0	0	0	515	511	0	0	
10	0	0	0	0	516	509	0	0	
11	0	0	0	0	515	510	0	0	
12	0	0	0	0	510	512	0	0	
13	0	0	0	0	508	511	0	0	
14	0	0	0	0	511	511	0	0	
15	0	0	0	0	506	511	0	0	
0	0	0	0	0	502	510	0	0	
1	0	0	0	0	504	509	0	0	
2	0	0	0	0	504	508	0	0	
3	0	0	0	0	503	509	0	0	
4	0	0	0	0	503	509	0	0	
5	0	0	0	0	506	512	0	0	
6	0	0	0	0	504	509	0	0	
7	0	0	0	0	506	508	0	0	
8	0	0	0	0	511	512	0	0	
9	0	0	0	0	512	510	0	0	
10	0	0	0	0	513	512	0	0	
11	0	0	0	0	512	512	0	0	
12	0	0	0	0	514	511	0	0	
13	0	0	0	0	512	508	0	0	
14	0	0	0	0	512	511	0	0	
15	0	0	0	0	514	510	0	0	
0	0	0	0	0	511	511	0	0	
1	0	0	0	0	511	513	0	0	
2	0	0	0	0	509	510	0	0	
3	0	0	0	0	505	512	0	0	
4	0	0	0	0	505	511	0	0	
5	0	0	0	0	504	509	0	0	
6	0	0	0	0	503	509	0	0	
7	0	0	0	0	503	511	0	0	
8	0	0	0	0	504	510	0	0	
9	0	0	0	0	505	511	0	0	
10	0	0	0	0	506	509	0	0	
11	0	0	0	0	506	510	0	0	
12	0	0	0	0	511	510	0	0	
13	0	0	0	0	511	510	0	0	
14	0	0	0	0	511	510	0	0	
15	0	0	0	0	512	512	0	0	
0	0	0	0	0	515	511	0	0	
1	0	0	0	0	514	513	0	0	
2	0	0	0	0	512	511	0	0	
3	0	0	0	0	512	511	0	0	
4	0	0	0	0	511	512	0	0	
5	0	0	0	0	510	511	0	0	
6	0	0	0	0	509	510	0	0	
7	0	0	0	0	507	511	0	0	
8	0	0	0	0	504	511	0	0	
9	0	0	0	0	505	511	0	0	
10	0	0	0	0	503	513	0	0	
11	0	0	0	0	503	509	0	0	
12	0	0	0	0	502	510	0	0	
13	0	0	0	0	504	511	0	0	
14	0	0	0	0	505	508	0	0	
15	0	0	0	0	508	510	0	0	
0	0	0	0	0	509	509	0	0	
1	0	0	0	0	509	507	0	0	
2	0	0	0	0	513	510	0	0	
3	0	0	0	0	513	510	0	0	
4	0	0	0	0	512	511	0	0	
5	0	0	0	0	515	512	0	0	
6	0	0	0	0	517	510	0	0	
7	0	0	0	0	512	512	0	0	
8	0	0	0	0	512	511	0	0	
9	0	0	0	0	508	512	0	0	
10	0	0	0	0	508	511	0	0	
11	0	0	0	0	507	510	0	0	
12	0	0	0	0	504	510	0	0	
13	0	0	0	0	503	509	0	0	
14	0	0	0	0	505	511	0	0	
15	0	0	0	0	502	510	0	0	
0	0	0	0	0	505	510	0	0	
1	0	0	0	0	506	509	0	0	
2	0	0	0	0	504	510	0	0	
3	0	0	0	0	505	511	0	0	
4	0	0	0	0	507	509	0	0	
5	0	0	0	0	509	511	0	0	
6	0	0	0	0	511	512	0	0	
7	0	0	0	0	511	511	0	0	
8	0	0	0	0	516	513	0	0	
9	0	0	0	0	515	511	0	0	
10	0	0	0	0	514	515	0	0	
11	0	0	0	0	514	510	0	0	
12	0	0	0	0	515	511	0	0	
13	0	0	0	0	512	511	0	0	
14	0	0	0	0	508	510	0	0	
15	0	0	0	0	505	509	0	0	
0	0	0	0	0	504	511	0	0	
1	0	0	0	0	500	510	0	0	
2	0	0	0	0	499	510	0	0	
3	0	0	0	0	502	511	0	0	
4	0	0	0	0	503	510	0	0	
5	0	0	0	0	506	508	0	0	
6	0	0	0	0	506	511	0	0	
7	0	0	0	0	506	511	0	0	
8	0	0	0	0	508	510	0	0	
9	0	0	0	0	511	510	0	0	
10	0	0	0	0	513	511	0	0	
11	0	0	0	0	512	510	0	0	
12	0	0	0	0	513	511	0	0	
13	0	0	0	0	516	510	0	0	
14	0	0	0	0	515	510	0	0	
15	0	0	0	0	512	510	0	0	
0	0	0	0	0	510	511	0	0	
1	0	0	0	0	513	511	0	0	
2	0	0	0	0	512	511	0	0	
3	0	0	0	0	506	509	0	0	
4	0	0	0	0	505	511	0	0	
5	0	0	0	0	502	510	0	0	
6	0	0	0	0	500	512	0	0	
7	0	0	0	0	503	510	0	0	
8	0	0	0	0	503	510	0	0	
9	0	0	0	0	505	511	0	0	
10	0	0	0	0	503	510	0	0	
11	0	0	0	0	506	512	0	0	
12	0	0	0	0	510	511	0	0	
13	0	0	0	0	510	509	0	0	
14	0	0	0	0	511	510	0	0	
15	0	0	0	0	513	510	0	0	
0	0	0	0	0	514	511	0	0	
1	0	0	0	0	515	512	0	0	
2	0	0	0	0	515	512	0	0	
3	0	0	0	0	515	512	0	0	
4	0	0	0	0	512	512	0	0	
5	0	0	0	0	511	509	0	0	
6	0	0	0	0	508	511	0	0	
7	0	0	0	0	507	509	0	0	
8	0	0	0	0	504	511	0	0	
9	0	0	0	0	502	512	0	0	
10	0	0	0	0	499	510	0	0	
11	0	0	0	0	500	510	0	0	
12	0	0	0	0	505	510	0	0	
13	0	0	0	0	506	510	0	0	
14	0	0	0	0	506	509	0	0	
15	0	0	0	0	506	511	0	0	
0	0	0	0	0	507	510	0	0	
1	0	0	0	0	510	510	0	0	
2	0	0	0	0	514	512	0	0	
3	0	0	0	0	514	511	0	0	
4	0	0	0	0	513	510	0	0	
5	0	0	0	0	511	512	0	0	
6	0	0	0	0	511	511	0	0	
7	0	0	0	0	513	511	0	0	
8	0	0	0	0	512	508	0	0	
9	0	0	0	0	510	508	0	0	
10	0	0	0	0	510	510	0	0	
11	0	0	0	0	509	512	0	0	
12	0	0	0	0	506	512	0	0	
13	0	0	0	0	503	508	0	0	
14	0	0	0	0	500	510	0	0	
15	0	0	0	0	503	510	0	0	
0	0	0	0	0	503	508	0	0	
1	0	0	0	0	504	510	0	0	
2	0	0	0	0	504	507	0	0	
3	0	0	0	0	506	513	0	0	
4	0	0	0	0	509	510	0	0	
5	0	0	0	0	513	510	0	0	
6	0	0	0	0	511	513	0	0	
7	0	0	0	0	511	511	0	0	
8	0	0	0	0	512	512	0	0	
9	0	0	0	0	514	509	0	0	
10	0	0	0	0	513	511	0	0	
11	0	0	0	0	515	513	0	0	
12	0	0	0	0	511	510	0	0	
13	0	0	0	0	510	511	0	0	
14	0	0	0	0	509	511	0	0	
15	0	0	0	0	505	510	0	0	
0	0	0	0	0	505	511	0	0	
1	0	0	0	0	505	510	0	0	
2	0	0	0	0	504	512	0	0	
3	0	0	0	0	501	509	0	0	
4	0	0	0	0	503	510	0	0	
5	0	0	0	0	504	511	0	0	
6	0	0	0	0	505	510	0	0	
7	0	0	0	0	504	508	0	0	
8	0	0	0	0	508	510	0	0	
9	0	0	0	0	511	510	0	0	
10	0	0	0	0	513	510	0	0	
11	0	0	0	0	512	510	0	0	
12	0	0	0	0	514	509	0	0	
13	0	0	0	0	515	510	0	0	
14	0	0	0	0	515	512	0	0	
15	0	0	0	0	513	515	0	0	
0	0	0	0	0	511	512	0	0	
1	0	0	0	0	509	510	0	0	
2	0	0	0	0	509	511	0	0	
3	0	0	0	0	504	509	0	0	
4	0	0	0	0	504	510	0	0	
5	0	0	0	0	504	511	0	0	
6	0	0	0	0	502	508	0	0	
7	0	0	0	0	500	511	0	0	
8	0	0	0	0	505	511	0	0	
9	0	0	0	0	505	511	0	0	
10	0	0	0	0	510	511	0	0	
11	0	0	0	0	509	511	0	0	
12	0	0	0	0	508	510	0	0	
13	0	0	0	0	510	510	0	0	
14	0	0	0	0	512	507	0	0	
15	0	0	0	0	512	510	0	0	
0	0	0	0	0	514	510	0	0	
1	0	0	0	0	515	512	0	0	
2	0	0	0	0	512	511	0	0	
3	0	0	0	0	513	511	0	0	
4	0	0	0	0	510	508	0	0	
5	0	0	0	0	508	511	0	0	
6	0	0	0	0	505	512	0	0	
7	0	0	0	0	506	512	0	0	
8	0	0	0	0	507	512	0	0	
9	0	0	0	0	505	511	0	0	
10	0	0	0	0	503	511	0	0	
11	0	0	0	0	504	509	0	0	
12	0	0	0	0	503	509	0	0	
13	0	0	0	0	504	510	0	0	
14	0	0	0	0	507	512	0	0	
15	0	0	0	0	505	511	0	0	
0	0	0	0	0	507	511	0	0	
1	0	0	0	0	510	513	0	0	
2	0	0	0	0	515	510	0	0	
3	0	0	0	0	514	511	0	0	
4	0	0	0	0	514	511	0	0	
5	0	0	0	0	516	510	0	0	
6	0	0	0	0	515	512	0	0	
7	0	0	0	0	514	512	0	0	
8	0	0	0	0	511	509	0	0	
9	0	0	0	0	508	511	0	0	
10	0	0	0	0	507	508	0	0	
11	0	0	0	0	507	509	0	0	
12	0	0	0	0	505	511	0	0	
13	0	0	0	0	505	510	0	0	
14	0	0	0	0	504	510	0	0	
15	0	0	0	0	505	510	0	0	
0	0	0	0	0	505	511	0	0	
1	0	0	0	0	503	511	0	0	
2	0	0	0	0	508	511	0	0	
3	0	0	0	0	508	508	0	0	
4	0	0	0	0	507	509	0	0	
5	0	0	0	0	510	510	0	0	
6	0	0	0	0	510	512	0	0	
7	0	0	0	0	511	510	0	0	
8	0	0	0	0	514	508	0	0	
9	0	0	0	0	515	510	0	0	
10	0	0	0	0	513	510	0	0	
11	0	0	0	0	514	508	0	0	
12	0	0	0	0	513	512	0	0	
13	0	0	0	0	511	513	0	0	
14	0	0	0	0	511	513	0	0	
15	0	0	0	0	508	512	0	0	
0	0	0	0	0	505	511	0	0	
1	0	0	0	0	502	510	0	0	
2	0	0	0	0	500	510	0	0	
3	0	0	0	0	502	510	0	0	
4	0	0	0	0	502	509	0	0	
5	0	0	0	0	502	511	0	0	
6	0	0	0	0	504	510	0	0	
7	0	0	0	0	507	512	0	0	
8	0	0	0	0	507	511	0	0	
9	0	0	0	0	511	510	0	0	
10	0	0	0	0	514	512	0	0	
11	0	0	0	0	514	510	0	0	
12	0	0	0	0	516	511	0	0	
13	0	0	0	0	517	511	0	0	
14	0	0	0	0	514	510	0	0	
15	0	0	0	0	513	512	0	0	
0	0	0	0	0	511	509	0	0	
1	0	0	0	0	511	512	0	0	
2	0	0	0	0	507	511	0	0	
3	0	0	0	0	507	510	0	0	
4	0	0	0	0	504	512	0	0	
5	0	0	0	0	502	512	0	0	
6	0	0	0	0	502	510	0	0	
7	0	0	0	0	504	509	0	0	
8	0	0	0	0	502	509	0	0	
9	0	0	0	0	504	510	0	0	
10	0	0	0	0	504	512	0	0	
11	0	0	0	0	508	510	0	0	
12	0	0	0	0	508	509	0	0	
13	0	0	0	0	511	509	0	0	
14	0	0	0	0	515	509	0	0	
15	0	0	0	0	513	509	0	0	
0	0	0	0	0	513	511	0	0	
1	0	0	0	0	516	512	0	0	
2	0	0	0	0	514	512	0	0	
3	0	0	0	0	513	511	0	0	
4	0	0	0	0	510	512	0	0	
5	0	0	0	0	509	511	0	0	
6	0	0	0	0	508	512	0	0	
7	0	0	0	0	506	511	0	0	
8	0	0	0	0	505	509	0	0	
9	0	0	0	0	503	509	0	0	
10	0	0	0	0	504	509	0	0	
11	0	0	0	0	503	510	0	0	
12	0	0	0	0	504	510	0	0	
13	0	0	0	0	502	510	0	0	
14	0	0	0	0	506	510	0	0	
15	0	0	0	0	506	511	0	0	
0	0	0	0	0	510	510	0	0	
1	0	0	0	0	510	511	0	0	
2	0	0	0	0	514	512	0	0	
3	0	0	0	0	512	512	0	0	
4	0	0	0	0	514	510	0	0	
5	0	0	0	0	514	510	0	0	
6	0	0	0	0	513	512	0	0	
7	0	0	0	0	512	511	0	0	
8	0	0	0	0	512	512	0	0	
9	0	0	0	0	510	512	0	0	
10	0	0	0	0	511	513	0	0	
11	0	0	0	0	505	511	0	0	
12	0	0	0	0	504	512	0	0	
13	0	0	0	0	504	510	0	0	
14	0	0	0	0	501	509	0	0	
15	0	0	0	0	503	510	0	0	
0	0	0	0	0	504	508	0	0	
1	0	0	0	0	504	509	0	0	
2	0	0	0	0	503	507	0	0	
3	0	0	0	0	507	507	0	0	
4	0	0	0	0	510	511	0	0	
5	0	0	0	0	512	511	0	0	
6	0	0	0	0	513	512	0	0	
7	0	0	0	0	512	510	0	0	
8	0	0	0	0	516	511	0	0	
9	0	0	0	0	514	512	0	0	
10	0	0	0	0	512	512	0	0	
11	0	0	0	0	512	511	0	0	
12	0	0	0	0	512	509	0	0	
13	0	0	0	0	511	511	0	0	
14	0	0	0	0	508	511	0	0	
15	0	0	0	0	506	510	0	0	
0	0	0	0	0	506	510	0	0	
1	0	0	0	0	505	510	0	0	
2	0	0	0	0	503	509	0	0	
3	0	0	0	0	499	511	0	0	
4	0	0	0	0	504	510	0	0	
5	0	0	0	0	504	510	0	0	
6	0	0	0	0	506	510	0	0	
7	0	0	0	0	508	509	0	0	
8	0	0	0	0	508	511	0	0	
9	0	0	0	0	512	512	0	0	
10	0	0	0	0	512	511	0	0	
11	0	0	0	0	511	510	0	0	
12	0	0	0	0	516	510	0	0	
13	0	0	0	0	519	511	0	0	
14	0	0	0	0	515	514	0	0	
15	0	0	0	0	513	511	0	0	
0	0	0	0	0	511	512	0	0	
1	0	0	0	0	508	512	0	0	
2	0	0	0	0	509	510	0	0	
3	0	0	0	0	508	510	0	0	
4	0	0	0	0	507	512	0	0	
5	0	0	0	0	498	511	0	0	
6	0	0	0	0	498	509	0	0	
7	0	0	0	0	500	512	0	0	
8	0	0	0	0	503	510	0	0	
9	0	0	0	0	504	510	0	0	
10	0	0	0	0	507	508	0	0	
11	0	0	0	0	506	509	0	0	
12	0	0	0	0	508	509	0	0	
13	0	0	0	0	511	509	0	0	
14	0	0	0	0	513	511	0	0	
15	0	0	0	0	514	511	0	0	
0	0	0	0	0	515	511	0	0	
1	0	0	0	0	517	510	0	0	
2	0	0	0	0	516	511	0	0	
3	0	0	0	0	515	511	0	0	
4	0	0	0	0	510	509	0	0	
5	0	0	0	0	510	509	0	0	
6	0	0	0	0	507	511	0	0	
7	0	0	0	0	506	512	0	0	
8	0	0	0	0	505	512	0	0	
9	0	0	0	0	504	512	0	0	
10	0	0	0	0	502	510	0	0	
11	0	0	0	0	501	510	0	0	
12	0	0	0	0	503	509	0	0	
13	0	0	0	0	503	511	0	0	
14	0	0	0	0	504	510	0	0	
15	0	0	0	0	506	510	0	0	
0	0	0	0	0	508	509	0	0	
1	0	0	0	0	511	511	0	0	
2	0	0	0	0	512	511	0	0	
3	0	0	0	0	511	511	0	0	
4	0	0	0	0	513	510	0	0	
5	0	0	0	0	515	510	0	0	
6	0	0	0	0	513	511	0	0	
7	0	0	0	0	513	512	0	0	
8	0	0	0	0	511	509	0	0	
9	0	0	0	0	508	511	0	0	
10	0	0	0	0	510	512	0	0	
11	0	0	0	0	507	510	0	0	
12	0	0	0	0	507	512	0	0	
13	0	0	0	0	504	511	0	0	
14	0	0	0	0	504	511	0	0	
15	0	0	0	0	500	510	0	0	
0	0	0	0	0	503	510	0	0	
1	0	0	0	0	504	511	0	0	
2	0	0	0	0	507	511	0	0	
3	0	0	0	0	507	511	0	0	
4	0	0	0	0	508	511	0	0	
5	0	0	0	0	512	513	0	0	
6	0	0	0	0	511	510	0	0	
7	0	0	0	0	512	509	0	0	
8	0	0	0	0	514	510	0	0	
9	0	0	0	0	516	512	0	0	
10	0	0	0	0	513	511	0	0	
11	0	0	0	0	513	510	0	0	
12	0	0	0	0	510	510	0	0	
13	0	0	0	0	509	511	0	0	
14	0	0	0	0	508	511	0	0	
15	0	0	0	0	507	509	0	0	
0	0	0	0	0	506	510	0	0	
1	0	0	0	0	504	511	0	0	
2	0	0	0	0	503	510	0	0	
3	0	0	0	0	502	508	0	0	
4	0	0	0	0	504	510	0	0	
5	0	0	0	0	504	510	0	0	
6	0	0	0	0	504	512	0	0	
7	0	0	0	0	507	511	0	0	
8	0	0	0	0	509	510	0	0	
9	0	0	0	0	511	513	0	0	
10	0	0	0	0	511	513	0	0	
11	0	0	0	0	512	510	0	0	
12	0	0	0	0	515	511	0	0	
13	0	0	0	0	513	512	0	0	
14	0	0	0	0	514	512	0	0	
15	0	0	0	0	515	511	0	0	
0	0	0	0	0	514	510	0	0	
1	0	0	0	0	511	507	0	0	
2	0	0	0	0	508	510	0	0	
3	0	0	0	0	506	510	0	0	
4	0	0	0	0	505	511	0	0	
5	0	0	0	0	502	510	0	0	
6	0	0	0	0	497	509	0	0	
7	0	0	0	0	498	510	0	0	
8	0	0	0	0	504	508	0	0	
9	0	0	0	0	504	511	0	0	
10	0	0	0	0	507	510	0	0	
11	0	0	0	0	509	508	0	0	
12	0	0	0	0	508	509	0	0	
13	0	0	0	0	512	512	0	0	
14	0	0	0	0	514	512	0	0	
15	0	0	0	0	512	513	0	0	
0	0	0	0	0	516	511	0	0	
1	0	0	0	0	515	509	0	0	
2	0	0	0	0	515	511	0	0	
3	0	0	0	0	513	509	0	0	
4	0	0	0	0	509	511	0	0	
5	0	0	0	0	507	510	0	0	
6	0	0	0	0	508	509	0	0	
7	0	0	0	0	510	509	0	0	
8	0	0	0	0	506	510	0	0	
9	0	0	0	0	504	512	0	0	
10	0	0	0	0	501	511	0	0	
11	0	0	0	0	500	512	0	0	
12	0	0	0	0	500	509	0	0	
13	0	0	0	0	502	509	0	0	
14	0	0	0	0	504	508	0	0	
15	0	0	0	0	508	510	0	0	
0	0	0	0	0	509	511	0	0	
1	0	0	0	0	513	510	0	0	
2	0	0	0	0	516	511	0	0	
3	0	0	0	0	519	510	0	0	
4	0	0	0	0	515	511	0	0	
5	0	0	0	0	513	511	0	0	
6	0	0	0	0	511	512	0	0	
7	0	0	0	0	512	513	0	0	
8	0	0	0	0	507	511	0	0	
9	0	0	0	0	509	512	0	0	
10	0	0	0	0	508	512	0	0	
11	0	0	0	0	507	512	0	0	
12	0	0	0	0	507	510	0	0	
13	0	0	0	0	502	511	0	0	
14	0	0	0	0	501	512	0	0	
15	0	0	0	0	502	511	0	0	
0	0	0	0	0	505	509	0	0	
1	0	0	0	0	505	510	0	0	
2	0	0	0	0	507	507	0	0	
3	0	0	0	0	507	511	0	0	
4	0	0	0	0	508	507	0	0	
5	0	0	0	0	510	511	0	0	
6	0	0	0	0	512	509	0	0	
7	0	0	0	0	511	510	0	0	
8	0	0	0	0	515	511	0	0	
9	0	0	0	0	514	511	0	0	
10	0	0	0	0	515	511	0	0	
11	0	0	0	0	515	512	0	0	
12	0	0	0	0	511	511	0	0	
13	0	0	0	0	511	511	0	0	
14	0	0	0	0	509	512	0	0	
15	0	0	0	0	507	511	0	0	
0	0	0	0	0	505	509	0	0	
1	0	0	0	0	503	511	0	0	
2	0	0	0	0	502	510	0	0	
3	0	0	0	0	501	510	0	0	
4	0	0	0	0	503	511	0	0	
5	0	0	0	0	505	512	0	0	
6	0	0	0	0	505	510	0	0	
7	0	0	0	0	508	510	0	0	
8	0	0	0	0	504	511	0	0	
9	0	0	0	0	509	513	0	0	
10	0	0	0	0	513	512	0	0	
11	0	0	0	0	513	512	0	0	
12	0	0	0	0	517	512	0	0	
13	0	0	0	0	515	511	0	0	
14	0	0	0	0	512	510	0	0	
15	0	0	0	0	513	510	0	0	
0	0	0	0	0	510	512	0	0	
1	0	0	0	0	507	511	0	0	
2	0	0	0	0	506	510	0	0	
3	0	0	0	0	505	508	0	0	
4	0	0	0	0	506	508	0	0	
5	0	0	0	0	506	509	0	0	
6	0	0	0	0	504	511	0	0	
7	0	0	0	0	503	512	0	0	
8	0	0	0	0	505	508	0	0	
9	0	0	0	0	505	511	0	0	
10	0	0	0	0	507	508	0	0	
11	0	0	0	0	508	509	0	0	
12	0	0	0	0	506	510	0	0	
13	0	0	0	0	509	510	0	0	
14	0	0	0	0	512	511	0	0	
15	0	0	0	0	513	511	0	0	
0	0	0	0	0	515	511	0	0	
1	0	0	0	0	512	511	0	0	
2	0	0	0	0	514	509	0	0	
3	0	0	0	0	515	511	0	0	
4	0	0	0	0	513	512	0	0	
5	0	0	0	0	508	510	0	0	
6	0	0	0	0	508	512	0	0	
7	0	0	0	0	505	508	0	0	
8	0	0	0	0	501	512	0	0	
9	0	0	0	0	503	510	0	0	
10	0	0	0	0	504	508	0	0	
11	0	0	0	0	505	511	0	0	
12	0	0	0	0	507	510	0	0	
13	0	0	0	0	504	510	0	0	
14	0	0	0	0	504	512	0	0	
15	0	0	0	0	508	511	0	0	
0	0	0	0	0	508	511	0	0	
1	0	0	0	0	510	512	0	0	
2	0	0	0	0	511	511	0	0	
3	0	0	0	0	514	508	0	0	
4	0	0	0	0	515	510	0	0	
5	0	0	0	0	516	511	0	0	
6	0	0	0	0	513	510	0	0	
7	0	0	0	0	514	512	0	0	
8	0	0	0	0	510	511	0	0	
9	0	0	0	0	511	511	0	0	
10	0	0	0	0	508	512	0	0	
11	0	0	0	0	506	511	0	0	
12	0	0	0	0	508	509	0	0	
13	0	0	0	0	504	510	0	0	
14	0	0	0	0	502	510	0	0	
15	0	0	0	0	504	511	0	0	
0	0	0	0	0	501	509	0	0	
1	0	0	0	0	504	511	0	0	
2	0	0	0	0	505	509	0	0	
3	0	0	0	0	506	509	0	0	
4	0	0	0	0	508	511	0	0	
5	0	0	0	0	508	511	0	0	
6	0	0	0	0	510	511	0	0	
7	0	0	0	0	512	511	0	0	
8	0	0	0	0	515	511	0	0	
9	0	0	0	0	517	511	0	0	
10	0	0	0	0	513	513	0	0	
11	0	0	0	0	515	512	0	0	
12	0	0	0	0	511	510	0	0	
13	0	0	0	0	511	509	0	0	
14	0	0	0	0	509	509	0	0	
15	0	0	0	0	505	508	0	0	
0	0	0	0	0	502	514	0	0	
1	0	0	0	0	502	508	0	0	
2	0	0	0	0	503	510	0	0	
3	0	0	0	0	503	508	0	0	
4	0	0	0	0	502	510	0	0	
5	0	0	0	0	504	510	0	0	
6	0	0	0	0	506	511	0	0	
7	0	0	0	0	508	509	0	0	
8	0	0	0	0	511	512	0	0	
9	0	0	0	0	511	510	0	0	
10	0	0	0	0	511	512	0	0	
11	0	0	0	0	512	512	0	0	
12	0	0	0	0	516	512	0	0	
13	0	0	0	0	515	510	0	0	
14	0	0	0	0	516	511	0	0	
15	0	0	0	0	516	514	0	0	
0	0	0	0	0	512	511	0	0	
1	0	0	0	0	510	510	0	0	
2	0	0	0	0	506	510	0	0	
3	0	0	0	0	503	510	0	0	
4	0	0	0	0	503	510	0	0	
5	0	0	0	0	504	508	0	0	
6	0	0	0	0	501	510	0	0	
7	0	0	0	0	502	511	0	0	
8	0	0	0	0	504	510	0	0	
9	0	0	0	0	503	510	0	0	
10	0	0	0	0	505	508	0	0	
11	0	0	0	0	507	510	0	0	
12	0	0	0	0	511	509	0	0	
13	0	0	0	0	511	512	0	0	
14	0	0	0	0	512	511	0	0	
15	0	0	0	0	512	512	0	0	
0	0	0	0	0	515	513	0	0	
1	0	0	0	0	516	512	0	0	
2	0	0	0	0	516	513	0	0	
3	0	0	0	0	517	511	0	0	
4	0	0	0	0	509	511	0	0	
5	0	0	0	0	508	509	0	0	
6	0	0	0	0	507	511	0	0	
7	0	0	0	0	504	511	0	0	
8	0	0	0	0	504	513	0	0	
9	0	0	0	0	504	508	0	0	
10	0	0	0	0	500	509	0	0	
11	0	0	0	0	501	510	0	0	
12	0	0	0	0	504	508	0	0	
13	0	0	0	0	504	511	0	0	
14	0	0	0	0	506	512	0	0	
15	0	0	0	0	507	512	0	0	
0	0	0	0	0	507	511	0	0	
1	0	0	0	0	513	509	0	0	
2	0	0	0	0	518	509	0	0	
3	0	0	0	0	515	512	0	0	
4	0	0	0	0	514	510	0	0	
5	0	0	0	0	512	511	0	0	
6	0	0	0	0	512	510	0	0	
7	0	0	0	0	512	512	0	0	
8	0	0	0	0	509	510	0	0	
9	0	0	0	0	507	510	0	0	
10	0	0	0	0	507	513	0	0	
11	0	0	0	0	505	510	0	0	
12	0	0	0	0	506	511	0	0	
13	0	0	0	0	502	509	0	0	
14	0	0	0	0	503	509	0	0	
15	0	0	0	0	503	511	0	0	
0	0	0	0	0	503	510	0	0	
1	0	0	0	0	507	511	0	0	
2	0	0	0	0	505	510	0	0	
3	0	0	0	0	508	508	0	0	
4	0	0	0	0	509	509	0	0	
5	0	0	0	0	512	512	0	0	
6	0	0	0	0	513	508	0	0	
7	0	0	0	0	512	511	0	0	
8	0	0	0	0	513	509	0	0	
9	0	0	0	0	517	512	0	0	
10	0	0	0	0	513	510	0	0	
11	0	0	0	0	511	511	0	0	
12	0	0	0	0	512	510	0	0	
13	0	0	0	0	508	510	0	0	
14	0	0	0	0	509	512	0	0	
15	0	0	0	0	506	512	0	0	
0	0	0	0	0	505	511	0	0	
1	0	0	0	0	504	510	0	0	
2	0	0	0	0	505	509	0	0	
3	0	0	0	0	504	510	0	0	
4	0	0	0	0	501	510	0	0	
5	0	0	0	0	504	509	0	0	
6	0	0	0	0	507	509	0	0	
7	0	0	0	0	506	510	0	0	
8	0	0	0	0	509	511	0	0	
9	0	0	0	0	512	512	0	0	
10	0	0	0	0	514	508	0	0	
11	0	0	0	0	511	510	0	0	
12	0	0	0	0	512	510	0	0	
13	0	0	0	0	516	511	0	0	
14	0	0	0	0	516	511	0	0	
15	0	0	0	0	512	512	0	0	
0	0	0	0	0	509	512	0	0	
1	0	0	0	0	508	511	0	0	
2	0	0	0	0	507	509	0	0	
3	0	0	0	0	507	512	0	0	
4	0	0	0	0	504	511	0	0	
5	0	0	0	0	507	510	0	0	
6	0	0	0	0	503	512	0	0	
7	0	0	0	0	506	508	0	0	
8	0	0	0	0	506	510	0	0	
9	0	0	0	0	503	509	0	0	
10	0	0	0	0	504	511	0	0	
11	0	0	0	0	506	511	0	0	
12	0	0	0	0	507	511	0	0	
13	0	0	0	0	510	512	0	0	
14	0	0	0	0	511	511	0	0	
15	0	0	0	0	512	510	0	0	
0	0	0	0	0	514	510	0	0	
1	0	0	0	0	515	510	0	0	
2	0	0	0	0	515	511	0	0	
3	0	0	0	0	514	511	0	0	
4	0	0	0	0	510	511	0	0	
5	0	0	0	0	512	511	0	0	
6	0	0	0	0	510	511	0	0	
7	0	0	0	0	507	512	0	0	
8	0	0	0	0	505	510	0	0	
9	0	0	0	0	504	512	0	0	
10	0	0	0	0	502	510	0	0	
11	0	0	0	0	502	510	0	0	
12	0	0	0	0	501	511	0	0	
13	0	0	0	0	500	510	0	0	
14	0	0	0	0	507	509	0	0	
15	0	0	0	0	507	509	0	0	
0	0	0	0	0	506	510	0	0	
1	0	0	0	0	510	509	0	0	
2	0	0	0	0	512	509	0	0	
3	0	0	0	0	509	511	0	0	
4	0	0	0	0	515	511	0	0	
5	0	0	0	0	516	510	0	0	
6	0	0	0	0	512	511	0	0	
7	0	0	0	0	513	511	0	0	
8	0	0	0	0	513	511	0	0	
9	0	0	0	0	514	512	0	0	
10	0	0	0	0	511	513	0	0	
11	0	0	0	0	506	511	0	0	
12	0	0	0	0	506	511	0	0	
13	0	0	0	0	503	509	0	0	
14	0	0	0	0	502	509	0	0	
15	0	0	0	0	504	510	0	0	
0	0	0	0	0	504	508	0	0	
1	0	0	0	0	505	509	0	0	
2	0	0	0	0	505	510	0	0	
3	0	0	0	0	507	509	0	0	
4	0	0	0	0	507	510	0	0	
5	0	0	0	0	509	510	0	0	
6	0	0	0	0	512	511	0	0	
7	0	0	0	0	514	512	0	0	
8	0	0	0	0	515	511	0	0	
9	0	0	0	0	517	512	0	0	
10	0	0	0	0	514	511	0	0	
11	0	0	0	0	511	512	0	0	
12	0	0	0	0	511	512	0	0	
13	0	0	0	0	510	512	0	0	
14	0	0	0	0	511	510	0	0	
15	0	0	0	0	506	508	0	0	
0	0	0	0	0	504	509	0	0	
1	0	0	0	0	504	508	0	0	
2	0	0	0	0	506	511	0	0	
3	0	0	0	0	502	511	0	0	
4	0	0	0	0	502	512	0	0	
5	0	0	0	0	502	508	0	0	
6	0	0	0	0	504	509	0	0	
7	0	0	0	0	509	512	0	0	
8	0	0	0	0	509	513	0	0	
9	0	0	0	0	510	509	0	0	
10	0	0	0	0	514	510	0	0	
11	0	0	0	0	512	511	0	0	
12	0	0	0	0	516	509	0	0	
13	0	0	0	0	515	510	0	0	
14	0	0	0	0	513	511	0	0	
15	0	0	0	0	513	511	0	0	
0	0	0	0	0	509	512	0	0	
1	0	0	0	0	507	511	0	0	
2	0	0	0	0	507	509	0	0	
3	0	0	0	0	505	509	0	0	
4	0	0	0	0	507	509	0	0	
5	0	0	0	0	505	509	0	0	
6	0	0	0	0	505	510	0	0	
7	0	0	0	0	504	512	0	0	
8	0	0	0	0	506	510	0	0	
9	0	0	0	0	503	511	0	0	
10	0	0	0	0	502	509	0	0	
11	0	0	0	0	502	512	0	0	
12	0	0	0	0	506	511	0	0	
13	0	0	0	0	511	513	0	0	
14	0	0	0	0	514	511	0	0	
15	0	0	0	0	514	511	0	0	
0	0	0	0	0	514	513	0	0	
1	0	0	0	0	516	511	0	0	
2	0	0	0	0	515	513	0	0	
3	0	0	0	0	515	511	0	0	
4	0	0	0	0	512	510	0	0	
5	0	0	0	0	510	511	0	0	
6	0	0	0	0	509	508	0	0	
7	0	0	0	0	507	512	0	0	
8	0	0	0	0	505	511	0	0	
9	0	0	0	0	502	511	0	0	
10	0	0	0	0	501	510	0	0	
11	0	0	0	0	504	509	0	0	
12	0	0	0	0	502	511	0	0	
13	0	0	0	0	502	511	0	0	
14	0	0	0	0	503	510	0	0	
15	0	0	0	0	507	511	0	0	
0	0	0	0	0	510	512	0	0	
1	0	0	0	0	511	513	0	0	
2	0	0	0	0	515	512	0	0	
3	0	0	0	0	516	510	0	0	
4	0	0	0	0	518	512	0	0	
5	0	0	0	0	512	510	0	0	
6	0	0	0	0	515	511	0	0	
7	0	0	0	0	511	511	0	0	
8	0	0	0	0	509	509	0	0	
9	0	0	0	0	510	510	0	0	
10	0	0	0	0	506	509	0	0	
11	0	0	0	0	504	510	0	0	
12	0	0	0	0	504	510	0	0	
13	0	0	0	0	510	509	0	0	
14	0	0	0	0	504	512	0	0	
15	0	0	0	0	503	511	0	0	
0	0	0	0	0	503	511	0	0	
1	0	0	0	0	503	508	0	0	
2	0	0	0	0	501	511	0	0	
3	0	0	0	0	504	507	0	0	
4	0	0	0	0	508	511	0	0	
5	0	0	0	0	513	508	0	0	
6	0	0	0	0	512	510	0	0	
7	0	0	0	0	515	511	0	0	
8	0	0	0	0	518	511	0	0	
9	0	0	0	0	519	509	0	0	
10	0	0	0	0	519	513	0	0	
11	0	0	0	0	512	512	0	0	
12	0	0	0	0	508	510	0	0	
13	0	0	0	0	507	509	0	0	
14	0	0	0	0	504	512	0	0	
15	0	0	0	0	503	511	0	0	
0	0	0	0	0	504	511	0	0	
1	0	0	0	0	506	511	0	0	
2	0	0	0	0	503	510	0	0	
3	0	0	0	0	503	511	0	0	
4	0	0	0	0	503	510	0	0	
5	0	0	0	0	502	509	0	0	
6	0	0	0	0	505	508	0	0	
7	0	0	0	0	507	509	0	0	
8	0	0	0	0	508	511	0	0	
9	0	0	0	0	511	510	0	0	
10	0	0	0	0	513	510	0	0	
11	0	0	0	0	513	510	0	0	
12	0	0	0	0	514	511	0	0	
13	0	0	0	0	516	509	0	0	
14	0	0	0	0	514	512	0	0	
15	0	0	0	0	511	513	0	0	
0	0	0	0	0	509	512	0	0	
1	0	0	0	0	509	512	0	0	
2	0	0	0	0	509	510	0	0	
3	0	0	0	0	508	509	0	0	
4	0	0	0	0	505	513	0	0	
5	0	0	0	0	505	509	0	0	
6	0	0	0	0	502	508	0	0	
7	0	0	0	0	502	509	0	0	
8	0	0	0	0	504	508	0	0	
9	0	0	0	0	505	511	0	0	
10	0	0	0	0	505	511	0	0	
11	0	0	0	0	507	510	0	0	
12	0	0	0	0	507	511	0	0	
13	0	0	0	0	510	510	0	0	
14	0	0	0	0	514	510	0	0	
15	0	0	0	0	515	511	0	0	
0	0	0	0	0	516	512	0	0	
1	0	0	0	0	516	512	0	0	
2	0	0	0	0	513	510	0	0	
3	0	0	0	0	513	511	0	0	
4	0	0	0	0	510	510	0	0	
5	0	0	0	0	508	511	0	0	
6	0	0	0	0	508	512	0	0	
7	0	0	0	0	502	510	0	0	
8	0	0	0	0	503	512	0	0	
9	0	0	0	0	505	510	0	0	
10	0	0	0	0	505	510	0	0	
11	0	0	0	0	504	509	0	0	
12	0	0	0	0	504	511	0	0	
13	0	0	0	0	504	511	0	0	
14	0	0	0	0	504	510	0	0	
15	0	0	0	0	507	511	0	0	
0	0	0	0	0	510	511	0	0	
1	0	0	0	0	511	510	0	0	
2	0	0	0	0	512	511	0	0	
3	0	0	0	0	513	510	0	0	
4	0	0	0	0	515	511	0	0	
5	0	0	0	0	516	513	0	0	
6	0	0	0	0	515	511	0	0	
7	0	0	0	0	515	511	0	0	
8	0	0	0	0	511	512	0	0	
9	0	0	0	0	509	510	0	0	
10	0	0	0	0	508	510	0	0	
11	0	0	0	0	507	511	0	0	
12	0	0	0	0	506	512	0	0	
13	0	0	0	0	503	510	0	0	
14	0	0	0	0	504	508	0	0	
15	0	0	0	0	498	511	0	0	
0	0	0	0	0	498	509	0	0	
1	0	0	0	0	504	511	0	0	
2	0	0	0	0	504	510	0	0	
3	0	0	0	0	508	510	0	0	
4	0	0	0	0	509	510	0	0	
5	0	0	0	0	511	511	0	0	
6	0	0	0	0	512	512	0	0	
7	0	0	0	0	515	515	0	0	
8	0	0	0	0	516	513	0	0	
9	0	0	0	0	516	511	0	0	
10	0	0	0	0	512	508	0	0	
11	0	0	0	0	511	512	0	0	
12	0	0	0	0	511	510	0	0	
13	0	0	0	0	510	511	0	0	
14	0	0	0	0	508	509	0	0	
15	0	0	0	0	508	508	0	0	
0	0	0	0	0	507	510	0	0	
1	0	0	0	0	504	512	0	0	
2	0	0	0	0	503	511	0	0	
3	0	0	0	0	502	508	0	0	
4	0	0	0	0	505	509	0	0	
5	0	0	0	0	505	510	0	0	
6	0	0	0	0	504	509	0	0	
7	0	0	0	0	508	511	0	0	
8	0	0	0	0	512	510	0	0	
9	0	0	0	0	514	510	0	0	
10	0	0	0	0	520	512	0	0	
11	0	0	0	0	523	512	0	0	
12	0	0	0	0	521	512	0	0	
13	0	0	0	0	516	512	0	0	
14	0	0	0	0	499	511	0	0	
15	0	0	0	0	495	511	0	0	
0	0	0	0	0	503	510	0	0	
1	0	0	0	0	514	511	0	0	
2	0	0	0	0	510	507	0	0	
3	0	0	0	0	502	506	0	0	
4	0	0	0	0	501	508	0	0	
5	0	0	0	0	510	511	0	0	
6	0	0	0	0	508	512	0	0	
7	0	0	0	0	501	509	0	0	
8	0	0	0	0	501	509	0	0	
9	0	0	0	0	499	511	0	0	
10	0	0	0	0	496	509	0	0	
11	0	0	0	0	500	514	0	0	
12	0	0	0	0	508	513	0	0	
13	0	0	0	0	516	510	0	0	
14	0	0	0	0	519	511	0	0	
15	0	0	0	0	520	512	0	0	
0	0	0	0	0	522	512	0	0	
1	0	0	0	0	516	511	0	0	
2	0	0	0	0	515	510	0	0	
3	0	0	0	0	516	511	0	0	
4	0	0	0	0	514	513	0	0	
5	0	0	0	0	512	510	0	0	
6	0	0	0	0	504	510	0	0	
7	0	0	0	0	498	511	0	0	
8	0	0	0	0	502	510	0	0	
9	0	0	0	0	503	510	0	0	
10	0	0	0	0	502	509	0	0	
11	0	0	0	0	505	509	0	0	
12	0	0	0	0	506	508	0	0	
13	0	0	0	0	509	511	0	0	
14	0	0	0	0	508	509	0	0	
15	0	0	0	0	508	511	0	0	
0	0	0	0	0	509	514	0	0	
1	0	0	0	0	510	513	0	0	
2	0	0	0	0	514	509	0	0	
3	0	0	0	0	512	511	0	0	
4	0	0	0	0	515	512	0	0	
5	0	0	0	0	516	512	0	0	
6	0	0	0	0	519	510	0	0	
7	0	0	0	0	515	512	0	0	
8	0	0	0	0	515	508	0	0	
9	0	0	0	0	508	513	0	0	
10	0	0	0	0	507	509	0	0	
11	0	0	0	0	502	511	0	0	
12	0	0	0	0	497	510	0	0	
13	0	0	0	0	492	510	0	0	
14	0	0	0	0	495	513	0	0	
15	0	0	0	0	500	511	0	0	
0	0	0	0	0	506	511	0	0	
1	0	0	0	0	506	507	0	0	
2	0	0	0	0	511	508	0	0	
3	0	0	0	0	511	512	0	0	
4	0	0	0	0	510	511	0	0	
5	0	0	0	0	511	510	0	0	
6	0	0	0	0	510	510	0	0	
7	0	0	0	0	514	511	0	0	
8	0	0	0	0	516	512	0	0	
9	0	0	0	0	518	511	0	0	
10	0	0	0	0	519	512	0	0	
11	0	0	0	0	515	513	0	0	
12	0	0	0	0	511	512	0	0	
13	0	0	0	0	507	510	0	0	
14	0	0	0	0	508	510	0	0	
15	0	0	0	0	505	509	0	0	
0	0	0	0	0	504	510	0	0	
1	0	0	0	0	504	508	0	0	
2	0	0	0	0	499	510	0	0	
3	0	0	0	0	500	511	0	0	
4	0	0	0	0	506	512	0	0	
5	0	0	0	0	508	511	0	0	
6	0	0	0	0	507	509	0	0	
7	0	0	0	0	506	510	0	0	
8	0	0	0	0	505	508	0	0	
9	0	0	0	0	510	510	0	0	
10	0	0	0	0	512	508	0	0	
11	0	0	0	0	513	509	0	0	
12	0	0	0	0	514	511	0	0	
13	0	0	0	0	515	512	0	0	
14	0	0	0	0	512	511	0	0	
15	0	0	0	0	517	513	0	0	
0	0	0	0	0	523	511	0	0	
1	0	0	0	0	523	513	0	0	
2	0	0	0	0	516	512	0	0	
3	0	0	0	0	506	510	0	0	
4	0	0	0	0	497	511	0	0	
5	0	0	0	0	493	510	0	0	
6	0	0	0	0	494	511	0	0	
7	0	0	0	0	487	510	0	0	
8	0	0	0	0	474	509	0	0	
9	0	0	0	0	480	508	0	0	
10	0	0	0	0	505	509	0	0	
11	0	0	0	0	517	508	0	0	
12	0	0	0	0	524	512	0	0	
13	0	0	0	0	524	512	0	0	
14	0	0	0	0	519	513	0	0	
15	0	0	0	0	517	510	0	0	
0	0	0	0	0	520	510	0	0	
1	0	0	0	0	518	510	0	0	
2	0	0	0	0	517	511	0	0	
3	0	0	0	0	519	512	0	0	
4	0	0	0	0	513	512	0	0	
5	0	0	0	0	511	511	0	0	
6	0	0	0	0	508	508	0	0	
7	0	0	0	0	504	511	0	0	
8	0	0	0	0	501	510	0	0	
9	0	0	0	0	504	509	0	0	
10	0	0	0	0	505	508	0	0	
11	0	0	0	0	503	510	0	0	
12	0	0	0	0	500	512	0	0	
13	0	0	0	0	502	511	0	0	
14	0	0	0	0	507	512	0	0	
15	0	0	0	0	505	510	0	0	
0	0	0	0	0	508	511	0	0	
1	0	0	0	0	509	508	0	0	
2	0	0	0	0	515	510	0	0	
3	0	0	0	0	515	512	0	0	
4	0	0	0	0	512	510	0	0	
5	0	0	0	0	514	510	0	0	
6	0	0	0	0	517	512	0	0	
7	0	0	0	0	516	513	0	0	
8	0	0	0	0	507	511	0	0	
9	0	0	0	0	510	509	0	0	
10	0	0	0	0	512	511	0	0	
11	0	0	0	0	505	510	0	0	
12	0	0	0	0	503	510	0	0	
13	0	0	0	0	504	510	0	0	
14	0	0	0	0	502	510	0	0	
15	0	0	0	0	503	509	0	0	
0	0	0	0	0	507	508	0	0	
1	0	0	0	0	504	511	0	0	
2	0	0	0	0	503	511	0	0	
3	0	0	0	0	501	510	0	0	
4	0	0	0	0	508	513	0	0	
5	0	0	0	0	515	511	0	0	
6	0	0	0	0	518	510	0	0	
7	0	0	0	0	516	510	0	0	
8	0	0	0	0	516	511	0	0	
9	0	0	0	0	518	511	0	0	
10	0	0	0	0	513	512	0	0	
11	0	0	0	0	515	511	0	0	
12	0	0	0	0	509	512	0	0	
13	0	0	0	0	506	511	0	0	
14	0	0	0	0	508	508	0	0	
15	0	0	0	0	508	511	0	0	
0	0	0	0	0	501	511	0	0	
1	0	0	0	0	492	508	0	0	
2	0	0	0	0	493	508	0	0	
3	0	0	0	0	502	510	0	0	
4	0	0	0	0	507	509	0	0	
5	0	0	0	0	512	511	0	0	
6	0	0	0	0	514	510	0	0	
7	0	0	0	0	513	509	0	0	
8	0	0	0	0	513	513	0	0	
9	0	0	0	0	513	512	0	0	
10	0	0	0	0	511	512	0	0	
11	0	0	0	0	516	510	0	0	
12	0	0	0	0	513	513	0	0	
13	0	0	0	0	508	511	0	0	
14	0	0	0	0	502	512	0	0	
15	0	0	0	0	508	508	0	0	
0	0	0	0	0	511	511	0	0	
1	0	0	0	0	508	508	0	0	
2	0	0	0	0	496	509	0	0	
3	0	0	0	0	490	509	0	0	
4	0	0	0	0	499	511	0	0	
5	0	0	0	0	509	510	0	0	
6	0	0	0	0	506	510	0	0	
7	0	0	0	0	506	510	0	0	
8	0	0	0	0	508	510	0	0	
9	0	0	0	0	511	512	0	0	
10	0	0	0	0	510	508	0	0	
11	0	0	0	0	513	509	0	0	
12	0	0	0	0	513	510	0	0	
13	0	0	0	0	515	513	0	0	
14	0	0	0	0	516	511	0	0	
15	0	0	0	0	515	512	0	0	
0	0	0	0	0	511	512	0	0	
1	0	0	0	0	512	511	0	0	
2	0	0	0	0	511	511	0	0	
3	0	0	0	0	511	512	0	0	
4	0	0	0	0	512	510	0	0	
5	0	0	0	0	513	510	0	0	
6	0	0	0	0	511	510	0	0	
7	0	0	0	0	507	511	0	0	
8	0	0	0	0	512	512	0	0	
9	0	0	0	0	500	507	0	0	
10	0	0	0	0	499	510	0	0	
11	0	0	0	0	502	509	0	0	
12	0	0	0	0	504	511	0	0	
13	0	0	0	0	505	511	0	0	
14	0	0	0	0	505	510	0	0	
15	0	0	0	0	508	509	0	0	
0	0	0	0	0	508	510	0	0	
1	0	0	0	0	509	510	0	0	
2	0	0	0	0	511	513	0	0	
3	0	0	0	0	514	511	0	0	
4	0	0	0	0	515	510	0	0	
5	0	0	0	0	514	511	0	0	
6	0	0	0	0	515	510	0	0	
7	0	0	0	0	518	511	0	0	
8	0	0	0	0	511	511	0	0	
9	0	0	0	0	510	511	0	0	
10	0	0	0	0	504	510	0	0	
11	0	0	0	0	502	509	0	0	
12	0	0	0	0	504	510	0	0	
13	0	0	0	0	506	510	0	0	
14	0	0	0	0	506	511	0	0	
15	0	0	0	0	508	512	0	0	
0	0	0	0	0	499	508	0	0	
1	0	0	0	0	504	508	0	0	
2	0	0	0	0	505	509	0	0	
3	0	0	0	0	505	510	0	0	
4	0	0	0	0	507	511	0	0	
5	0	0	0	0	510	510	0	0	
6	0	0	0	0	511	513	0	0	
7	0	0	0	0	511	513	0	0	
8	0	0	0	0	517	511	0	0	
9	0	0	0	0	515	511	0	0	
10	0	0	0	0	511	510	0	0	
11	0	0	0	0	512	510	0	0	
12	0	0	0	0	518	508	0	0	
13	0	0	0	0	519	510	0	0	
14	0	0	0	0	506	509	0	0	
15	0	0	0	0	504	511	0	0	
0	0	0	0	0	500	511	0	0	
1	0	0	0	0	496	510	0	0	
2	0	0	0	0	503	508	0	0	
3	0	0	0	0	508	508	0	0	
4	0	0	0	0	512	511	0	0	
5	0	0	0	0	514	508	0	0	
6	0	0	0	0	509	511	0	0	
7	0	0	0	0	501	512	0	0	
8	0	0	0	0	500	510	0	0	
9	0	0	0	0	506	511	0	0	
10	0	0	0	0	506	508	0	0	
11	0	0	0	0	506	510	0	0	
12	0	0	0	0	514	512	0	0	
13	0	0	0	0	515	511	0	0	
14	0	0	0	0	509	510	0	0	
15	0	0	0	0	511	508	0	0	
0	0	0	0	0	511	510	0	0	
1	0	0	0	0	510	512	0	0	
2	0	0	0	0	510	511	0	0	
3	0	0	0	0	508	512	0	0	
4	0	0	0	0	508	513	0	0	
5	0	0	0	0	503	511	0	0	
6	0	0	0	0	503	511	0	0	
7	0	0	0	0	498	510	0	0	
8	0	0	0	0	492	510	0	0	
9	0	0	0	0	504	510	0	0	
10	0	0	0	0	537	511	0	0	
11	0	0	0	0	530	512	0	0	
12	0	0	0	0	515	511	0	0	
13	0	0	0	0	508	511	0	0	
14	0	0	0	0	508	506	0	0	
15	0	0	0	0	499	509	0	0	
0	0	0	0	0	503	512	0	0	
1	0	0	0	0	504	510	0	0	
2	0	0	0	0	512	509	0	0	
3	0	0	0	0	517	513	0	0	
4	0	0	0	0	515	512	0	0	
5	0	0	0	0	514	513	0	0	
6	0	0	0	0	513	512	0	0	
7	0	0	0	0	505	511	0	0	
8	0	0	0	0	504	511	0	0	
9	0	0	0	0	496	510	0	0	
10	0	0	0	0	494	509	0	0	
11	0	0	0	0	500	509	0	0	
12	0	0	0	0	498	507	0	0	
13	0	0	0	0	501	508	0	0	
14	0	0	0	0	501	509	0	0	
15	0	0	0	0	502	511	0	0	
0	0	0	0	0	525	514	0	0	
1	0	0	0	0	531	512	0	0	
2	0	0	0	0	517	511	0	0	
3	0	0	0	0	516	511	0	0	
4	0	0	0	0	511	511	0	0	
5	0	0	0	0	516	511	0	0	
6	0	0	0	0	513	511	0	0	
7	0	0	0	0	503	510	0	0	
8	0	0	0	0	505	510	0	0	
9	0	0	0	0	509	512	0	0	
10	0	0	0	0	498	510	0	0	
11	0	0	0	0	489	508	0	0	
12	0	0	0	0	502	510	0	0	
13	0	0	0	0	513	511	0	0	
14	0	0	0	0	512	510	0	0	
15	0	0	0	0	519	512	0	0	
0	0	0	0	0	509	510	0	0	
1	0	0	0	0	504	508	0	0	
2	0	0	0	0	505	511	0	0	
3	0	0	0	0	506	507	0	0	
4	0	0	0	0	506	509	0	0	
5	0	0	0	0	511	510	0	0	
6	0	0	0	0	511	510	0	0	
7	0	0	0	0	513	513	0	0	
8	0	0	0	0	515	511	0	0	
9	0	0	0	0	514	513	0	0	
10	0	0	0	0	515	512	0	0	
11	0	0	0	0	514	513	0	0	
12	0	0	0	0	511	511	0	0	
13	0	0	0	0	511	512	0	0	
14	0	0	0	0	511	513	0	0	
15	0	0	0	0	509	508	0	0	
0	0	0	0	0	499	511	0	0	
1	0	0	0	0	505	511	0	0	
2	0	0	0	0	504	510	0	0	
3	0	0	0	0	507	512	0	0	
4	0	0	0	0	504	510	0	0	
5	0	0	0	0	498	508	0	0	
6	0	0	0	0	491	509	0	0	
7	0	0	0	0	500	507	0	0	
8	0	0	0	0	509	509	0	0	
9	0	0	0	0	510	508	0	0	
10	0	0	0	0	505	512	0	0	
11	0	0	0	0	508	511	0	0	
12	0	0	0	0	519	512	0	0	
13	0	0	0	0	521	513	0	0	
14	0	0	0	0	527	512	0	0	
15	0	0	0	0	519	513	0	0	
0	0	0	0	0	509	510	0	0	
1	0	0	0	0	514	508	0	0	
2	0	0	0	0	528	512	0	0	
3	0	0	0	0	512	514	0	0	
4	0	0	0	0	493	509	0	0	
5	0	0	0	0	479	507	0	0	
6	0	0	0	0	479	504	0	0	
7	0	0	0	0	486	509	0	0	
8	0	0	0	0	499	508	0	0	
9	0	0	0	0	513	510	0	0	
10	0	0	0	0	526	510	0	0	
11	0	0	0	0	524	511	0	0	
12	0	0	0	0	523	510	0	0	
13	0	0	0	0	522	512	0	0	
14	0	0	0	0	514	511	0	0	
15	0	0	0	0	512	514	0	0	
0	0	0	0	0	522	515	0	0	
1	0	0	0	0	525	511	0	0	
2	0	0	0	0	509	507	0	0	
3	0	0	0	0	502	505	0	0	
4	0	0	0	0	484	506	0	0	
5	0	0	0	0	496	509	0	0	
6	0	0	0	0	529	515	0	0	
7	0	0	0	0	525	515	0	0	
8	0	0	0	0	472	512	0	0	
9	0	0	0	0	476	513	0	0	
10	0	0	0	0	504	513	0	0	
11	0	0	0	0	498	510	0	0	
12	0	0	0	0	496	508	0	0	
13	0	0	0	0	508	511	0	0	
14	0	0	0	0	531	511	0	0	
15	0	0	0	0	549	512	0	0	
0	0	0	0	0	520	509	0	0	
1	0	0	0	0	504	512	0	0	
2	0	0	0	0	511	514	0	0	
3	0	0	0	0	481	509	0	0	
4	0	0	0	0	505	508	0	0	
5	0	0	0	0	524	508	0	0	
6	0	0	0	0	514	510	0	0	
7	0	0	0	0	524	513	0	0	
8	0	0	0	0	514	512	0	0	
9	0	0	0	0	513	508	0	0	
10	0	0	0	0	505	504	0	0	
11	0	0	0	0	475	505	0	0	
12	0	0	0	0	476	510	0	0	
13	0	0	0	0	480	511	0	0	
14	0	0	0	0	486	508	0	0	
15	0	0	0	0	499	510	0	0	
0	0	0	0	0	508	510	0	0	
1	0	0	0	0	526	512	0	0	
2	0	0	0	0	540	515	0	0	
3	0	0	0	0	537	521	0	0	
4	0	0	0	0	530	518	0	0	
5	0	0	0	0	528	514	0	0	
6	0	0	0	0	519	508	0	0	
7	0	0	0	0	496	502	0	0	
8	0	0	0	0	496	498	0	0	
9	0	0	0	0	497	504	0	0	
10	0	0	0	0	516	507	0	0	
11	0	0	0	0	518	504	0	0	
12	0	0	0	0	493	504	0	0	
13	0	0	0	0	486	509	0	0	
14	0	0	0	0	490	512	0	0	
15	0	0	0	0	494	508	0	0	
0	0	0	0	0	520	514	0	0	
1	0	0	0	0	509	511	0	0	
2	0	0	0	0	505	512	0	0	
3	0	0	0	0	486	512	0	0	
4	0	0	0	0	537	513	0	0	
5	0	0	0	0	528	511	0	0	
6	0	0	0	0	539	511	0	0	
7	0	0	0	0	542	518	0	0	
8	0	0	0	0	554	519	0	0	
9	0	0	0	0	540	514	0	0	
10	0	0	0	0	510	513	0	0	
11	0	0	0	0	488	513	0	0	
12	0	0	0	0	479	516	0	0	
13	0	0	0	0	471	510	0	0	
14	0	0	0	0	486	512	3	0	
15	0	0	0	0	485	511	1	0	
0	0	0	0	0	476	504	0	0	
1	0	0	0	0	478	506	6	0	
2	0	0	0	0	475	504	33	0	
3	0	0	0	0	510	505	36	0	
4	0	0	0	0	523	506	46	0	
5	0	0	0	0	521	494	56	0	
6	0	0	0	0	500	492	60	0	
7	0	0	0	0	596	511	70	0	
8	0	0	0	0	615	532	76	0	
9	0	0	0	0	551	524	79	0	
10	0	0	0	0	493	513	83	0	
11	0	0	0	0	477	512	82	0	
12	0	0	0	0	498	514	89	0	
13	0	0	0	0	479	515	91	0	
14	0	0	0	0	501	519	95	0	
15	0	0	0	0	460	515	102	0	
0	0	0	0	0	480	516	109	0	
1	0	0	0	0	486	512	113	0	
2	0	0	0	0	487	508	119	0	
3	0	0	0	0	512	513	123	0	
4	0	0	0	0	536	509	126	0	
5	0	0	0	0	516	503	128	0	
6	0	0	0	0	519	501	131	0	
7	0	0	0	0	527	493	137	0	
8	0	0	0	0	504	493	141	0	
9	0	0	0	0	508	498	141	0	
10	0	0	0	0	519	508	146	0	
11	0	0	0	0	509	516	150	0	
12	0	0	0	0	534	523	154	0	
13	0	0	0	0	532	519	157	0	
14	0	0	0	0	504	518	159	0	
15	0	0	0	0	492	513	162	0	
0	0	0	0	0	531	513	163	0	
1	0	0	0	0	498	513	167	0	
2	0	0	0	0	516	514	172	0	
3	0	0	0	0	488	515	173	0	
4	0	0	0	0	508	519	181	0	
5	0	0	0	0	486	519	184	0	
6	0	0	0	0	488	516	184	0	
7	0	0	0	0	493	507	187	0	
8	0	0	0	0	494	505	192	0	
9	0	0	0	0	467	513	196	0	
10	0	0	0	0	449	510	199	0	
11	0	0	0	0	508	512	203	0	
12	0	0	0	0	511	498	208	0	
13	0	0	0	0	524	482	213	0	
14	0	0	0	0	563	482	213	0	
15	0	0	0	0	579	502	217	0	
0	0	0	0	0	579	525	226	0	
1	0	0	0	0	560	519	233	0	
2	0	0	0	0	510	518	232	0	
3	0	0	0	0	482	504	234	0	
4	0	0	0	0	448	489	233	0	
5	0	0	0	0	480	495	232	0	
6	0	0	0	0	514	514	232	0	
7	0	0	0	0	531	533	237	0	
8	0	0	0	0	581	540	242	0	
9	0	0	0	0	592	536	241	0	
10	0	0	0	0	444	527	241	0	
11	0	0	0	0	451	530	242	0	
12	0	0	0	0	424	540	241	0	
13	0	0	0	0	425	524	244	0	
14	0	0	0	0	433	510	252	0	
15	0	0	0	0	504	509	253	0	
0	0	0	0	0	530	500	250	0	
1	0	0	0	0	562	510	254	0	
2	0	0	0	0	656	499	252	0	
3	0	0	0	0	687	489	251	0	
4	0	0	0	0	491	487	248	0	
5	0	0	0	0	439	504	250	0	
6	0	0	0	0	444	467	248	0	
7	0	0	0	0	458	460	248	0	
8	0	0	0	0	477	486	252	0	
9	0	0	0	0	505	523	253	0	
10	0	0	0	0	499	541	255	0	
11	0	0	0	0	521	538	255	0	
12	0	0	0	0	488	483	256	0	
13	0	0	0	0	492	511	255	0	
14	0	0	0	0	531	542	257	0	
15	0	0	0	0	550	533	258	0	
0	0	0	0	0	568	527	259	0	
1	0	0	0	0	556	536	260	0	
2	0	0	0	0	573	478	260	0	
3	0	0	0	0	545	411	259	0	
4	0	0	0	0	520	419	260	0	
5	0	0	0	0	473	447	260	0	
6	0	0	0	0	403	398	263	0	
7	0	0	0	0	409	401	267	0	
8	0	0	0	0	462	493	269	0	
9	0	0	0	0	500	534	271	0	
10	0	0	0	0	525	534	268	0	
11	0	0	0	0	511	540	268	0	
12	0	0	0	0	491	678	268	0	
13	0	0	0	0	505	740	268	0	
14	0	0	0	0	523	679	267	0	
15	0	0	0	0	479	659	265	0	
0	0	0	0	0	470	634	263	0	
1	0	0	0	0	487	481	266	0	
2	0	0	0	0	528	330	267	0	
3	0	0	0	0	565	364	263	0	
4	0	0	0	0	566	498	265	0	
5	0	0	0	0	556	521	276	0	
6	0	0	0	0	551	476	277	0	
7	0	0	0	0	512	429	275	0	
8	0	0	0	0	460	450	290	0	
9	0	0	0	0	439	493	301	0	
10	0	0	0	0	463	478	307	0	
11	0	0	0	0	491	458	307	0	
12	0	0	0	0	559	477	307	8	
13	0	0	0	0	589	552	312	14	
14	0	0	0	0	525	605	316	18	
15	0	0	0	0	432	616	321	24	
0	0	0	0	0	452	653	331	28	
1	0	0	0	0	473	578	334	39	
2	0	0	0	0	499	465	338	47	
3	0	0	0	0	535	424	339	54	
4	0	0	0	0	559	457	340	61	
5	0	0	0	0	507	494	344	71	
6	0	0	0	0	572	561	344	75	
7	0	0	0	0	598	566	349	81	
8	0	0	0	0	535	527	345	82	
9	0	0	0	0	561	499	346	85	
10	0	0	0	0	576	492	348	89	
11	0	0	0	0	484	352	351	92	
12	0	0	0	0	437	388	355	97	
13	0	0	0	0	431	480	356	99	
14	0	0	0	0	411	593	358	102	
15	0	0	0	0	431	603	362	99	
0	0	0	0	0	519	538	363	97	
1	0	0	0	0	537	522	365	102	
2	0	0	0	0	523	540	365	103	
3	0	0	0	0	533	540	366	98	
4	0	0	0	0	519	396	364	95	
5	0	0	0	0	480	416	365	105	
6	0	0	0	0	452	574	366	109	
7	0	0	0	0	522	693	365	109	
8	0	0	0	0	541	659	369	114	
9	0	0	0	0	505	553	371	113	
10	0	0	0	0	540	515	371	113	
11	0	0	0	0	504	454	372	112	
12	0	0	0	0	479	408	374	116	
13	0	0	0	0	521	396	374	109	
14	0	0	0	0	563	458	374	115	
15	0	0	0	0	547	528	372	114	
0	0	0	0	0	492	505	376	115	
1	0	0	0	0	478	490	377	122	
2	0	0	0	0	467	552	377	136	
3	0	0	0	0	502	578	377	144	
4	0	0	0	0	565	535	376	159	
5	0	0	0	0	580	463	378	152	
6	0	0	0	0	472	399	376	150	
7	0	0	0	0	450	417	382	151	
8	0	0	0	0	503	393	383	146	
9	0	0	0	0	550	496	383	153	
10	0	0	0	0	527	591	391	151	
11	0	0	0	0	505	688	391	161	
12	0	0	0	0	464	697	391	157	
13	0	0	0	0	446	525	396	162	
14	0	0	0	0	517	518	399	161	
15	0	0	0	0	565	429	403	162	
0	0	0	0	0	614	362	406	169	
1	0	0	0	0	562	427	406	167	
2	0	0	0	0	446	551	407	163	
3	0	0	0	0	379	520	411	163	
4	0	0	0	0	426	538	412	164	
5	0	0	0	0	468	585	415	155	
6	0	0	0	0	491	586	420	152	
7	0	0	0	0	583	527	420	149	
8	0	0	0	0	609	470	420	146	
9	0	0	0	0	564	422	421	146	
10	0	0	0	0	499	428	422	147	
11	0	0	0	0	564	543	420	148	
12	0	0	0	0	553	611	417	152	
13	0	0	0	0	518	581	410	147	
14	0	0	0	0	480	560	409	152	
15	0	0	0	0	480	448	407	160	
0	0	0	0	0	493	452	405	162	
1	0	0	0	0	494	450	404	160	
2	0	0	0	0	472	501	400	154	
3	0	0	0	0	471	546	396	143	
4	0	0	0	0	492	484	394	157	
5	0	0	0	0	496	467	390	160	
6	0	0	0	0	496	475	388	176	
7	0	0	0	0	523	505	386	184	
8	0	0	0	0	548	511	379	187	
9	0	0	0	0	509	503	374	185	
10	0	0	0	0	476	531	374	189	
11	0	0	0	0	465	594	371	191	
12	0	0	0	0	415	588	368	213	
13	0	0	0	0	367	587	364	225	
14	0	0	0	0	419	515	359	221	
15	0	0	0	0	598	468	347	226	
0	0	0	0	0	625	460	344	232	
1	0	0	0	0	758	472	342	248	
2	0	0	0	0	668	511	344	253	
3	0	0	0	0	539	491	336	262	
4	0	0	0	0	483	489	336	287	
5	0	0	0	0	447	514	335	291	
6	0	0	0	0	430	522	331	292	
7	0	0	0	0	470	524	332	303	
8	0	0	0	0	447	531	328	303	
9	0	0	0	0	433	520	329	305	
10	0	0	0	0	515	517	330	310	
11	0	0	0	0	553	520	332	316	
12	0	0	0	0	482	472	333	321	
13	0	0	0	0	568	481	335	327	
14	0	0	0	0	642	502	334	328	
15	0	0	0	0	539	525	335	328	
0	0	0	0	0	436	510	339	333	
1	0	0	0	0	437	493	339	331	
2	0	0	0	0	468	472	339	333	
3	0	0	0	0	537	533	342	334	
4	0	0	0	0	517	607	342	339	
5	0	0	0	0	483	622	339	335	
6	0	0	0	0	426	516	342	331	
7	0	0	0	0	439	478	344	331	
8	0	0	0	0	508	472	347	336	
9	0	0	0	0	577	460	347	335	
10	0	0	0	0	635	471	348	337	
11	0	0	0	0	576	496	350	335	
12	0	0	0	0	509	581	351	331	
13	0	0	0	0	468	591	352	328	
14	0	0	0	0	435	524	353	333	
15	0	0	0	0	470	454	356	337	
0	0	0	0	0	527	434	359	329	
1	0	0	0	0	546	510	360	325	
2	0	0	0	0	540	510	361	320	
3	0	0	0	0	521	470	364	323	
4	0	0	0	0	513	463	366	323	
5	0	0	0	0	501	537	367	331	
6	0	0	0	0	484	522	370	329	
7	0	0	0	0	487	476	368	334	
8	0	0	0	0	489	476	368	340	
9	0	0	0	0	485	544	373	340	
10	0	0	0	0	508	543	371	342	
11	0	0	0	0	524	471	372	344	
12	0	0	0	0	507	489	374	343	
13	0	0	0	0	496	511	377	348	
14	0	0	0	0	537	525	380	348	
15	0	0	0	0	544	516	384	347	
0	0	0	0	0	509	515	385	346	
1	0	0	0	0	531	534	388	350	
2	0	0	0	0	553	536	390	349	
3	0	0	0	0	490	536	393	353	
4	0	0	0	0	465	519	396	352	
5	0	0	0	0	484	512	398	354	
6	0	0	0	0	496	530	405	352	
7	0	0	0	0	499	536	408	358	
8	0	0	0	0	491	519	412	359	
9	0	0	0	0	476	488	416	362	
10	0	0	0	0	487	550	415	359	
11	0	0	0	0	515	483	416	358	
12	0	0	0	0	565	423	417	352	
13	0	0	0	0	540	403	419	355	
14	0	0	0	0	540	498	422	355	
15	0	0	0	0	527	571	421	358	
0	0	0	0	0	486	552	422	359	
1	0	0	0	0	495	555	421	358	
2	0	0	0	0	448	532	420	359	
3	0	0	0	0	470	526	414	361	
4	0	0	0	0	524	513	414	365	
5	0	0	0	0	539	501	414	364	
6	0	0	0	0	515	503	414	363	
7	0	0	0	0	483	512	413	365	
8	0	0	0	0	502	512	413	366	
9	0	0	0	0	567	527	412	368	
10	0	0	0	0	547	547	414	368	
11	0	0	0	0	529	508	413	368	
12	0	0	0	0	497	444	413	369	
13	0	0	0	0	540	484	413	369	
14	0	0	0	0	529	527	412	370	
15	0	0	0	0	546	536	412	371	
0	0	0	0	0	518	566	412	370	
1	0	0	0	0	477	503	412	370	
2	0	0	0	0	451	442	412	371	
3	0	0	0	0	395	450	411	370	
4	0	0	0	0	423	468	411	369	
5	0	0	0	0	518	547	410	364	
6	0	0	0	0	552	572	410	362	
7	0	0	0	0	506	532	410	363	
8	0	0	0	0	500	471	408	362	
9	0	0	0	0	497	422	407	359	
10	0	0	0	0	524	469	407	359	
11	0	0	0	0	548	538	404	358	
12	0	0	0	0	564	589	403	356	
13	0	0	0	0	489	548	399	358	
14	0	0	0	0	483	520	397	359	
15	0	0	0	0	529	507	397	357	
0	0	0	0	0	532	530	394	357	
1	0	0	0	0	519	546	393	353	
2	0	0	0	0	508	515	392	353	
3	0	0	0	0	515	502	391	347	
4	0	0	0	0	503	525	390	348	
5	0	0	0	0	508	509	391	348	
6	0	0	0	0	519	539	391	350	
7	0	0	0	0	526	510	392	347	
8	0	0	0	0	503	522	392	346	
9	0	0	0	0	490	460	391	347	
10	0	0	0	0	484	502	391	344	
11	0	0	0	0	478	497	390	344	
12	0	0	0	0	483	490	392	341	
13	0	0	0	0	490	493	390	342	
14	0	0	0	0	546	502	388	341	
15	0	0	0	0	551	521	387	341	
0	0	0	0	0	559	524	386	339	
1	0	0	0	0	517	486	386	338	
2	0	0	0	0	453	498	386	337	
3	0	0	0	0	448	511	386	336	
4	0	0	0	0	480	528	386	341	
5	0	0	0	0	494	545	387	342	
6	0	0	0	0	497	512	386	342	
7	0	0	0	0	528	491	385	339	
8	0	0	0	0	516	510	384	339	
9	0	0	0	0	544	508	382	339	
10	0	0	0	0	589	509	384	340	
11	0	0	0	0	599	529	385	341	
12	0	0	0	0	536	568	383	343	
13	0	0	0	0	510	579	384	341	
14	0	0	0	0	479	519	386	339	
15	0	0	0	0	453	386	385	337	
0	0	0	0	0	463	416	385	337	
1	0	0	0	0	496	476	385	335	
2	0	0	0	0	532	499	385	337	
3	0	0	0	0	494	525	385	335	
4	0	0	0	0	488	535	385	338	
5	0	0	0	0	499	546	384	335	
6	0	0	0	0	495	534	385	335	
7	0	0	0	0	490	543	384	335	
8	0	0	0	0	506	523	383	334	
9	0	0	0	0	546	513	382	334	
10	0	0	0	0	525	496	382	336	
11	0	0	0	0	514	447	383	335	
12	0	0	0	0	513	467	383	335	
13	0	0	0	0	524	492	382	334	
14	0	0	0	0	513	532	382	335	
15	0	0	0	0	489	524	384	334	
0	0	0	0	0	473	532	382	334	
1	0	0	0	0	487	529	383	335	
2	0	0	0	0	472	541	383	337	
3	0	0	0	0	435	563	381	340	
4	0	0	0	0	479	571	383	337	
5	0	0	0	0	519	473	382	336	
6	0	0	0	0	551	433	381	338	
7	0	0	0	0	602	500	383	338	
8	0	0	0	0	609	529	382	337	
9	0	0	0	0	556	493	382	338	
10	0	0	0	0	524	492	382	337	
11	0	0	0	0	486	531	382	340	
12	0	0	0	0	453	551	383	339	
13	0	0	0	0	455	499	383	341	
14	0	0	0	0	485	444	383	340	
15	0	0	0	0	508	426	382	339	
0	0	0	0	0	532	515	382	340	
1	0	0	0	0	532	539	382	342	
2	0	0	0	0	523	574	382	346	
3	0	0	0	0	515	557	383	346	
4	0	0	0	0	513	546	383	346	
5	0	0	0	0	511	546	382	347	
6	0	0	0	0	504	522	381	347	
7	0	0	0	0	472	484	380	346	
8	0	0	0	0	432	463	378	345	
9	0	0	0	0	484	482	377	345	
10	0	0	0	0	531	498	376	346	
11	0	0	0	0	523	519	377	345	
12	0	0	0	0	529	515	377	345	
13	0	0	0	0	524	526	376	347	
14	0	0	0	0	500	525	375	345	
15	0	0	0	0	497	522	373	346	
0	0	0	0	0	523	514	370	346	
1	0	0	0	0	467	492	370	347	
2	0	0	0	0	459	482	369	347	
3	0	0	0	0	511	497	367	345	
4	0	0	0	0	579	543	364	347	
5	0	0	0	0	609	575	362	344	
6	0	0	0	0	564	504	358	346	
7	0	0	0	0	496	465	356	344	
8	0	0	0	0	491	452	352	343	
9	0	0	0	0	484	411	350	344	
10	0	0	0	0	472	460	345	343	
11	0	0	0	0	486	590	343	344	
12	0	0	0	0	503	615	341	344	
13	0	0	0	0	512	551	338	343	
14	0	0	0	0	507	518	337	343	
15	0	0	0	0	488	525	334	343	
0	0	0	0	0	487	530	331	345	
1	0	0	0	0	497	501	330	344	
2	0	0	0	0	521	484	328	345	
3	0	0	0	0	518	506	328	343	
4	0	0	0	0	496	519	327	339	
5	0	0	0	0	513	511	327	339	
6	0	0	0	0	525	515	327	340	
7	0	0	0	0	494	489	325	340	
8	0	0	0	0	543	522	324	340	
9	0	0	0	0	525	497	323	341	
10	0	0	0	0	516	488	322	339	
11	0	0	0	0	532	481	323	339	
12	0	0	0	0	532	492	322	338	
13	0	0	0	0	515	529	323	338	
14	0	0	0	0	487	577	322	339	
15	0	0	0	0	441	530	321	336	
0	0	0	0	0	473	535	321	338	
1	0	0	0	0	507	558	319	335	
2	0	0	0	0	494	478	319	337	
3	0	0	0	0	524	455	318	335	
4	0	0	0	0	515	461	318	333	
5	0	0	0	0	531	451	317	331	
6	0	0	0	0	518	492	318	334	
7	0	0	0	0	523	509	315	333	
8	0	0	0	0	516	516	314	333	
9	0	0	0	0	522	514	312	335	
10	0	0	0	0	513	510	312	335	
11	0	0	0	0	489	519	312	335	
12	0	0	0	0	473	539	311	336	
13	0	0	0	0	475	535	311	336	
14	0	0	0	0	484	520	310	336	
15	0	0	0	0	504	516	310	335	
0	0	0	0	0	548	523	309	338	
1	0	0	0	0	539	523	309	339	
2	0	0	0	0	496	520	307	341	
3	0	0	0	0	519	521	307	341	
4	0	0	0	0	502	515	307	342	
5	0	0	0	0	521	527	305	341	
6	0	0	0	0	513	516	306	340	
7	0	0	0	0	536	496	304	343	
8	0	0	0	0	531	477	305	343	
9	0	0	0	0	476	480	306	341	
10	0	0	0	0	457	518	306	342	
11	0	0	0	0	483	536	306	344	
12	0	0	0	0	512	537	305	344	
13	0	0	0	0	552	531	304	345	
14	0	0	0	0	574	509	304	345	
15	0	0	0	0	504	504	305	345	
0	0	0	0	0	504	496	306	345	
1	0	0	0	0	498	504	307	344	
2	0	0	0	0	495	513	306	346	
3	0	0	0	0	527	493	306	347	
4	0	0	0	0	525	478	305	346	
5	0	0	0	0	508	504	304	347	
6	0	0	0	0	519	525	304	348	
7	0	0	0	0	489	491	301	347	
8	0	0	0	0	456	477	302	346	
9	0	0	0	0	494	497	300	346	
10	0	0	0	0	486	507	300	347	
11	0	0	0	0	471	519	298	345	
12	0	0	0	0	496	551	299	345	
13	0	0	0	0	518	527	299	347	
14	0	0	0	0	537	521	297	345	
15	0	0	0	0	564	499	298	348	
0	0	0	0	0	536	507	297	347	
1	0	0	0	0	515	515	297	347	
2	0	0	0	0	455	508	295	345	
3	0	0	0	0	470	519	295	343	
4	0	0	0	0	510	530	295	342	
5	0	0	0	0	524	518	294	342	
6	0	0	0	0	563	515	294	342	
7	0	0	0	0	552	511	294	342	
8	0	0	0	0	495	507	291	343	
9	0	0	0	0	500	520	290	341	
10	0	0	0	0	534	516	290	338	
11	0	0	0	0	527	516	290	335	
12	0	0	0	0	497	505	289	333	
13	0	0	0	0	492	488	287	335	
14	0	0	0	0	485	489	288	331	
15	0	0	0	0	498	516	289	333	
0	0	0	0	0	501	502	287	335	
1	0	0	0	0	505	492	287	333	
2	0	0	0	0	503	513	285	334	
3	0	0	0	0	512	527	286	334	
4	0	0	0	0	500	525	285	336	
5	0	0	0	0	502	511	286	335	
6	0	0	0	0	512	488	284	336	
7	0	0	0	0	511	503	283	335	
8	0	0	0	0	490	513	281	335	
9	0	0	0	0	500	503	283	335	
10	0	0	0	0	453	506	282	335	
11	0	0	0	0	440	523	283	335	
12	0	0	0	0	479	520	283	334	
13	0	0	0	0	530	505	285	335	
14	0	0	0	0	616	502	286	335	
15	0	0	0	0	644	549	285	335	
0	0	0	0	0	560	541	288	335	
1	0	0	0	0	488	507	287	334	
2	0	0	0	0	481	525	285	333	
3	0	0	0	0	498	526	287	332	
4	0	0	0	0	486	513	285	333	
5	0	0	0	0	458	496	284	330	
6	0	0	0	0	467	493	284	329	
7	0	0	0	0	487	475	282	327	
8	0	0	0	0	505	471	283	325	
9	0	0	0	0	546	486	282	323	
10	0	0	0	0	600	506	282	323	
11	0	0	0	0	526	516	281	323	
12	0	0	0	0	456	510	281	324	
13	0	0	0	0	455	537	280	323	
14	0	0	0	0	491	550	283	323	
15	0	0	0	0	533	539	281	321	
0	0	0	0	0	543	515	282	320	
1	0	0	0	0	539	483	282	319	
2	0	0	0	0	519	492	281	319	
3	0	0	0	0	503	508	279	319	
4	0	0	0	0	503	477	278	320	
5	0	0	0	0	501	490	276	321	
6	0	0	0	0	489	535	275	320	
7	0	0	0	0	502	536	275	320	
8	0	0	0	0	507	513	273	320	
9	0	0	0	0	499	499	272	320	
10	0	0	0	0	501	502	270	320	
11	0	0	0	0	510	510	271	319	
12	0	0	0	0	507	519	271	319	
13	0	0	0	0	488	533	276	319	
14	0	0	0	0	476	531	278	318	
15	0	0	0	0	481	531	277	318	
0	0	0	0	0	497	514	277	316	
1	0	0	0	0	510	500	275	317	
2	0	0	0	0	549	513	275	316	
3	0	0	0	0	575	520	273	314	
4	0	0	0	0	525	460	272	313	
5	0	0	0	0	508	471	274	313	
6	0	0	0	0	513	529	273	313	
7	0	0	0	0	513	576	273	313	
8	0	0	0	0	484	561	275	313	
9	0	0	0	0	479	532	276	314	
10	0	0	0	0	477	488	276	311	
11	0	0	0	0	515	468	278	312	
12	0	0	0	0	546	483	277	311	
13	0	0	0	0	552	460	279	312	
14	0	0	0	0	544	489	277	299	
15	0	0	0	0	558	505	277	300	
0	0	0	0	0	504	525	275	297	
1	0	0	0	0	465	525	276	294	
2	0	0	0	0	453	512	274	292	
3	0	0	0	0	449	508	274	291	
4	0	0	0	0	483	521	273	291	
5	0	0	0	0	504	490	269	292	
6	0	0	0	0	532	493	270	291	
7	0	0	0	0	540	498	270	291	
8	0	0	0	0	524	499	270	291	
9	0	0	0	0	517	547	271	291	
10	0	0	0	0	510	557	270	290	
11	0	0	0	0	483	550	269	290	
12	0	0	0	0	488	543	270	289	
13	0	0	0	0	493	502	269	289	
14	0	0	0	0	519	489	267	288	
15	0	0	0	0	545	503	267	286	
0	0	0	0	0	545	515	266	278	
1	0	0	0	0	526	501	266	275	
2	0	0	0	0	515	491	264	272	
3	0	0	0	0	508	508	264	271	
4	0	0	0	0	501	526	263	270	
5	0	0	0	0	473	519	263	269	
6	0	0	0	0	450	496	263	269	
7	0	0	0	0	461	484	262	266	
8	0	0	0	0	514	493	262	265	
9	0	0	0	0	555	499	263	264	
10	0	0	0	0	566	507	263	264	
11	0	0	0	0	561	515	263	263	
12	0	0	0	0	513	517	263	263	
13	0	0	0	0	497	527	264	263	
14	0	0	0	0	499	517	264	264	
15	0	0	0	0	504	527	264	263	
0	0	0	0	0	509	533	264	262	
1	0	0	0	0	507	535	267	260	
2	0	0	0	0	492	520	265	261	
3	0	0	0	0	500	489	263	261	
4	0	0	0	0	505	503	264	260	
5	0	0	0	0	508	507	263	261	
6	0	0	0	0	495	503	265	261	
7	0	0	0	0	483	503	266	262	
8	0	0	0	0	476	499	264	259	
9	0	0	0	0	495	469	263	260	
10	0	0	0	0	511	476	264	260	
11	0	0	0	0	544	501	263	260	
12	0	0	0	0	552	525	263	259	
13	0	0	0	0	525	524	263	259	
14	0	0	0	0	523	529	264	259	
15	0	0	0	0	499	512	264	259	
0	0	0	0	0	488	504	265	259	
1	0	0	0	0	492	498	264	257	
2	0	0	0	0	511	513	264	258	
3	0	0	0	0	510	520	263	258	
4	0	0	0	0	479	512	263	258	
5	0	0	0	0	489	518	261	257	
6	0	0	0	0	537	524	261	256	
7	0	0	0	0	547	527	261	256	
8	0	0	0	0	536	514	262	256	
9	0	0	0	0	501	500	260	257	
10	0	0	0	0	533	513	260	256	
11	0	0	0	0	521	514	261	256	
12	0	0	0	0	471	508	261	256	
13	0	0	0	0	476	510	261	256	
14	0	0	0	0	495	511	261	255	
15	0	0	0	0	488	513	261	254	
0	0	0	0	0	498	513	263	253	
1	0	0	0	0	492	513	263	254	
2	0	0	0	0	483	507	265	254	
3	0	0	0	0	496	505	265	253	
4	0	0	0	0	526	495	265	252	
5	0	0	0	0	544	497	264	251	
6	0	0	0	0	555	524	262	251	
7	0	0	0	0	563	530	262	251	
8	0	0	0	0	527	520	261	250	
9	0	0	0	0	509	509	260	251	
10	0	0	0	0	495	498	260	250	
11	0	0	0	0	489	501	258	249	
12	0	0	0	0	491	507	257	249	
13	0	0	0	0	482	507	256	248	
14	0	0	0	0	513	513	255	250	
15	0	0	0	0	515	515	254	249	
0	0	0	0	0	508	510	254	249	
1	0	0	0	0	519	502	254	251	
2	0	0	0	0	496	499	251	248	
3	0	0	0	0	491	518	251	248	
4	0	0	0	0	499	540	250	250	
5	0	0	0	0	519	540	247	249	
6	0	0	0	0	513	496	248	249	
7	0	0	0	0	514	502	248	249	
8	0	0	0	0	502	517	247	247	
9	0	0	0	0	505	509	248	248	
10	0	0	0	0	509	492	248	246	
11	0	0	0	0	510	490	248	246	
12	0	0	0	0	517	500	248	246	
13	0	0	0	0	519	520	248	246	
14	0	0	0	0	513	517	248	246	
15	0	0	0	0	511	512	247	244	
0	0	0	0	0	493	505	247	244	
1	0	0	0	0	490	504	247	243	
2	0	0	0	0	509	507	247	243	
3	0	0	0	0	518	510	246	243	
4	0	0	0	0	497	527	248	242	
5	0	0	0	0	493	558	247	240	
6	0	0	0	0	491	549	247	240	
7	0	0	0	0	480	522	248	240	
8	0	0	0	0	509	488	248	240	
9	0	0	0	0	556	489	247	240	
10	0	0	0	0	556	488	247	240	
11	0	0	0	0	521	481	248	240	
12	0	0	0	0	493	492	248	239	
13	0	0	0	0	500	504	249	240	
14	0	0	0	0	484	504	249	240	
15	0	0	0	0	501	505	250	239	
0	0	0	0	0	573	516	249	238	
1	0	0	0	0	570	518	251	238	
2	0	0	0	0	509	517	250	239	
3	0	0	0	0	487	519	251	238	
4	0	0	0	0	449	517	252	238	
5	0	0	0	0	463	514	251	238	
6	0	0	0	0	493	513	252	239	
7	0	0	0	0	523	520	251	238	
8	0	0	0	0	547	509	251	238	
9	0	0	0	0	529	505	251	237	
10	0	0	0	0	496	489	253	237	
11	0	0	0	0	476	497	252	237	
12	0	0	0	0	506	502	254	236	
13	0	0	0	0	500	516	254	235	
14	0	0	0	0	505	536	254	235	
15	0	0	0	0	519	547	253	234	
0	0	0	0	0	526	527	255	235	
1	0	0	0	0	517	515	255	235	
2	0	0	0	0	503	514	255	235	
3	0	0	0	0	499	494	255	235	
4	0	0	0	0	498	478	255	235	
5	0	0	0	0	518	487	255	236	
6	0	0	0	0	517	494	255	235	
7	0	0	0	0	515	515	255	235	
8	0	0	0	0	521	519	255	234	
9	0	0	0	0	504	518	255	234	
10	0	0	0	0	465	505	255	235	
11	0	0	0	0	478	515	255	235	
12	0	0	0	0	521	528	255	235	
13	0	0	0	0	504	531	255	235	
14	0	0	0	0	525	519	255	235	
15	0	0	0	0	542	514	254	236	
0	0	0	0	0	546	516	255	236	
1	0	0	0	0	506	504	255	236	
2	0	0	0	0	505	505	254	236	
3	0	0	0	0	518	512	255	236	
4	0	0	0	0	500	502	255	235	
5	0	0	0	0	482	512	256	235	
6	0	0	0	0	480	516	256	236	
7	0	0	0	0	469	507	258	235	
8	0	0	0	0	481	508	257	235	
9	0	0	0	0	535	505	256	234	
10	0	0	0	0	516	499	256	234	
11	0	0	0	0	534	508	257	234	
12	0	0	0	0	553	513	257	234	
13	0	0	0	0	515	501	255	235	
14	0	0	0	0	508	527	256	234	
15	0	0	0	0	516	541	257	235	
0	0	0	0	0	527	524	256	235	
1	0	0	0	0	494	499	256	236	
2	0	0	0	0	489	502	256	236	
3	0	0	0	0	494	516	254	236	
4	0	0	0	0	495	523	255	236	
5	0	0	0	0	504	513	255	236	
6	0	0	0	0	501	491	254	237	
7	0	0	0	0	513	506	255	237	
8	0	0	0	0	525	515	254	238	
9	0	0	0	0	515	523	253	237	
10	0	0	0	0	505	518	253	237	
11	0	0	0	0	496	488	252	237	
12	0	0	0	0	503	482	252	237	
13	0	0	0	0	494	466	252	238	
14	0	0	0	0	515	487	253	238	
15	0	0	0	0	521	516	252	237	
0	0	0	0	0	517	520	253	238	
1	0	0	0	0	499	532	252	237	
2	0	0	0	0	494	534	254	238	
3	0	0	0	0	510	518	253	238	
4	0	0	0	0	527	508	252	238	
5	0	0	0	0	501	516	253	237	
6	0	0	0	0	479	505	253	238	
7	0	0	0	0	487	511	253	237	
8	0	0	0	0	512	525	253	237	
9	0	0	0	0	536	517	253	237	
10	0	0	0	0	557	505	253	236	
11	0	0	0	0	549	500	255	235	
12	0	0	0	0	536	509	254	236	
13	0	0	0	0	503	526	254	235	
14	0	0	0	0	485	523	254	235	
15	0	0	0	0	499	499	252	235	
0	0	0	0	0	502	497	253	233	
1	0	0	0	0	512	492	252	233	
2	0	0	0	0	497	498	252	233	
3	0	0	0	0	483	519	250	232	
4	0	0	0	0	506	549	251	233	
5	0	0	0	0	508	532	249	231	
6	0	0	0	0	516	512	248	232	
7	0	0	0	0	521	494	248	230	
8	0	0	0	0	502	505	248	231	
9	0	0	0	0	498	519	250	230	
10	0	0	0	0	491	529	248	230	
11	0	0	0	0	493	531	249	228	
12	0	0	0	0	497	508	249	228	
13	0	0	0	0	511	483	248	227	
14	0	0	0	0	524	489	248	227	
15	0	0	0	0	526	492	248	227	
0	0	0	0	0	528	502	248	227	
1	0	0	0	0	526	519	248	228	
2	0	0	0	0	523	513	248	228	
3	0	0	0	0	508	491	249	227	
4	0	0	0	0	488	495	249	227	
5	0	0	0	0	495	516	250	227	
6	0	0	0	0	511	548	249	226	
7	0	0	0	0	502	545	249	225	
8	0	0	0	0	489	536	250	223	
9	0	0	0	0	517	496	248	224	
10	0	0	0	0	510	449	250	222	
11	0	0	0	0	488	417	252	222	
12	0	0	0	0	486	470	251	221	
13	0	0	0	0	476	561	252	221	
14	0	0	0	0	465	576	253	222	
15	0	0	0	0	496	526	253	221	
0	0	0	0	0	514	512	252	221	
1	0	0	0	0	534	510	251	220	
2	0	0	0	0	592	507	251	219	
3	0	0	0	0	600	510	253	219	
4	0	0	0	0	529	516	252	218	
5	0	0	0	0	487	516	253	217	
6	0	0	0	0	491	516	252	217	
7	0	0	0	0	521	517	254	217	
8	0	0	0	0	498	511	252	217	
9	0	0	0	0	536	509	252	217	
10	0	0	0	0	518	519	253	217	
11	0	0	0	0	506	521	254	217	
12	0	0	0	0	512	529	255	217	
13	0	0	0	0	506	530	255	216	
14	0	0	0	0	483	542	255	216	
15	0	0	0	0	480	522	255	216	
0	0	0	0	0	481	496	255	215	
1	0	0	0	0	478	455	255	215	
2	0	0	0	0	478	486	255	215	
3	0	0	0	0	502	491	256	216	
4	0	0	0	0	508	492	256	214	
5	0	0	0	0	508	499	255	214	
6	0	0	0	0	513	501	256	214	
7	0	0	0	0	515	502	258	214	
8	0	0	0	0	503	508	256	214	
9	0	0	0	0	507	515	257	214	
10	0	0	0	0	524	527	255	213	
11	0	0	0	0	542	539	256	214	
12	0	0	0	0	537	528	256	213	
13	0	0	0	0	516	504	257	214	
14	0	0	0	0	515	527	257	214	
15	0	0	0	0	506	512	258	214	
0	0	0	0	0	502	499	258	215	
1	0	0	0	0	500	494	259	215	
2	0	0	0	0	504	496	259	215	
3	0	0	0	0	512	505	259	214	
4	0	0	0	0	505	512	258	215	
5	0	0	0	0	502	513	259	214	
6	0	0	0	0	504	512	259	215	
7	0	0	0	0	506	524	260	215	
8	0	0	0	0	520	518	261	216	
9	0	0	0	0	507	511	262	216	
10	0	0	0	0	487	511	263	215	
11	0	0	0	0	487	514	262	214	
12	0	0	0	0	497	510	262	215	
13	0	0	0	0	516	519	263	214	
14	0	0	0	0	519	515	263	215	
15	0	0	0	0	504	509	263	213	
0	0	0	0	0	477	518	262	213	
1	0	0	0	0	489	528	263	212	
2	0	0	0	0	548	523	263	211	
3	0	0	0	0	556	511	263	210	
4	0	0	0	0	568	500	263	211	
5	0	0	0	0	577	504	262	210	
6	0	0	0	0	519	487	263	209	
7	0	0	0	0	486	491	264	209	
8	0	0	0	0	475	499	263	208	
9	0	0	0	0	478	512	263	208	
10	0	0	0	0	479	513	263	208	
11	0	0	0	0	483	517	263	207	
12	0	0	0	0	498	536	263	208	
13	0	0	0	0	503	515	264	206	
14	0	0	0	0	514	509	263	206	
15	0	0	0	0	498	500	264	206	
0	0	0	0	0	494	495	264	204	
1	0	0	0	0	521	515	266	203	
2	0	0	0	0	538	522	267	202	
3	0	0	0	0	544	515	268	203	
4	0	0	0	0	539	502	268	203	
5	0	0	0	0	504	512	269	202	
6	0	0	0	0	480	459	268	201	
7	0	0	0	0	483	470	265	200	
8	0	0	0	0	472	504	266	199	
9	0	0	0	0	489	515	266	199	
10	0	0	0	0	484	527	266	197	
11	0	0	0	0	492	543	267	198	
12	0	0	0	0	521	536	267	197	
13	0	0	0	0	520	524	268	197	
14	0	0	0	0	521	535	269	196	
15	0	0	0	0	520	514	268	198	
0	0	0	0	0	475	500	267	199	
1	0	0	0	0	475	489	272	200	
2	0	0	0	0	517	507	272	200	
3	0	0	0	0	545	503	272	200	
4	0	0	0	0	544	501	272	198	
5	0	0	0	0	565	506	273	200	
6	0	0	0	0	525	527	274	200	
7	0	0	0	0	498	534	275	200	
8	0	0	0	0	497	524	275	199	
9	0	0	0	0	509	535	274	199	
10	0	0	0	0	530	520	275	198	
11	0	0	0	0	524	497	276	198	
12	0	0	0	0	508	502	276	198	
13	0	0	0	0	513	508	276	198	
14	0	0	0	0	500	513	279	199	
15	0	0	0	0	490	497	278	199	
0	0	0	0	0	482	496	277	200	
1	0	0	0	0	475	497	276	199	
2	0	0	0	0	486	504	275	199	
3	0	0	0	0	494	506	277	200	
4	0	0	0	0	504	500	279	201	
5	0	0	0	0	504	495	278	200	
6	0	0	0	0	510	504	279	200	
7	0	0	0	0	545	511	279	199	
8	0	0	0	0	539	516	280	198	
9	0	0	0	0	533	526	280	199	
10	0	0	0	0	516	523	281	197	
11	0	0	0	0	499	536	282	198	
12	0	0	0	0	487	532	281	198	
13	0	0	0	0	484	537	282	198	
14	0	0	0	0	509	473	280	199	
15	0	0	0	0	540	451	282	198	
0	0	0	0	0	516	499	280	199	
1	0	0	0	0	493	528	282	200	
2	0	0	0	0	477	553	281	199	
3	0	0	0	0	492	543	280	199	
4	0	0	0	0	510	506	281	199	
5	0	0	0	0	475	469	280	200	
6	0	0	0	0	441	494	280	198	
7	0	0	0	0	460	524	280	198	
8	0	0	0	0	520	529	280	198	
9	0	0	0	0	536	496	280	198	
10	0	0	0	0	611	471	280	199	
11	0	0	0	0	636	511	279	201	
12	0	0	0	0	551	519	280	202	
13	0	0	0	0	496	511	280	203	
14	0	0	0	0	493	530	279	202	
15	0	0	0	0	494	510	280	201	
0	0	0	0	0	488	509	281	202	
1	0	0	0	0	489	509	280	202	
2	0	0	0	0	502	512	281	202	
3	0	0	0	0	506	511	282	201	
4	0	0	0	0	505	512	283	202	
5	0	0	0	0	504	494	282	201	
6	0	0	0	0	511	502	283	201	
7	0	0	0	0	503	524	283	203	
8	0	0	0	0	484	528	284	201	
9	0	0	0	0	479	512	284	203	
10	0	0	0	0	496	502	284	202	
11	0	0	0	0	508	495	285	201	
12	0	0	0	0	511	523	284	203	
13	0	0	0	0	511	538	285	202	
14	0	0	0	0	511	510	287	204	
15	0	0	0	0	515	504	286	206	
0	0	0	0	0	510	512	287	205	
1	0	0	0	0	524	515	286	204	
2	0	0	0	0	555	547	288	203	
3	0	0	0	0	526	554	288	204	
4	0	0	0	0	501	532	288	205	
5	0	0	0	0	510	509	287	203	
6	0	0	0	0	499	509	287	204	
7	0	0	0	0	475	446	288	205	
8	0	0	0	0	504	460	289	205	
9	0	0	0	0	487	490	289	206	
10	0	0	0	0	476	506	290	205	
11	0	0	0	0	509	520	290	206	
12	0	0	0	0	543	518	292	207	
13	0	0	0	0	560	536	291	208	
14	0	0	0	0	551	563	292	208	
15	0	0	0	0	489	499	292	208	
0	0	0	0	0	451	503	292	207	
1	0	0	0	0	451	493	292	208	
2	0	0	0	0	455	494	292	208	
3	0	0	0	0	502	530	291	208	
4	0	0	0	0	515	476	290	207	
5	0	0	0	0	550	459	290	207	
6	0	0	0	0	609	455	290	207	
7	0	0	0	0	576	472	291	209	
8	0	0	0	0	507	492	292	211	
9	0	0	0	0	491	558	293	211	
10	0	0	0	0	498	573	292	211	
11	0	0	0	0	495	545	292	209	
12	0	0	0	0	493	532	292	211	
13	0	0	0	0	508	504	291	209	
14	0	0	0	0	487	519	294	210	
15	0	0	0	0	487	525	293	210	
0	0	0	0	0	505	503	295	210	
1	0	0	0	0	535	496	295	211	
2	0	0	0	0	558	520	296	212	
3	0	0	0	0	546	563	297	213	
4	0	0	0	0	502	577	298	214	
5	0	0	0	0	477	526	299	215	
6	0	0	0	0	432	475	300	217	
7	0	0	0	0	453	452	299	219	
8	0	0	0	0	486	479	300	219	
9	0	0	0	0	462	478	299	220	
10	0	0	0	0	455	487	300	220	
11	0	0	0	0	526	511	300	220	
12	0	0	0	0	554	523	300	223	
13	0	0	0	0	551	529	302	223	
14	0	0	0	0	572	527	300	223	
15	0	0	0	0	581	520	300	223	
0	0	0	0	0	520	512	300	224	
1	0	0	0	0	493	504	301	223	
2	0	0	0	0	489	513	302	224	
3	0	0	0	0	491	516	303	225	
4	0	0	0	0	500	509	303	224	
5	0	0	0	0	509	507	305	225	
6	0	0	0	0	500	503	304	228	
7	0	0	0	0	512	514	304	228	
8	0	0	0	0	526	527	305	229	
9	0	0	0	0	511	539	306	229	
10	0	0	0	0	489	532	307	233	
11	0	0	0	0	488	488	308	230	
12	0	0	0	0	521	499	307	231	
13	0	0	0	0	549	520	309	232	
14	0	0	0	0	548	505	308	233	
15	0	0	0	0	530	524	309	233	
0	0	0	0	0	499	476	309	234	
1	0	0	0	0	517	455	310	233	
2	0	0	0	0	514	496	309	233	
3	0	0	0	0	492	531	311	231	
4	0	0	0	0	454	528	311	231	
5	0	0	0	0	459	523	312	233	
6	0	0	0	0	488	512	313	231	
7	0	0	0	0	518	514	315	233	
8	0	0	0	0	478	508	314	231	
9	0	0	0	0	498	506	314	231	
10	0	0	0	0	511	510	315	231	
11	0	0	0	0	517	521	316	229	
12	0	0	0	0	537	519	316	231	
13	0	0	0	0	506	513	316	233	
14	0	0	0	0	492	514	317	232	
15	0	0	0	0	502	519	318	233	
0	0	0	0	0	529	515	317	231	
1	0	0	0	0	538	500	316	231	
2	0	0	0	0	545	504	318	231	
3	0	0	0	0	528	509	320	231	
4	0	0	0	0	521	512	319	231	
5	0	0	0	0	516	516	319	233	
6	0	0	0	0	501	518	320	232	
7	0	0	0	0	476	520	320	233	
8	0	0	0	0	492	508	320	232	
9	0	0	0	0	500	509	320	233	
10	0	0	0	0	505	505	320	233	
11	0	0	0	0	512	499	321	232	
12	0	0	0	0	508	500	319	232	
13	0	0	0	0	503	509	320	232	
14	0	0	0	0	504	511	321	232	
15	0	0	0	0	505	508	320	231	
0	0	0	0	0	506	507	320	232	
1	0	0	0	0	508	509	319	231	
2	0	0	0	0	504	510	321	233	
3	0	0	0	0	511	511	320	233	
4	0	0	0	0	515	516	321	233	
5	0	0	0	0	516	513	320	234	
6	0	0	0	0	513	515	321	234	
7	0	0	0	0	508	514	320	233	
8	0	0	0	0	510	511	321	233	
9	0	0	0	0	495	510	323	234	
10	0	0	0	0	504	508	323	234	
11	0	0	0	0	513	502	322	235	
12	0	0	0	0	511	503	322	234	
13	0	0	0	0	507	510	321	235	
14	0	0	0	0	495	512	321	235	
15	0	0	0	0	487	515	322	234	
0	0	0	0	0	512	513	321	235	
1	0	0	0	0	551	514	319	235	
2	0	0	0	0	519	513	319	234	
3	0	0	0	0	503	510	319	233	
4	0	0	0	0	507	511	320	234	
5	0	0	0	0	515	512	319	233	
6	0	0	0	0	519	509	317	233	
7	0	0	0	0	507	506	318	233	
8	0	0	0	0	501	509	318	231	
9	0	0	0	0	506	510	316	228	
10	0	0	0	0	525	511	317	227	
11	0	0	0	0	524	512	316	224	
12	0	0	0	0	521	510	315	221	
13	0	0	0	0	518	512	316	221	
14	0	0	0	0	502	513	315	220	
15	0	0	0	0	494	516	316	217	
0	0	0	0	0	493	518	314	216	
1	0	0	0	0	496	520	315	214	
2	0	0	0	0	478	517	315	211	
3	0	0	0	0	493	515	316	209	
4	0	0	0	0	494	522	315	206	
5	0	0	0	0	491	526	315	203	
6	0	0	0	0	494	523	315	200	
7	0	0	0	0	489	511	313	194	
8	0	0	0	0	510	497	314	184	
9	0	0	0	0	543	488	312	178	
10	0	0	0	0	529	500	316	175	
11	0	0	0	0	532	497	316	175	
12	0	0	0	0	536	485	316	170	
13	0	0	0	0	536	493	315	164	
14	0	0	0	0	517	505	314	156	
15	0	0	0	0	496	512	315	145	
0	0	0	0	0	476	505	315	136	
1	0	0	0	0	552	507	316	125	
2	0	0	0	0	549	508	313	125	
3	0	0	0	0	524	507	315	110	
4	0	0	0	0	475	510	314	101	
5	0	0	0	0	465	514	313	95	
6	0	0	0	0	487	514	313	91	
7	0	0	0	0	481	511	307	79	
8	0	0	0	0	483	508	308	81	
9	0	0	0	0	501	506	308	73	
10	0	0	0	0	506	513	305	65	
11	0	0	0	0	498	521	303	66	
12	0	0	0	0	519	518	304	69	
13	0	0	0	0	521	518	303	70	
14	0	0	0	0	508	519	302	69	
15	0	0	0	0	517	519	297	71	
0	0	0	0	0	547	516	294	69	
1	0	0	0	0	529	511	301	70	
2	0	0	0	0	512	509	303	73	
3	0	0	0	0	516	503	307	70	
4	0	0	0	0	502	500	304	72	
5	0	0	0	0	526	505	302	64	
6	0	0	0	0	545	510	302	70	
7	0	0	0	0	522	510	296	70	
8	0	0	0	0	519	509	296	68	
9	0	0	0	0	524	509	294	71	
10	0	0	0	0	507	506	294	70	
11	0	0	0	0	499	500	289	70	
12	0	0	0	0	488	506	286	67	
13	0	0	0	0	471	510	285	68	
14	0	0	0	0	449	519	283	67	
15	0	0	0	0	440	515	284	64	
0	0	0	0	0	483	516	284	63	
1	0	0	0	0	536	516	285	49	
2	0	0	0	0	541	515	285	47	
3	0	0	0	0	514	520	287	42	
4	0	0	0	0	484	522	284	37	
5	0	0	0	0	509	516	285	35	
6	0	0	0	0	538	513	282	34	
7	0	0	0	0	538	521	282	31	
8	0	0	0	0	533	529	284	27	
9	0	0	0	0	517	532	286	23	
10	0	0	0	0	482	529	282	0	
11	0	0	0	0	519	520	282	0	
12	0	0	0	0	504	514	281	0	
13	0	0	0	0	493	511	280	0	
14	0	0	0	0	482	503	279	0	
15	0	0	0	0	485	485	282	0	
0	0	0	0	0	490	472	281	0	
1	0	0	0	0	494	480	282	0	
2	0	0	0	0	518	485	282	0	
3	0	0	0	0	531	492	285	0	
4	0	0	0	0	519	496	288	0	
5	0	0	0	0	530	499	288	0	
6	0	0	0	0	552	501	291	0	
7	0	0	0	0	559	508	289	0	
8	0	0	0	0	524	510	304	0	
9	0	0	0	0	492	518	311	0	
10	0	0	0	0	495	521	316	0	
11	0	0	0	0	498	518	312	0	
12	0	0	0	0	500	519	315	0	
13	0	0	0	0	505	518	318	0	
14	0	0	0	0	502	516	317	0	
15	0	0	0	0	500	512	319	0	
0	0	0	0	0	503	516	323	0	
1	0	0	0	0	504	515	325	0	
2	0	0	0	0	496	517	322	0	
3	0	0	0	0	492	512	322	0	
4	0	0	0	0	498	512	321	0	
5	0	0	0	0	504	511	322	0	
6	0	0	0	0	512	513	325	0	
7	0	0	0	0	515	513	322	0	
8	0	0	0	0	527	513	326	0	
9	0	0	0	0	534	510	325	0	
10	0	0	0	0	515	511	326	0	
11	0	0	0	0	514	510	323	0	
12	0	0	0	0	513	513	325	0	
13	0	0	0	0	511	512	324	0	
14	0	0	0	0	509	514	326	0	
15	0	0	0	0	507	511	320	0	
0	0	0	0	0	500	511	317	0	
1	0	0	0	0	500	511	314	0	
2	0	0	0	0	500	512	316	0	
3	0	0	0	0	500	511	307	0	
4	0	0	0	0	506	522	307	0	
5	0	0	0	0	507	518	305	0	
6	0	0	0	0	508	514	305	0	
7	0	0	0	0	507	510	305	0	
8	0	0	0	0	505	504	305	0	
9	0	0	0	0	506	502	305	0	
10	0	0	0	0	508	499	304	0	
11	0	0	0	0	509	504	304	0	
12	0	0	0	0	508	504	306	0	
13	0	0	0	0	511	504	307	0	
14	0	0	0	0	512	509	303	0	
15	0	0	0	0	513	513	303	0	
0	0	0	0	0	515	512	300	0	
1	0	0	0	0	514	515	297	0	
2	0	0	0	0	514	512	294	0	
3	0	0	0	0	516	512	279	0	
4	0	0	0	0	510	513	269	0	
5	0	0	0	0	507	511	265	0	
6	0	0	0	0	505	512	264	0	
7	0	0	0	0	502	513	264	0	
8	0	0	0	0	503	513	262	0	
9	0	0	0	0	508	511	261	0	
10	0	0	0	0	514	514	260	0	
11	0	0	0	0	505	509	257	0	
12	0	0	0	0	507	510	260	0	
13	0	0	0	0	504	510	262	0	
14	0	0	0	0	502	509	261	0	
15	0	0	0	0	507	509	261	0	
0	0	0	0	0	516	511	261	0	
1	0	0	0	0	513	515	261	0	
2	0	0	0	0	511	511	260	0	
3	0	0	0	0	505	513	258	0	
4	0	0	0	0	504	513	257	0	
5	0	0	0	0	508	512	257	0	
6	0	0	0	0	512	510	256	0	
7	0	0	0	0	515	511	255	0	
8	0	0	0	0	513	508	252	0	
9	0	0	0	0	510	510	250	0	
10	0	0	0	0	511	510	248	0	
11	0	0	0	0	508	509	247	0	
12	0	0	0	0	504	510	247	0	
13	0	0	0	0	503	510	248	0	
14	0	0	0	0	503	507	246	0	
15	0	0	0	0	504	510	242	0	
0	0	0	0	0	505	509	238	0	
1	0	0	0	0	505	512	235	0	
2	0	0	0	0	507	508	232	0	
3	0	0	0	0	509	511	230	0	
4	0	0	0	0	508	511	227	0	
5	0	0	0	0	511	510	220	0	
6	0	0	0	0	512	512	218	0	
7	0	0	0	0	514	511	215	0	
8	0	0	0	0	512	508	211	0	
9	0	0	0	0	511	510	207	0	
10	0	0	0	0	516	511	206	0	
11	0	0	0	0	515	511	203	0	
12	0	0	0	0	510	510	201	0	
13	0	0	0	0	509	512	199	0	
14	0	0	0	0	507	510	196	0	
15	0	0	0	0	504	507	196	0	
0	0	0	0	0	503	510	195	0	
1	0	0	0	0	504	511	193	0	
2	0	0	0	0	504	511	193	0	
3	0	0	0	0	502	509	193	0	
4	0	0	0	0	504	509	189	0	
5	0	0	0	0	504	513	183	0	
6	0	0	0	0	507	512	177	0	
7	0	0	0	0	507	511	174	0	
8	0	0	0	0	509	509	170	0	
9	0	0	0	0	512	511	167	0	
10	0	0	0	0	513	511	166	0	
11	0	0	0	0	513	512	155	0	
12	0	0	0	0	517	512	150	0	
13	0	0	0	0	515	509	151	0	
14	0	0	0	0	514	510	148	0	
15	0	0	0	0	511	510	144	0	
0	0	0	0	0	510	510	136	0	
1	0	0	0	0	508	512	132	0	
2	0	0	0	0	506	510	130	0	
3	0	0	0	0	505	510	128	0	
4	0	0	0	0	503	511	129	0	
5	0	0	0	0	504	512	127	0	
6	0	0	0	0	502	511	124	0	
7	0	0	0	0	502	511	122	0	
8	0	0	0	0	504	510	122	0	
9	0	0	0	0	505	508	120	0	
10	0	0	0	0	507	512	119	0	
11	0	0	0	0	510	508	112	0	
12	0	0	0	0	509	511	108	0	
13	0	0	0	0	511	509	99	0	
14	0	0	0	0	511	512	97	0	
15	0	0	0	0	513	512	97	0	
0	0	0	0	0	517	511	97	0	
1	0	0	0	0	515	511	94	0	
2	0	0	0	0	512	512	96	0	
3	0	0	0	0	510	510	93	0	
4	0	0	0	0	510	510	94	0	
5	0	0	0	0	510	511	92	0	
6	0	0	0	0	507	511	89	0	
7	0	0	0	0	505	511	88	0	
8	0	0	0	0	503	511	86	0	
9	0	0	0	0	501	509	84	0	
10	0	0	0	0	503	509	83	0	
11	0	0	0	0	503	509	82	0	
12	0	0	0	0	504	510	79	0	
13	0	0	0	0	505	508	80	0	
14	0	0	0	0	505	510	80	0	
15	0	0	0	0	505	510	79	0	
0	0	0	0	0	510	510	79	0	
1	0	0	0	0	511	509	78	0	
2	0	0	0	0	510	511	77	0	
3	0	0	0	0	515	512	77	0	
4	0	0	0	0	518	512	76	0	
5	0	0	0	0	517	511	74	0	
6	0	0	0	0	514	511	70	0	
7	0	0	0	0	508	511	71	0	
8	0	0	0	0	511	510	71	0	
9	0	0	0	0	509	509	70	0	
10	0	0	0	0	506	509	65	0	
11	0	0	0	0	503	510	65	0	
12	0	0	0	0	503	512	64	0	
13	0	0	0	0	504	507	61	0	
14	0	0	0	0	506	511	59	0	
15	0	0	0	0	503	511	54	0	
0	0	0	0	0	504	509	49	0	
1	0	0	0	0	505	508	43	0	
2	0	0	0	0	507	511	35	0	
3	0	0	0	0	505	510	27	0	
4	0	0	0	0	507	511	19	0	
5	0	0	0	0	511	511	0	0	
6	0	0	0	0	518	512	0	0	
7	0	0	0	0	518	513	0	0	
8	0	0	0	0	515	512	0	0	
9	0	0	0	0	511	512	0	0	
10	0	0	0	0	512	510	0	0	
11	0	0	0	0	515	511	0	0	
12	0	0	0	0	510	510	0	0	
13	0	0	0	0	506	510	0	0	
14	0	0	0	0	500	507	0	0	
15	0	0	0	0	495	511	0	0	
0	0	0	0	0	500	510	0	0	
1	0	0	0	0	504	510	0	0	
2	0	0	0	0	507	512	0	0	
3	0	0	0	0	508	510	0	0	
4	0	0	0	0	511	511	0	0	
5	0	0	0	0	511	513	0	0	
6	0	0	0	0	509	512	0	0	
7	0	0	0	0	508	511	0	0	
8	0	0	0	0	511	510	0	0	
9	0	0	0	0	512	511	0	0	
10	0	0	0	0	507	511	0	0	
11	0	0	0	0	505	509	0	0	
12	0	0	0	0	512	508	0	0	
13	0	0	0	0	517	512	0	0	
14	0	0	0	0	516	512	0	0	
15	0	0	0	0	517	511	0	0	
0	0	0	0	0	512	512	0	0	
1	0	0	0	0	510	509	0	0	
2	0	0	0	0	509	511	0	0	
3	0	0	0	0	507	510	0	0	
4	0	0	0	0	505	513	0	0	
5	0	0	0	0	502	510	0	0	
6	0	0	0	0	502	509	0	0	
7	0	0	0	0	501	511	0	0	
8	0	0	0	0	504	510	0	0	
9	0	0	0	0	505	510	0	0	
10	0	0	0	0	507	510	0	0	
11	0	0	0	0	506	509	0	0	
12	0	0	0	0	508	510	0	0	
13	0	0	0	0	509	511	0	0	
14	0	0	0	0	514	513	0	0	
15	0	0	0	0	516	511	0	0	
0	0	0	0	0	515	512	0	0	
1	0	0	0	0	515	511	0	0	
2	0	0	0	0	515	511	0	0	
3	0	0	0	0	515	511	0	0	
4	0	0	0	0	512	511	0	0	
5	0	0	0	0	510	512	0	0	
6	0	0	0	0	507	510	0	0	
7	0	0	0	0	506	511	0	0	
8	0	0	0	0	503	510	0	0	
9	0	0	0	0	504	512	0	0	
10	0	0	0	0	504	512	0	0	
11	0	0	0	0	502	511	0	0	
12	0	0	0	0	501	511	0	0	
13	0	0	0	0	503	510	0	0	
14	0	0	0	0	503	509	0	0	
15	0	0	0	0	506	512	0	0	
0	0	0	0	0	511	511	0	0	
1	0	0	0	0	510	509	0	0	
2	0	0	0	0	513	510	0	0	
3	0	0	0	0	514	511	0	0	
4	0	0	0	0	514	510	0	0	
5	0	0	0	0	515	511	0	0	
6	0	0	0	0	515	508	0	0	
7	0	0	0	0	512	511	0	0	
8	0	0	0	0	512	512	0	0	
9	0	0	0	0	509	509	0	0	
10	0	0	0	0	507	509	0	0	
11	0	0	0	0	505	510	0	0	
12	0	0	0	0	504	508	0	0	
13	0	0	0	0	503	508	0	0	
14	0	0	0	0	501	510	0	0	
15	0	0	0	0	503	509	0	0	
0	0	0	0	0	502	510	0	0	
1	0	0	0	0	504	509	0	0	
2	0	0	0	0	507	509	0	0	
3	0	0	0	0	507	509	0	0	
4	0	0	0	0	508	511	0	0	
5	0	0	0	0	512	508	0	0	
6	0	0	0	0	513	513	0	0	
7	0	0	0	0	514	512	0	0	
8	0	0	0	0	513	513	0	0	
9	0	0	0	0	515	512	0	0	
10	0	0	0	0	517	511	0	0	
11	0	0	0	0	515	509	0	0	
12	0	0	0	0	512	510	0	0	
13	0	0	0	0	510	511	0	0	
14	0	0	0	0	506	511	0	0	
15	0	0	0	0	505	509	0	0	
0	0	0	0	0	506	510	0	0	
1	0	0	0	0	502	510	0	0	
2	0	0	0	0	502	509	0	0	
3	0	0	0	0	502	509	0	0	
4	0	0	0	0	505	511	0	0	
5	0	0	0	0	504	510	0	0	
6	0	0	0	0	504	510	0	0	
7	0	0	0	0	507	510	0	0	
8	0	0	0	0	511	510	0	0	
9	0	0	0	0	513	512	0	0	
10	0	0	0	0	511	510	0	0	
11	0	0	0	0	515	511	0	0	
12	0	0	0	0	517	512	0	0	
13	0	0	0	0	515	513	0	0	
14	0	0	0	0	515	510	0	0	
15	0	0	0	0	511	511	0	0	
0	0	0	0	0	509	509	0	0	
1	0	0	0	0	508	511	0	0	
2	0	0	0	0	505	512	0	0	
3	0	0	0	0	504	512	0	0	
4	0	0	0	0	507	512	0	0	
5	0	0	0	0	506	511	0	0	
6	0	0	0	0	503	511	0	0	
7	0	0	0	0	503	509	0	0	
8	0	0	0	0	504	509	0	0	
9	0	0	0	0	504	508	0	0	
10	0	0	0	0	504	509	0	0	
11	0	0	0	0	506	506	0	0	
12	0	0	0	0	509	510	0	0	
13	0	0	0	0	511	510	0	0	
14	0	0	0	0	513	513	0	0	
15	0	0	0	0	515	513	0	0	
0	0	0	0	0	517	512	0	0	
1	0	0	0	0	515	510	0	0	
2	0	0	0	0	513	512	0	0	
3	0	0	0	0	511	511	0	0	
4	0	0	0	0	510	511	0	0	
5	0	0	0	0	511	511	0	0	
6	0	0	0	0	511	511	0	0	
7	0	0	0	0	504	509	0	0	
8	0	0	0	0	504	510	0	0	
9	0	0	0	0	503	510	0	0	
10	0	0	0	0	499	511	0	0	
11	0	0	0	0	503	509	0	0	
12	0	0	0	0	508	509	0	0	
13	0	0	0	0	506	510	0	0	
14	0	0	0	0	508	509	0	0	
15	0	0	0	0	511	509	0	0	
0	0	0	0	0	510	511	0	0	
1	0	0	0	0	508	510	0	0	
2	0	0	0	0	506	510	0	0	
3	0	0	0	0	513	512	0	0	
4	0	0	0	0	519	511	0	0	
5	0	0	0	0	515	513	0	0	
6	0	0	0	0	508	511	0	0	
7	0	0	0	0	506	508	0	0	
8	0	0	0	0	507	508	0	0	
9	0	0	0	0	513	511	0	0	
10	0	0	0	0	513	513	0	0	
11	0	0	0	0	510	510	0	0	
12	0	0	0	0	500	511	0	0	
13	0	0	0	0	501	508	0	0	
14	0	0	0	0	499	510	0	0	
15	0	0	0	0	501	509	0	0	
0	0	0	0	0	502	508	0	0	
1	0	0	0	0	504	511	0	0	
2	0	0	0	0	508	508	0	0	
3	0	0	0	0	508	510	0	0	
4	0	0	0	0	511	512	0	0	
5	0	0	0	0	512	511	0	0	
6	0	0	0	0	513	511	0	0	
7	0	0	0	0	516	509	0	0	
8	0	0	0	0	516	510	0	0	
9	0	0	0	0	517	512	0	0	
10	0	0	0	0	514	511	0	0	
11	0	0	0	0	512	512	0	0	
12	0	0	0	0	511	511	0	0	
13	0	0	0	0	509	510	0	0	
14	0	0	0	0	510	510	0	0	
15	0	0	0	0	508	510	0	0	
0	0	0	0	0	504	510	0	0	
1	0	0	0	0	502	508	0	0	
2	0	0	0	0	502	510	0	0	
3	0	0	0	0	503	508	0	0	
4	0	0	0	0	502	509	0	0	
5	0	0	0	0	505	510	0	0	
6	0	0	0	0	507	509	0	0	
7	0	0	0	0	508	511	0	0	
8	0	0	0	0	510	509	0	0	
9	0	0	0	0	512	511	0	0	
10	0	0	0	0	511	509	0	0	
11	0	0	0	0	513	511	0	0	
12	0	0	0	0	515	509	0	0	
13	0	0	0	0	516	513	0	0	
14	0	0	0	0	513	512	0	0	
15	0	0	0	0	512	511	0	0	
0	0	0	0	0	511	511	0	0	
1	0	0	0	0	507	511	0	0	
2	0	0	0	0	505	511	0	0	
3	0	0	0	0	502	509	0	0	
4	0	0	0	0	503	510	0	0	
5	0	0	0	0	507	508	0	0	
6	0	0	0	0	504	510	0	0	
7	0	0	0	0	502	511	0	0	
8	0	0	0	0	502	510	0	0	
9	0	0	0	0	502	512	0	0	
10	0	0	0	0	507	511	0	0	
11	0	0	0	0	509	511	0	0	
12	0	0	0	0	511	509	0	0	
13	0	0	0	0	513	510	0	0	
14	0	0	0	0	513	510	0	0	
15	0	0	0	0	513	513	0	0	
0	0	0	0	0	514	512	0	0	
1	0	0	0	0	516	513	0	0	
2	0	0	0	0	515	511	0	0	
3	0	0	0	0	512	511	0	0	
4	0	0	0	0	512	511	0	0	
5	0	0	0	0	508	512	0	0	
6	0	0	0	0	508	510	0	0	
7	0	0	0	0	506	509	0	0	
8	0	0	0	0	505	510	0	0	
9	0	0	0	0	501	511	0	0	
10	0	0	0	0	500	512	0	0	
11	0	0	0	0	503	511	0	0	
12	0	0	0	0	505	510	0	0	
13	0	0	0	0	505	509	0	0	
14	0	0	0	0	505	508	0	0	
15	0	0	0	0	507	512	0	0	
0	0	0	0	0	512	510	0	0	
1	0	0	0	0	515	512	0	0	
2	0	0	0	0	513	509	0	0	
3	0	0	0	0	511	508	0	0	
4	0	0	0	0	510	510	0	0	
5	0	0	0	0	515	510	0	0	
6	0	0	0	0	517	511	0	0	
7	0	0	0	0	512	512	0	0	
8	0	0	0	0	510	511	0	0	
9	0	0	0	0	510	511	0	0	
10	0	0	0	0	508	510	0	0	
11	0	0	0	0	504	508	0	0	
12	0	0	0	0	502	512	0	0	
13	0	0	0	0	503	509	0	0	
14	0	0	0	0	501	510	0	0	
15	0	0	0	0	504	512	0	0	
0	0	0	0	0	503	510	0	0	
1	0	0	0	0	502	509	0	0	
2	0	0	0	0	505	511	0	0	
3	0	0	0	0	508	509	0	0	
4	0	0	0	0	509	508	0	0	
5	0	0	0	0	514	510	0	0	
6	0	0	0	0	514	509	0	0	
7	0	0	0	0	511	511	0	0	
8	0	0	0	0	511	512	0	0	
9	0	0	0	0	514	511	0	0	
10	0	0	0	0	515	509	0	0	
11	0	0	0	0	512	511	0	0	
12	0	0	0	0	512	509	0	0	
13	0	0	0	0	512	512	0	0	
14	0	0	0	0	507	509	0	0	
15	0	0	0	0	505	510	0	0	
0	0	0	0	0	505	509	0	0	
1	0	0	0	0	505	510	0	0	
2	0	0	0	0	502	511	0	0	
3	0	0	0	0	504	512	0	0	
4	0	0	0	0	504	511	0	0	
5	0	0	0	0	505	511	0	0	
6	0	0	0	0	506	510	0	0	
7	0	0	0	0	509	512	0	0	
8	0	0	0	0	511	510	0	0	
9	0	0	0	0	511	511	0	0	
10	0	0	0	0	512	511	0	0	
11	0	0	0	0	514	510	0	0	
12	0	0	0	0	516	511	0	0	
13	0	0	0	0	515	511	0	0	
14	0	0	0	0	515	510	0	0	
15	0	0	0	0	512	510	0	0	
0	0	0	0	0	511	512	0	0	
1	0	0	0	0	507	510	0	0	
2	0	0	0	0	507	509	0	0	
3	0	0	0	0	505	510	0	0	
4	0	0	0	0	506	511	0	0	
5	0	0	0	0	507	506	0	0	
6	0	0	0	0	500	509	0	0	
7	0	0	0	0	497	510	0	0	
8	0	0	0	0	499	511	0	0	
9	0	0	0	0	505	512	0	0	
10	0	0	0	0	504	510	0	0	
11	0	0	0	0	505	512	0	0	
12	0	0	0	0	507	512	0	0	
13	0	0	0	0	511	509	0	0	
14	0	0	0	0	514	511	0	0	
15	0	0	0	0	517	512	0	0	
0	0	0	0	0	521	512	0	0	
1	0	0	0	0	516	512	0	0	
2	0	0	0	0	518	511	0	0	
3	0	0	0	0	515	510	0	0	
4	0	0	0	0	511	508	0	0	
5	0	0	0	0	507	513	0	0	
6	0	0	0	0	506	510	0	0	
7	0	0	0	0	508	510	0	0	
8	0	0	0	0	505	510	0	0	
9	0	0	0	0	499	509	0	0	
10	0	0	0	0	501	510	0	0	
11	0	0	0	0	501	511	0	0	
12	0	0	0	0	502	509	0	0	
13	0	0	0	0	504	510	0	0	
14	0	0	0	0	508	510	0	0	
15	0	0	0	0	505	513	0	0	
0	0	0	0	0	511	514	0	0	
1	0	0	0	0	511	513	0	0	
2	0	0	0	0	515	512	0	0	
3	0	0	0	0	515	511	0	0	
4	0	0	0	0	515	513	0	0	
5	0	0	0	0	514	508	0	0	
6	0	0	0	0	515	511	0	0	
7	0	0	0	0	513	510	0	0	
8	0	0	0	0	511	511	0	0	
9	0	0	0	0	505	511	0	0	
10	0	0	0	0	504	511	0	0	
11	0	0	0	0	505	508	0	0	
12	0	0	0	0	506	509	0	0	
13	0	0	0	0	505	511	0	0	
14	0	0	0	0	502	509	0	0	
15	0	0	0	0	504	510	0	0	
0	0	0	0	0	505	509	0	0	
1	0	0	0	0	505	509	0	0	
2	0	0	0	0	505	510	0	0	
3	0	0	0	0	508	510	0	0	
4	0	0	0	0	508	511	0	0	
5	0	0	0	0	514	510	0	0	
6	0	0	0	0	512	509	0	0	
7	0	0	0	0	513	510	0	0	
8	0	0	0	0	516	508	0	0	
9	0	0	0	0	515	511	0	0	
10	0	0	0	0	518	510	0	0	
11	0	0	0	0	514	513	0	0	
12	0	0	0	0	511	512	0	0	
13	0	0	0	0	510	511	0	0	
14	0	0	0	0	508	512	0	0	
15	0	0	0	0	504	512	0	0	
0	0	0	0	0	500	509	0	0	
1	0	0	0	0	499	509	0	0	
2	0	0	0	0	499	513	0	0	
3	0	0	0	0	501	510	0	0	
4	0	0	0	0	500	511	0	0	
5	0	0	0	0	505	508	0	0	
6	0	0	0	0	504	509	0	0	
7	0	0	0	0	508	511	0	0	
8	0	0	0	0	513	510	0	0	
9	0	0	0	0	516	511	0	0	
10	0	0	0	0	516	510	0	0	
11	0	0	0	0	514	511	0	0	
12	0	0	0	0	514	510	0	0	
13	0	0	0	0	512	510	0	0	
14	0	0	0	0	514	511	0	0	
15	0	0	0	0	513	511	0	0	
0	0	0	0	0	512	510	0	0	
1	0	0	0	0	511	511	0	0	
2	0	0	0	0	508	512	0	0	
3	0	0	0	0	504	511	0	0	
4	0	0	0	0	502	512	0	0	
5	0	0	0	0	503	509	0	0	
6	0	0	0	0	503	509	0	0	
7	0	0	0	0	505	508	0	0	
8	0	0	0	0	504	508	0	0	
9	0	0	0	0	505	509	0	0	
10	0	0	0	0	505	510	0	0	
11	0	0	0	0	505	512	0	0	
12	0	0	0	0	509	511	0	0	
13	0	0	0	0	513	512	0	0	
14	0	0	0	0	512	511	0	0	
15	0	0	0	0	515	511	0	0	
0	0	0	0	0	517	511	0	0	
1	0	0	0	0	514	512	0	0	
2	0	0	0	0	514	512	0	0	
3	0	0	0	0	512	512	0	0	
4	0	0	0	0	511	513	0	0	
5	0	0	0	0	509	510	0	0	
6	0	0	0	0	505	510	0	0	
7	0	0	0	0	504	509	0	0	
8	0	0	0	0	504	510	0	0	
9	0	0	0	0	503	509	0	0	
10	0	0	0	0	503	509	0	0	
11	0	0	0	0	503	510	0	0	
12	0	0	0	0	504	512	0	0	
13	0	0	0	0	504	511	0	0	
14	0	0	0	0	508	509	0	0	
15	0	0	0	0	506	511	0	0	
0	0	0	0	0	508	512	0	0	
1	0	0	0	0	513	511	0	0	
2	0	0	0	0	513	510	0	0	
3	0	0	0	0	514	510	0	0	
4	0	0	0	0	519	513	0	0	
5	0	0	0	0	516	510	0	0	
6	0	0	0	0	515	511	0	0	
7	0	0	0	0	512	512	0	0	
8	0	0	0	0	508	510	0	0	
9	0	0	0	0	505	508	0	0	
10	0	0	0	0	503	510	0	0	
11	0	0	0	0	500	510	0	0	
12	0	0	0	0	503	511	0	0	
13	0	0	0	0	503	511	0	0	
14	0	0	0	0	500	510	0	0	
15	0	0	0	0	504	510	0	0	
0	0	0	0	0	505	510	0	0	
1	0	0	0	0	509	512	0	0	
2	0	0	0	0	509	511	0	0	
3	0	0	0	0	504	510	0	0	
4	0	0	0	0	507	511	0	0	
5	0	0	0	0	512	512	0	0	
6	0	0	0	0	515	510	0	0	
7	0	0	0	0	515	511	0	0	
8	0	0	0	0	517	511	0	0	
9	0	0	0	0	520	510	0	0	
10	0	0	0	0	520	507	0	0	
11	0	0	0	0	514	511	0	0	
12	0	0	0	0	508	510	0	0	
13	0	0	0	0	505	512	0	0	
14	0	0	0	0	505	510	0	0	
15	0	0	0	0	504	511	0	0	
0	0	0	0	0	503	511	0	0	
1	0	0	0	0	505	511	0	0	
2	0	0	0	0	502	511	0	0	
3	0	0	0	0	502	509	0	0	
4	0	0	0	0	503	511	0	0	
5	0	0	0	0	505	511	0	0	
6	0	0	0	0	506	510	0	0	
7	0	0	0	0	504	511	0	0	
8	0	0	0	0	509	511	0	0	
9	0	0	0	0	512	511	0	0	
10	0	0	0	0	511	511	0	0	
11	0	0	0	0	513	510	0	0	
12	0	0	0	0	516	509	0	0	
13	0	0	0	0	514	513	0	0	
14	0	0	0	0	514	512	0	0	
15	0	0	0	0	512	512	0	0	
0	0	0	0	0	512	511	0	0	
1	0	0	0	0	509	511	0	0	
2	0	0	0	0	508	512	0	0	
3	0	0	0	0	504	508	0	0	
4	0	0	0	0	503	510	0	0	
5	0	0	0	0	500	512	0	0	
6	0	0	0	0	502	513	0	0	
7	0	0	0	0	504	511	0	0	
8	0	0	0	0	503	511	0	0	
9	0	0	0	0	503	508	0	0	
10	0	0	0	0	505	508	0	0	
11	0	0	0	0	510	508	0	0	
12	0	0	0	0	509	510	0	0	
13	0	0	0	0	516	511	0	0	
14	0	0	0	0	517	508	0	0	
15	0	0	0	0	517	510	0	0	
0	0	0	0	0	514	512	0	0	
1	0	0	0	0	511	510	0	0	
2	0	0	0	0	509	511	0	0	
3	0	0	0	0	511	511	0	0	
4	0	0	0	0	513	509	0	0	
5	0	0	0	0	510	513	0	0	
6	0	0	0	0	509	508	0	0	
7	0	0	0	0	507	509	0	0	
8	0	0	0	0	507	509	0	0	
9	0	0	0	0	504	509	0	0	
10	0	0	0	0	500	512	0	0	
11	0	0	0	0	501	512	0	0	
12	0	0	0	0	504	509	0	0	
13	0	0	0	0	505	510	0	0	
14	0	0	0	0	510	510	0	0	
15	0	0	0	0	510	511	0	0	
0	0	0	0	0	510	512	0	0	
1	0	0	0	0	514	510	0	0	
2	0	0	0	0	513	512	0	0	
3	0	0	0	0	510	511	0	0	
4	0	0	0	0	512	511	0	0	
5	0	0	0	0	510	510	0	0	
6	0	0	0	0	513	509	0	0	
7	0	0	0	0	511	509	0	0	
8	0	0	0	0	514	507	0	0	
9	0	0	0	0	511	511	0	0	
10	0	0	0	0	507	511	0	0	
11	0	0	0	0	501	513	0	0	
12	0	0	0	0	499	512	0	0	
13	0	0	0	0	496	510	0	0	
14	0	0	0	0	495	512	0	0	
15	0	0	0	0	504	510	0	0	
0	0	0	0	0	508	510	0	0	
1	0	0	0	0	507	510	0	0	
2	0	0	0	0	508	509	0	0	
3	0	0	0	0	510	510	0	0	
4	0	0	0	0	512	512	0	0	
5	0	0	0	0	511	509	0	0	
6	0	0	0	0	510	512	0	0	
7	0	0	0	0	511	510	0	0	
8	0	0	0	0	519	512	0	0	
9	0	0	0	0	518	512	0	0	
10	0	0	0	0	517	513	0	0	
11	0	0	0	0	517	510	0	0	
12	0	0	0	0	513	513	0	0	
13	0	0	0	0	508	512	0	0	
14	0	0	0	0	507	510	0	0	
15	0	0	0	0	507	510	0	0	
0	0	0	0	0	504	511	0	0	
1	0	0	0	0	501	509	0	0	
2	0	0	0	0	502	509	0	0	
3	0	0	0	0	503	511	0	0	
4	0	0	0	0	502	510	0	0	
5	0	0	0	0	502	510	0	0	
6	0	0	0	0	505	511	0	0	
7	0	0	0	0	509	510	0	0	
8	0	0	0	0	509	508	0	0	
9	0	0	0	0	513	509	0	0	
10	0	0	0	0	516	512	0	0	
11	0	0	0	0	511	510	0	0	
12	0	0	0	0	510	509	0	0	
13	0	0	0	0	511	512	0	0	
14	0	0	0	0	510	510	0	0	
15	0	0	0	0	511	513	0	0	
0	0	0	0	0	513	511	0	0	
1	0	0	0	0	516	510	0	0	
2	0	0	0	0	510	513	0	0	
3	0	0	0	0	508	509	0	0	
4	0	0	0	0	508	510	0	0	
5	0	0	0	0	501	510	0	0	
6	0	0	0	0	501	512	0	0	
7	0	0	0	0	504	509	0	0	
8	0	0	0	0	504	511	0	0	
9	0	0	0	0	502	511	0	0	
10	0	0	0	0	510	508	0	0	
11	0	0	0	0	510	510	0	0	
12	0	0	0	0	504	512	0	0	
13	0	0	0	0	512	511	0	0	
14	0	0	0	0	511	513	0	0	
15	0	0	0	0	512	510	0	0	
0	0	0	0	0	514	510	0	0	
1	0	0	0	0	513	509	0	0	
2	0	0	0	0	511	511	0	0	
3	0	0	0	0	512	510	0	0	
4	0	0	0	0	511	511	0	0	
5	0	0	0	0	510	509	0	0	
6	0	0	0	0	508	510	0	0	
7	0	0	0	0	505	511	0	0	
8	0	0	0	0	507	511	0	0	
9	0	0	0	0	505	510	0	0	
10	0	0	0	0	503	510	0	0	
11	0	0	0	0	507	510	0	0	
12	0	0	0	0	505	512	0	0	
13	0	0	0	0	502	508	0	0	
14	0	0	0	0	505	510	0	0	
15	0	0	0	0	507	510	0	0	
0	0	0	0	0	510	509	0	0	
1	0	0	0	0	513	510	0	0	
2	0	0	0	0	513	510	0	0	
3	0	0	0	0	514	510	0	0	
4	0	0	0	0	513	510	0	0	
5	0	0	0	0	516	511	0	0	
6	0	0	0	0	515	512	0	0	
7	0	0	0	0	513	510	0	0	
