# OpenSignals Text File Format. Version 1
# {"20:18:06:13:21:78": {"position": 0, "device": "bitalino_rev", "device name": "20:18:06:13:21:78", "device connection": "BTH20:18:06:13:21:78", "sampling rate": 1000, "resolution": [4, 1, 1, 1, 1, 10, 10, 10, 10], "firmware version": 1281, "comments": "", "keywords": "", "mode": 0, "sync interval": 2, "date": "2023-6-5", "time": "23:55:45.225", "channels": [1, 2, 3, 4], "sensor": ["EMGBITREV", "EMGBITREV", "RAW", "RAW"], "label": ["A1", "A2", "A3", "A4"], "column": ["nSeq", "I1", "I2", "O1", "O2", "A1", "A2", "A3", "A4"], "special": [{}, {}, {}, {}], "digital IO": [0, 0, 1, 1]}}
# EndOfHeader
0	0	0	0	0	511	510	0	0	
1	0	0	0	0	510	510	0	0	
2	0	0	0	0	509	511	0	0	
3	0	0	0	0	509	512	0	0	
4	0	0	0	0	505	512	0	0	
5	0	0	0	0	508	510	0	0	
6	0	0	0	0	511	511	0	0	
7	0	0	0	0	507	512	0	0	
8	0	0	0	0	508	511	0	0	
9	0	0	0	0	506	510	0	0	
10	0	0	0	0	506	511	0	0	
11	0	0	0	0	507	507	0	0	
12	0	0	0	0	508	509	0	0	
13	0	0	0	0	507	510	0	0	
14	0	0	0	0	508	511	0	0	
15	0	0	0	0	508	508	0	0	
0	0	0	0	0	509	511	0	0	
1	0	0	0	0	508	511	0	0	
2	0	0	0	0	511	512	0	0	
3	0	0	0	0	512	511	0	0	
4	0	0	0	0	510	512	0	0	
5	0	0	0	0	509	509	0	0	
6	0	0	0	0	510	511	0	0	
7	0	0	0	0	510	511	0	0	
8	0	0	0	0	510	511	0	0	
9	0	0	0	0	508	512	0	0	
10	0	0	0	0	506	510	0	0	
11	0	0	0	0	507	512	0	0	
12	0	0	0	0	508	511	0	0	
13	0	0	0	0	508	512	0	0	
14	0	0	0	0	505	511	0	0	
15	0	0	0	0	509	508	0	0	
0	0	0	0	0	506	510	0	0	
1	0	0	0	0	507	507	0	0	
2	0	0	0	0	508	509	0	0	
3	0	0	0	0	508	510	0	0	
4	0	0	0	0	511	510	0	0	
5	0	0	0	0	511	509	0	0	
6	0	0	0	0	510	509	0	0	
7	0	0	0	0	513	511	0	0	
8	0	0	0	0	510	510	0	0	
9	0	0	0	0	510	511	0	0	
10	0	0	0	0	508	513	0	0	
11	0	0	0	0	509	512	0	0	
12	0	0	0	0	510	513	0	0	
13	0	0	0	0	509	513	0	0	
14	0	0	0	0	507	512	0	0	
15	0	0	0	0	508	512	0	0	
0	0	0	0	0	506	511	0	0	
1	0	0	0	0	504	510	0	0	
2	0	0	0	0	509	510	0	0	
3	0	0	0	0	508	508	0	0	
4	0	0	0	0	506	510	0	0	
5	0	0	0	0	507	508	0	0	
6	0	0	0	0	509	509	0	0	
7	0	0	0	0	507	508	0	0	
8	0	0	0	0	510	511	0	0	
9	0	0	0	0	511	513	0	0	
10	0	0	0	0	508	510	0	0	
11	0	0	0	0	510	511	0	0	
12	0	0	0	0	513	513	0	0	
13	0	0	0	0	511	512	0	0	
14	0	0	0	0	508	509	0	0	
15	0	0	0	0	507	511	0	0	
0	0	0	0	0	510	511	0	0	
1	0	0	0	0	512	511	0	0	
2	0	0	0	0	509	510	0	0	
3	0	0	0	0	508	510	0	0	
4	0	0	0	0	508	510	0	0	
5	0	0	0	0	509	509	0	0	
6	0	0	0	0	506	510	0	0	
7	0	0	0	0	504	508	0	0	
8	0	0	0	0	505	510	0	0	
9	0	0	0	0	507	508	0	0	
10	0	0	0	0	507	508	0	0	
11	0	0	0	0	508	509	0	0	
12	0	0	0	0	510	510	0	0	
13	0	0	0	0	511	508	0	0	
14	0	0	0	0	511	511	0	0	
15	0	0	0	0	511	512	0	0	
0	0	0	0	0	510	512	0	0	
1	0	0	0	0	509	512	0	0	
2	0	0	0	0	510	511	0	0	
3	0	0	0	0	509	510	0	0	
4	0	0	0	0	511	513	0	0	
5	0	0	0	0	508	511	0	0	
6	0	0	0	0	508	511	0	0	
7	0	0	0	0	508	509	0	0	
8	0	0	0	0	505	514	0	0	
9	0	0	0	0	505	509	0	0	
10	0	0	0	0	506	509	0	0	
11	0	0	0	0	506	510	0	0	
12	0	0	0	0	507	508	0	0	
13	0	0	0	0	507	509	0	0	
14	0	0	0	0	508	510	0	0	
15	0	0	0	0	509	509	0	0	
0	0	0	0	0	511	510	0	0	
1	0	0	0	0	510	509	0	0	
2	0	0	0	0	513	509	0	0	
3	0	0	0	0	512	512	0	0	
4	0	0	0	0	511	511	0	0	
5	0	0	0	0	510	514	0	0	
6	0	0	0	0	508	511	0	0	
7	0	0	0	0	508	513	0	0	
8	0	0	0	0	511	511	0	0	
9	0	0	0	0	508	510	0	0	
10	0	0	0	0	510	512	0	0	
11	0	0	0	0	508	510	0	0	
12	0	0	0	0	505	510	0	0	
13	0	0	0	0	505	510	0	0	
14	0	0	0	0	506	509	0	0	
15	0	0	0	0	508	511	0	0	
0	0	0	0	0	505	514	0	0	
1	0	0	0	0	508	509	0	0	
2	0	0	0	0	509	511	0	0	
3	0	0	0	0	509	510	0	0	
4	0	0	0	0	510	509	0	0	
5	0	0	0	0	510	509	0	0	
6	0	0	0	0	509	512	0	0	
7	0	0	0	0	509	507	0	0	
8	0	0	0	0	511	511	0	0	
9	0	0	0	0	511	512	0	0	
10	0	0	0	0	509	513	0	0	
11	0	0	0	0	508	511	0	0	
12	0	0	0	0	509	513	0	0	
13	0	0	0	0	508	512	0	0	
14	0	0	0	0	508	512	0	0	
15	0	0	0	0	507	511	0	0	
0	0	0	0	0	506	512	0	0	
1	0	0	0	0	507	511	0	0	
2	0	0	0	0	505	510	0	0	
3	0	0	0	0	507	511	0	0	
4	0	0	0	0	507	509	0	0	
5	0	0	0	0	508	509	0	0	
6	0	0	0	0	506	508	0	0	
7	0	0	0	0	508	509	0	0	
8	0	0	0	0	511	511	0	0	
9	0	0	0	0	510	511	0	0	
10	0	0	0	0	511	512	0	0	
11	0	0	0	0	509	510	0	0	
12	0	0	0	0	513	511	0	0	
13	0	0	0	0	511	511	0	0	
14	0	0	0	0	509	514	0	0	
15	0	0	0	0	510	510	0	0	
0	0	0	0	0	510	510	0	0	
1	0	0	0	0	508	508	0	0	
2	0	0	0	0	506	509	0	0	
3	0	0	0	0	505	512	0	0	
4	0	0	0	0	507	511	0	0	
5	0	0	0	0	506	512	0	0	
6	0	0	0	0	507	511	0	0	
7	0	0	0	0	505	510	0	0	
8	0	0	0	0	507	509	0	0	
9	0	0	0	0	507	508	0	0	
10	0	0	0	0	509	510	0	0	
11	0	0	0	0	511	510	0	0	
12	0	0	0	0	510	509	0	0	
13	0	0	0	0	508	510	0	0	
14	0	0	0	0	510	509	0	0	
15	0	0	0	0	508	511	0	0	
0	0	0	0	0	513	512	0	0	
1	0	0	0	0	509	513	0	0	
2	0	0	0	0	511	510	0	0	
3	0	0	0	0	511	512	0	0	
4	0	0	0	0	511	510	0	0	
5	0	0	0	0	506	509	0	0	
6	0	0	0	0	505	508	0	0	
7	0	0	0	0	503	511	0	0	
8	0	0	0	0	505	509	0	0	
9	0	0	0	0	508	510	0	0	
10	0	0	0	0	510	510	0	0	
11	0	0	0	0	508	511	0	0	
12	0	0	0	0	506	511	0	0	
13	0	0	0	0	508	510	0	0	
14	0	0	0	0	511	512	0	0	
15	0	0	0	0	508	513	0	0	
0	0	0	0	0	509	512	0	0	
1	0	0	0	0	510	512	0	0	
2	0	0	0	0	509	511	0	0	
3	0	0	0	0	510	511	0	0	
4	0	0	0	0	509	512	0	0	
5	0	0	0	0	511	511	0	0	
6	0	0	0	0	512	510	0	0	
7	0	0	0	0	511	509	0	0	
8	0	0	0	0	509	511	0	0	
9	0	0	0	0	508	508	0	0	
10	0	0	0	0	507	510	0	0	
11	0	0	0	0	508	511	0	0	
12	0	0	0	0	505	508	0	0	
13	0	0	0	0	506	509	0	0	
14	0	0	0	0	505	509	0	0	
15	0	0	0	0	506	510	0	0	
0	0	0	0	0	508	510	0	0	
1	0	0	0	0	507	510	0	0	
2	0	0	0	0	508	508	0	0	
3	0	0	0	0	510	509	0	0	
4	0	0	0	0	510	511	0	0	
5	0	0	0	0	512	510	0	0	
6	0	0	0	0	511	511	0	0	
7	0	0	0	0	511	513	0	0	
8	0	0	0	0	510	512	0	0	
9	0	0	0	0	511	513	0	0	
10	0	0	0	0	509	512	0	0	
11	0	0	0	0	510	509	0	0	
12	0	0	0	0	510	513	0	0	
13	0	0	0	0	508	511	0	0	
14	0	0	0	0	505	509	0	0	
15	0	0	0	0	506	510	0	0	
0	0	0	0	0	507	511	0	0	
1	0	0	0	0	505	512	0	0	
2	0	0	0	0	507	510	0	0	
3	0	0	0	0	506	510	0	0	
4	0	0	0	0	508	510	0	0	
5	0	0	0	0	507	511	0	0	
6	0	0	0	0	508	508	0	0	
7	0	0	0	0	510	511	0	0	
8	0	0	0	0	510	511	0	0	
9	0	0	0	0	510	510	0	0	
10	0	0	0	0	511	511	0	0	
11	0	0	0	0	512	513	0	0	
12	0	0	0	0	512	512	0	0	
13	0	0	0	0	511	512	0	0	
14	0	0	0	0	512	511	0	0	
15	0	0	0	0	510	508	0	0	
0	0	0	0	0	509	509	0	0	
1	0	0	0	0	507	510	0	0	
2	0	0	0	0	505	511	0	0	
3	0	0	0	0	507	509	0	0	
4	0	0	0	0	508	512	0	0	
5	0	0	0	0	507	511	0	0	
6	0	0	0	0	508	512	0	0	
7	0	0	0	0	507	509	0	0	
8	0	0	0	0	506	508	0	0	
9	0	0	0	0	506	511	0	0	
10	0	0	0	0	508	511	0	0	
11	0	0	0	0	505	510	0	0	
12	0	0	0	0	507	510	0	0	
13	0	0	0	0	511	510	0	0	
14	0	0	0	0	509	511	0	0	
15	0	0	0	0	512	512	0	0	
0	0	0	0	0	514	512	0	0	
1	0	0	0	0	513	515	0	0	
2	0	0	0	0	512	513	0	0	
3	0	0	0	0	511	510	0	0	
4	0	0	0	0	510	510	0	0	
5	0	0	0	0	509	509	0	0	
6	0	0	0	0	508	511	0	0	
7	0	0	0	0	506	508	0	0	
8	0	0	0	0	504	507	0	0	
9	0	0	0	0	506	510	0	0	
10	0	0	0	0	507	508	0	0	
11	0	0	0	0	508	510	0	0	
12	0	0	0	0	507	510	0	0	
13	0	0	0	0	507	511	0	0	
14	0	0	0	0	507	511	0	0	
15	0	0	0	0	507	511	0	0	
0	0	0	0	0	508	511	0	0	
1	0	0	0	0	511	510	0	0	
2	0	0	0	0	512	512	0	0	
3	0	0	0	0	511	512	0	0	
4	0	0	0	0	508	511	0	0	
5	0	0	0	0	512	512	0	0	
6	0	0	0	0	512	512	0	0	
7	0	0	0	0	511	510	0	0	
8	0	0	0	0	509	510	0	0	
9	0	0	0	0	510	512	0	0	
10	0	0	0	0	505	509	0	0	
11	0	0	0	0	507	509	0	0	
12	0	0	0	0	507	510	0	0	
13	0	0	0	0	505	508	0	0	
14	0	0	0	0	506	509	0	0	
15	0	0	0	0	505	509	0	0	
0	0	0	0	0	505	509	0	0	
1	0	0	0	0	509	510	0	0	
2	0	0	0	0	509	510	0	0	
3	0	0	0	0	508	511	0	0	
4	0	0	0	0	510	510	0	0	
5	0	0	0	0	510	509	0	0	
6	0	0	0	0	511	509	0	0	
7	0	0	0	0	514	512	0	0	
8	0	0	0	0	513	514	0	0	
9	0	0	0	0	513	512	0	0	
10	0	0	0	0	510	513	0	0	
11	0	0	0	0	508	512	0	0	
12	0	0	0	0	509	509	0	0	
13	0	0	0	0	508	508	0	0	
14	0	0	0	0	504	512	0	0	
15	0	0	0	0	505	510	0	0	
0	0	0	0	0	508	509	0	0	
1	0	0	0	0	507	511	0	0	
2	0	0	0	0	506	511	0	0	
3	0	0	0	0	507	510	0	0	
4	0	0	0	0	507	510	0	0	
5	0	0	0	0	508	510	0	0	
6	0	0	0	0	507	508	0	0	
7	0	0	0	0	508	512	0	0	
8	0	0	0	0	508	509	0	0	
9	0	0	0	0	513	512	0	0	
10	0	0	0	0	512	512	0	0	
11	0	0	0	0	514	511	0	0	
12	0	0	0	0	513	512	0	0	
13	0	0	0	0	512	511	0	0	
14	0	0	0	0	510	511	0	0	
15	0	0	0	0	508	510	0	0	
0	0	0	0	0	511	511	0	0	
1	0	0	0	0	510	509	0	0	
2	0	0	0	0	505	508	0	0	
3	0	0	0	0	505	509	0	0	
4	0	0	0	0	504	512	0	0	
5	0	0	0	0	504	508	0	0	
6	0	0	0	0	506	509	0	0	
7	0	0	0	0	502	511	0	0	
8	0	0	0	0	505	513	0	0	
9	0	0	0	0	508	511	0	0	
10	0	0	0	0	512	508	0	0	
11	0	0	0	0	512	508	0	0	
12	0	0	0	0	509	508	0	0	
13	0	0	0	0	510	510	0	0	
14	0	0	0	0	511	509	0	0	
15	0	0	0	0	510	512	0	0	
0	0	0	0	0	511	511	0	0	
1	0	0	0	0	513	510	0	0	
2	0	0	0	0	511	514	0	0	
3	0	0	0	0	510	511	0	0	
4	0	0	0	0	513	511	0	0	
5	0	0	0	0	506	511	0	0	
6	0	0	0	0	503	511	0	0	
7	0	0	0	0	506	510	0	0	
8	0	0	0	0	507	510	0	0	
9	0	0	0	0	505	509	0	0	
10	0	0	0	0	503	509	0	0	
11	0	0	0	0	509	511	0	0	
12	0	0	0	0	508	511	0	0	
13	0	0	0	0	508	511	0	0	
14	0	0	0	0	506	510	0	0	
15	0	0	0	0	507	511	0	0	
0	0	0	0	0	511	511	0	0	
1	0	0	0	0	511	510	0	0	
2	0	0	0	0	514	511	0	0	
3	0	0	0	0	512	511	0	0	
4	0	0	0	0	513	513	0	0	
5	0	0	0	0	511	511	0	0	
6	0	0	0	0	509	513	0	0	
7	0	0	0	0	511	511	0	0	
8	0	0	0	0	511	509	0	0	
9	0	0	0	0	508	510	0	0	
10	0	0	0	0	504	513	0	0	
11	0	0	0	0	505	510	0	0	
12	0	0	0	0	508	513	0	0	
13	0	0	0	0	506	510	0	0	
14	0	0	0	0	505	511	0	0	
15	0	0	0	0	505	511	0	0	
0	0	0	0	0	507	511	0	0	
1	0	0	0	0	506	509	0	0	
2	0	0	0	0	507	509	0	0	
3	0	0	0	0	508	512	0	0	
4	0	0	0	0	510	509	0	0	
5	0	0	0	0	511	510	0	0	
6	0	0	0	0	512	510	0	0	
7	0	0	0	0	510	510	0	0	
8	0	0	0	0	512	512	0	0	
9	0	0	0	0	512	510	0	0	
10	0	0	0	0	511	511	0	0	
11	0	0	0	0	509	510	0	0	
12	0	0	0	0	510	511	0	0	
13	0	0	0	0	508	510	0	0	
14	0	0	0	0	508	510	0	0	
15	0	0	0	0	508	511	0	0	
0	0	0	0	0	505	510	0	0	
1	0	0	0	0	502	511	0	0	
2	0	0	0	0	505	513	0	0	
3	0	0	0	0	505	510	0	0	
4	0	0	0	0	506	510	0	0	
5	0	0	0	0	509	509	0	0	
6	0	0	0	0	509	511	0	0	
7	0	0	0	0	507	509	0	0	
8	0	0	0	0	508	511	0	0	
9	0	0	0	0	511	512	0	0	
10	0	0	0	0	513	511	0	0	
11	0	0	0	0	511	510	0	0	
12	0	0	0	0	513	511	0	0	
13	0	0	0	0	512	511	0	0	
14	0	0	0	0	512	511	0	0	
15	0	0	0	0	511	509	0	0	
0	0	0	0	0	508	510	0	0	
1	0	0	0	0	508	513	0	0	
2	0	0	0	0	507	510	0	0	
3	0	0	0	0	506	510	0	0	
4	0	0	0	0	504	510	0	0	
5	0	0	0	0	505	509	0	0	
6	0	0	0	0	504	508	0	0	
7	0	0	0	0	504	509	0	0	
8	0	0	0	0	507	510	0	0	
9	0	0	0	0	508	511	0	0	
10	0	0	0	0	508	509	0	0	
11	0	0	0	0	509	510	0	0	
12	0	0	0	0	510	511	0	0	
13	0	0	0	0	511	511	0	0	
14	0	0	0	0	513	510	0	0	
15	0	0	0	0	512	511	0	0	
0	0	0	0	0	512	512	0	0	
1	0	0	0	0	512	510	0	0	
2	0	0	0	0	510	509	0	0	
3	0	0	0	0	510	512	0	0	
4	0	0	0	0	509	512	0	0	
5	0	0	0	0	508	512	0	0	
6	0	0	0	0	509	511	0	0	
7	0	0	0	0	508	511	0	0	
8	0	0	0	0	501	510	0	0	
9	0	0	0	0	501	510	1	0	
10	0	0	0	0	506	510	0	0	
11	0	0	0	0	507	510	0	0	
12	0	0	0	0	505	508	0	0	
13	0	0	0	0	507	508	0	0	
14	0	0	0	0	508	509	0	0	
15	0	0	0	0	511	508	1	0	
0	0	0	0	0	510	512	1	0	
1	0	0	0	0	511	511	1	0	
2	0	0	0	0	514	512	1	0	
3	0	0	0	0	512	514	1	0	
4	0	0	0	0	512	511	0	0	
5	0	0	0	0	513	511	1	0	
6	0	0	0	0	509	509	1	0	
7	0	0	0	0	507	511	2	0	
8	0	0	0	0	507	510	2	0	
9	0	0	0	0	508	508	2	0	
10	0	0	0	0	507	509	3	0	
11	0	0	0	0	507	510	3	0	
12	0	0	0	0	504	512	2	0	
13	0	0	0	0	504	510	3	0	
14	0	0	0	0	505	511	4	0	
15	0	0	0	0	505	511	3	0	
0	0	0	0	0	505	511	3	0	
1	0	0	0	0	507	511	2	0	
2	0	0	0	0	507	510	3	0	
3	0	0	0	0	509	511	3	0	
4	0	0	0	0	511	511	3	0	
5	0	0	0	0	514	512	2	0	
6	0	0	0	0	511	511	2	0	
7	0	0	0	0	513	513	1	0	
8	0	0	0	0	511	511	3	0	
9	0	0	0	0	512	510	1	0	
10	0	0	0	0	509	511	1	0	
11	0	0	0	0	508	513	0	0	
12	0	0	0	0	505	512	0	0	
13	0	0	0	0	508	509	0	0	
14	0	0	0	0	508	512	0	0	
15	0	0	0	0	507	511	0	0	
0	0	0	0	0	507	510	0	0	
1	0	0	0	0	503	510	0	0	
2	0	0	0	0	507	510	0	0	
3	0	0	0	0	507	511	0	0	
4	0	0	0	0	506	509	0	0	
5	0	0	0	0	506	512	0	0	
6	0	0	0	0	507	511	0	0	
7	0	0	0	0	509	510	0	0	
8	0	0	0	0	513	508	0	0	
9	0	0	0	0	512	510	0	0	
10	0	0	0	0	512	513	0	0	
11	0	0	0	0	513	510	0	0	
12	0	0	0	0	512	510	0	0	
13	0	0	0	0	512	512	0	0	
14	0	0	0	0	509	509	0	0	
15	0	0	0	0	510	511	0	0	
0	0	0	0	0	510	511	0	0	
1	0	0	0	0	508	510	0	0	
2	0	0	0	0	505	511	0	0	
3	0	0	0	0	507	512	0	0	
4	0	0	0	0	506	509	0	0	
5	0	0	0	0	503	509	0	0	
6	0	0	0	0	503	509	0	0	
7	0	0	0	0	507	509	0	0	
8	0	0	0	0	506	510	0	0	
9	0	0	0	0	507	509	0	0	
10	0	0	0	0	506	511	0	0	
11	0	0	0	0	508	509	0	0	
12	0	0	0	0	509	508	0	0	
13	0	0	0	0	509	510	0	0	
14	0	0	0	0	511	511	0	0	
15	0	0	0	0	514	514	0	0	
0	0	0	0	0	511	513	0	0	
1	0	0	0	0	511	513	0	0	
2	0	0	0	0	511	512	0	0	
3	0	0	0	0	509	511	0	0	
4	0	0	0	0	508	508	0	0	
5	0	0	0	0	508	510	0	0	
6	0	0	0	0	509	512	0	0	
7	0	0	0	0	505	510	0	0	
8	0	0	0	0	514	509	0	0	
9	0	0	0	0	513	510	0	0	
10	0	0	0	0	508	512	0	0	
11	0	0	0	0	503	511	0	0	
12	0	0	0	0	505	510	0	0	
13	0	0	0	0	506	510	0	0	
14	0	0	0	0	508	507	0	0	
15	0	0	0	0	507	508	0	0	
0	0	0	0	0	511	511	0	0	
1	0	0	0	0	510	511	0	0	
2	0	0	0	0	510	511	0	0	
3	0	0	0	0	513	511	0	0	
4	0	0	0	0	510	511	0	0	
5	0	0	0	0	512	512	0	0	
6	0	0	0	0	512	510	0	0	
7	0	0	0	0	509	512	0	0	
8	0	0	0	0	508	510	0	0	
9	0	0	0	0	508	511	0	0	
10	0	0	0	0	507	512	0	0	
11	0	0	0	0	505	512	0	0	
12	0	0	0	0	505	508	0	0	
13	0	0	0	0	504	511	0	0	
14	0	0	0	0	505	509	0	0	
15	0	0	0	0	506	510	0	0	
0	0	0	0	0	507	509	0	0	
1	0	0	0	0	506	512	0	0	
2	0	0	0	0	508	510	0	0	
3	0	0	0	0	510	511	0	0	
4	0	0	0	0	513	511	0	0	
5	0	0	0	0	510	511	0	0	
6	0	0	0	0	511	512	0	0	
7	0	0	0	0	512	511	0	0	
8	0	0	0	0	513	511	0	0	
9	0	0	0	0	511	512	0	0	
10	0	0	0	0	510	509	0	0	
11	0	0	0	0	508	513	0	0	
12	0	0	0	0	509	511	0	0	
13	0	0	0	0	509	512	0	0	
14	0	0	0	0	507	511	0	0	
15	0	0	0	0	505	510	0	0	
0	0	0	0	0	505	510	0	0	
1	0	0	0	0	504	510	0	0	
2	0	0	0	0	504	510	0	0	
3	0	0	0	0	504	509	0	0	
4	0	0	0	0	505	510	0	0	
5	0	0	0	0	509	508	0	0	
6	0	0	0	0	508	510	0	0	
7	0	0	0	0	508	511	0	0	
8	0	0	0	0	512	511	0	0	
9	0	0	0	0	511	510	0	0	
10	0	0	0	0	512	513	0	0	
11	0	0	0	0	512	509	0	0	
12	0	0	0	0	513	512	0	0	
13	0	0	0	0	511	512	0	0	
14	0	0	0	0	512	510	0	0	
15	0	0	0	0	509	512	0	0	
0	0	0	0	0	509	510	0	0	
1	0	0	0	0	508	511	0	0	
2	0	0	0	0	506	511	0	0	
3	0	0	0	0	506	511	0	0	
4	0	0	0	0	504	510	0	0	
5	0	0	0	0	505	510	0	0	
6	0	0	0	0	508	513	0	0	
7	0	0	0	0	508	511	0	0	
8	0	0	0	0	506	510	0	0	
9	0	0	0	0	504	510	0	0	
10	0	0	0	0	507	511	0	0	
11	0	0	0	0	508	509	0	0	
12	0	0	0	0	510	510	0	0	
13	0	0	0	0	512	510	0	0	
14	0	0	0	0	513	512	0	0	
15	0	0	0	0	512	512	0	0	
0	0	0	0	0	514	510	0	0	
1	0	0	0	0	511	510	0	0	
2	0	0	0	0	510	512	0	0	
3	0	0	0	0	510	511	0	0	
4	0	0	0	0	510	510	0	0	
5	0	0	0	0	506	509	0	0	
6	0	0	0	0	507	509	0	0	
7	0	0	0	0	505	511	0	0	
8	0	0	0	0	505	511	0	0	
9	0	0	0	0	508	511	0	0	
10	0	0	0	0	502	510	0	0	
11	0	0	0	0	504	509	0	0	
12	0	0	0	0	504	511	0	0	
13	0	0	0	0	506	510	0	0	
14	0	0	0	0	506	507	0	0	
15	0	0	0	0	508	510	0	0	
0	0	0	0	0	511	510	0	0	
1	0	0	0	0	516	511	0	0	
2	0	0	0	0	524	511	0	0	
3	0	0	0	0	522	511	0	0	
4	0	0	0	0	514	511	0	0	
5	0	0	0	0	511	511	0	0	
6	0	0	0	0	509	512	0	0	
7	0	0	0	0	506	510	0	0	
8	0	0	0	0	507	509	0	0	
9	0	0	0	0	505	512	0	0	
10	0	0	0	0	504	509	0	0	
11	0	0	0	0	504	511	0	0	
12	0	0	0	0	504	509	0	0	
13	0	0	0	0	504	512	0	0	
14	0	0	0	0	504	510	0	0	
15	0	0	0	0	502	510	0	0	
0	0	0	0	0	504	509	0	0	
1	0	0	0	0	508	510	0	0	
2	0	0	0	0	508	511	0	0	
3	0	0	0	0	511	512	0	0	
4	0	0	0	0	513	510	0	0	
5	0	0	0	0	512	512	0	0	
6	0	0	0	0	513	509	0	0	
7	0	0	0	0	516	512	0	0	
8	0	0	0	0	515	512	0	0	
9	0	0	0	0	509	510	0	0	
10	0	0	0	0	508	510	0	0	
11	0	0	0	0	509	513	0	0	
12	0	0	0	0	507	510	0	0	
13	0	0	0	0	508	510	0	0	
14	0	0	0	0	507	510	0	0	
15	0	0	0	0	506	510	0	0	
0	0	0	0	0	504	508	0	0	
1	0	0	0	0	506	509	0	0	
2	0	0	0	0	506	512	0	0	
3	0	0	0	0	505	511	0	0	
4	0	0	0	0	506	512	0	0	
5	0	0	0	0	507	511	0	0	
6	0	0	0	0	506	508	0	0	
7	0	0	0	0	507	512	0	0	
8	0	0	0	0	508	509	0	0	
9	0	0	0	0	511	511	0	0	
10	0	0	0	0	510	511	0	0	
11	0	0	0	0	511	512	0	0	
12	0	0	0	0	512	511	0	0	
13	0	0	0	0	512	512	0	0	
14	0	0	0	0	512	509	0	0	
15	0	0	0	0	512	511	0	0	
0	0	0	0	0	514	510	0	0	
1	0	0	0	0	507	510	0	0	
2	0	0	0	0	505	510	0	0	
3	0	0	0	0	503	510	0	0	
4	0	0	0	0	502	511	0	0	
5	0	0	0	0	504	509	0	0	
6	0	0	0	0	506	511	0	0	
7	0	0	0	0	503	508	0	0	
8	0	0	0	0	505	512	0	0	
9	0	0	0	0	519	511	0	0	
10	0	0	0	0	512	512	0	0	
11	0	0	0	0	512	509	0	0	
12	0	0	0	0	512	511	0	0	
13	0	0	0	0	507	511	0	0	
14	0	0	0	0	508	511	0	0	
15	0	0	0	0	510	511	0	0	
0	0	0	0	0	511	510	0	0	
1	0	0	0	0	512	510	0	0	
2	0	0	0	0	512	509	0	0	
3	0	0	0	0	514	509	0	0	
4	0	0	0	0	511	514	0	0	
5	0	0	0	0	505	511	0	0	
6	0	0	0	0	505	510	0	0	
7	0	0	0	0	506	512	0	0	
8	0	0	0	0	505	509	0	0	
9	0	0	0	0	504	509	0	0	
10	0	0	0	0	505	511	0	0	
11	0	0	0	0	504	510	0	0	
12	0	0	0	0	507	511	0	0	
13	0	0	0	0	510	509	0	0	
14	0	0	0	0	506	509	0	0	
15	0	0	0	0	508	509	0	0	
0	0	0	0	0	511	510	0	0	
1	0	0	0	0	511	509	0	0	
2	0	0	0	0	513	511	0	0	
3	0	0	0	0	512	510	0	0	
4	0	0	0	0	512	513	0	0	
5	0	0	0	0	512	512	0	0	
6	0	0	0	0	511	509	0	0	
7	0	0	0	0	512	510	0	0	
8	0	0	0	0	511	512	0	0	
9	0	0	0	0	505	511	0	0	
10	0	0	0	0	507	512	0	0	
11	0	0	0	0	507	511	0	0	
12	0	0	0	0	504	510	0	0	
13	0	0	0	0	504	510	0	0	
14	0	0	0	0	506	510	0	0	
15	0	0	0	0	504	511	0	0	
0	0	0	0	0	504	512	0	0	
1	0	0	0	0	505	511	0	0	
2	0	0	0	0	504	511	0	0	
3	0	0	0	0	508	512	0	0	
4	0	0	0	0	508	512	0	0	
5	0	0	0	0	513	508	0	0	
6	0	0	0	0	517	509	0	0	
7	0	0	0	0	523	510	0	0	
8	0	0	0	0	515	511	0	0	
9	0	0	0	0	511	512	0	0	
10	0	0	0	0	511	513	0	0	
11	0	0	0	0	507	511	0	0	
12	0	0	0	0	507	511	0	0	
13	0	0	0	0	507	509	0	0	
14	0	0	0	0	503	509	0	0	
15	0	0	0	0	499	508	0	0	
0	0	0	0	0	507	507	0	0	
1	0	0	0	0	508	511	0	0	
2	0	0	0	0	505	510	0	0	
3	0	0	0	0	507	510	0	0	
4	0	0	0	0	503	509	0	0	
5	0	0	0	0	506	510	0	0	
6	0	0	0	0	507	510	0	0	
7	0	0	0	0	508	512	0	0	
8	0	0	0	0	509	511	0	0	
9	0	0	0	0	513	511	0	0	
10	0	0	0	0	513	511	0	0	
11	0	0	0	0	515	513	0	0	
12	0	0	0	0	511	510	0	0	
13	0	0	0	0	513	510	0	0	
14	0	0	0	0	514	508	0	0	
15	0	0	0	0	515	511	0	0	
0	0	0	0	0	505	510	0	0	
1	0	0	0	0	502	511	0	0	
2	0	0	0	0	504	510	0	0	
3	0	0	0	0	501	512	0	0	
4	0	0	0	0	500	512	0	0	
5	0	0	0	0	503	509	0	0	
6	0	0	0	0	504	511	0	0	
7	0	0	0	0	502	509	0	0	
8	0	0	0	0	503	510	0	0	
9	0	0	0	0	513	510	0	0	
10	0	0	0	0	524	513	0	0	
11	0	0	0	0	531	511	0	0	
12	0	0	0	0	512	509	0	0	
13	0	0	0	0	512	510	0	0	
14	0	0	0	0	511	512	0	0	
15	0	0	0	0	507	512	0	0	
0	0	0	0	0	509	512	0	0	
1	0	0	0	0	508	511	0	0	
2	0	0	0	0	508	512	0	0	
3	0	0	0	0	507	511	0	0	
4	0	0	0	0	507	509	0	0	
5	0	0	0	0	509	509	0	0	
6	0	0	0	0	504	512	0	0	
7	0	0	0	0	505	510	0	0	
8	0	0	0	0	507	511	0	0	
9	0	0	0	0	504	509	0	0	
10	0	0	0	0	506	510	0	0	
11	0	0	0	0	504	509	0	0	
12	0	0	0	0	505	509	0	0	
13	0	0	0	0	505	510	0	0	
14	0	0	0	0	506	512	0	0	
15	0	0	0	0	508	510	0	0	
0	0	0	0	0	511	511	0	0	
1	0	0	0	0	511	513	0	0	
2	0	0	0	0	514	511	0	0	
3	0	0	0	0	511	510	0	0	
4	0	0	0	0	514	509	0	0	
5	0	0	0	0	515	509	0	0	
6	0	0	0	0	512	509	0	0	
7	0	0	0	0	509	512	0	0	
8	0	0	0	0	507	510	0	0	
9	0	0	0	0	509	510	0	0	
10	0	0	0	0	504	509	0	0	
11	0	0	0	0	505	511	0	0	
12	0	0	0	0	503	510	0	0	
13	0	0	0	0	504	512	0	0	
14	0	0	0	0	504	509	0	0	
15	0	0	0	0	505	508	0	0	
0	0	0	0	0	506	511	0	0	
1	0	0	0	0	506	510	0	0	
2	0	0	0	0	507	511	0	0	
3	0	0	0	0	511	510	0	0	
4	0	0	0	0	513	511	0	0	
5	0	0	0	0	511	510	0	0	
6	0	0	0	0	515	509	0	0	
7	0	0	0	0	513	509	0	0	
8	0	0	0	0	510	510	0	0	
9	0	0	0	0	511	508	0	0	
10	0	0	0	0	510	508	0	0	
11	0	0	0	0	511	512	0	0	
12	0	0	0	0	509	511	0	0	
13	0	0	0	0	507	511	0	0	
14	0	0	0	0	506	510	0	0	
15	0	0	0	0	505	511	0	0	
0	0	0	0	0	504	511	0	0	
1	0	0	0	0	504	511	0	0	
2	0	0	0	0	504	512	0	0	
3	0	0	0	0	505	511	0	0	
4	0	0	0	0	505	511	0	0	
5	0	0	0	0	506	510	0	0	
6	0	0	0	0	508	509	0	0	
7	0	0	0	0	508	508	0	0	
8	0	0	0	0	510	512	0	0	
9	0	0	0	0	513	511	0	0	
10	0	0	0	0	515	513	0	0	
11	0	0	0	0	512	515	0	0	
12	0	0	0	0	511	510	0	0	
13	0	0	0	0	511	511	0	0	
14	0	0	0	0	513	512	0	0	
15	0	0	0	0	515	511	0	0	
0	0	0	0	0	510	511	0	0	
1	0	0	0	0	506	511	0	0	
2	0	0	0	0	505	511	0	0	
3	0	0	0	0	507	510	0	0	
4	0	0	0	0	503	510	0	0	
5	0	0	0	0	502	508	0	0	
6	0	0	0	0	504	510	0	0	
7	0	0	0	0	506	512	0	0	
8	0	0	0	0	508	510	0	0	
9	0	0	0	0	504	510	0	0	
10	0	0	0	0	508	507	0	0	
11	0	0	0	0	511	510	0	0	
12	0	0	0	0	510	512	0	0	
13	0	0	0	0	510	512	0	0	
14	0	0	0	0	512	512	0	0	
15	0	0	0	0	514	509	0	0	
0	0	0	0	0	514	510	0	0	
1	0	0	0	0	513	511	0	0	
2	0	0	0	0	511	511	0	0	
3	0	0	0	0	510	511	0	0	
4	0	0	0	0	510	510	0	0	
5	0	0	0	0	507	510	0	0	
6	0	0	0	0	504	510	0	0	
7	0	0	0	0	507	511	0	0	
8	0	0	0	0	505	510	0	0	
9	0	0	0	0	504	512	0	0	
10	0	0	0	0	504	512	0	0	
11	0	0	0	0	506	511	0	0	
12	0	0	0	0	505	511	0	0	
13	0	0	0	0	506	511	0	0	
14	0	0	0	0	505	510	0	0	
15	0	0	0	0	511	509	0	0	
0	0	0	0	0	513	510	0	0	
1	0	0	0	0	512	512	0	0	
2	0	0	0	0	510	510	0	0	
3	0	0	0	0	513	510	0	0	
4	0	0	0	0	515	511	0	0	
5	0	0	0	0	513	509	0	0	
6	0	0	0	0	511	511	0	0	
7	0	0	0	0	510	510	0	0	
8	0	0	0	0	509	512	0	0	
9	0	0	0	0	506	512	0	0	
10	0	0	0	0	500	510	0	0	
11	0	0	0	0	502	509	0	0	
12	0	0	0	0	505	509	0	0	
13	0	0	0	0	507	510	0	0	
14	0	0	0	0	504	512	0	0	
15	0	0	0	0	503	511	0	0	
0	0	0	0	0	506	507	0	0	
1	0	0	0	0	508	509	0	0	
2	0	0	0	0	508	510	0	0	
3	0	0	0	0	509	511	0	0	
4	0	0	0	0	514	511	0	0	
5	0	0	0	0	513	512	0	0	
6	0	0	0	0	513	508	0	0	
7	0	0	0	0	512	512	0	0	
8	0	0	0	0	511	510	0	0	
9	0	0	0	0	512	511	0	0	
10	0	0	0	0	513	511	0	0	
11	0	0	0	0	510	511	0	0	
12	0	0	0	0	506	512	0	0	
13	0	0	0	0	507	511	0	0	
14	0	0	0	0	505	510	0	0	
15	0	0	0	0	505	509	0	0	
0	0	0	0	0	506	510	0	0	
1	0	0	0	0	505	510	0	0	
2	0	0	0	0	504	512	0	0	
3	0	0	0	0	506	510	0	0	
4	0	0	0	0	505	509	0	0	
5	0	0	0	0	507	508	0	0	
6	0	0	0	0	507	512	0	0	
7	0	0	0	0	511	509	0	0	
8	0	0	0	0	510	510	0	0	
9	0	0	0	0	511	509	0	0	
10	0	0	0	0	513	511	0	0	
11	0	0	0	0	513	510	0	0	
12	0	0	0	0	511	511	0	0	
13	0	0	0	0	512	511	0	0	
14	0	0	0	0	514	512	0	0	
15	0	0	0	0	509	510	0	0	
0	0	0	0	0	505	509	0	0	
1	0	0	0	0	504	510	0	0	
2	0	0	0	0	508	513	0	0	
3	0	0	0	0	506	512	0	0	
4	0	0	0	0	505	511	0	0	
5	0	0	0	0	506	512	0	0	
6	0	0	0	0	503	510	0	0	
7	0	0	0	0	504	510	0	0	
8	0	0	0	0	506	511	0	0	
9	0	0	0	0	508	510	0	0	
10	0	0	0	0	509	511	0	0	
11	0	0	0	0	508	509	0	0	
12	0	0	0	0	512	511	0	0	
13	0	0	0	0	512	509	0	0	
14	0	0	0	0	512	510	0	0	
15	0	0	0	0	510	511	0	0	
0	0	0	0	0	515	511	0	0	
1	0	0	0	0	513	512	0	0	
2	0	0	0	0	512	512	0	0	
3	0	0	0	0	512	510	0	0	
4	0	0	0	0	509	513	0	0	
5	0	0	0	0	506	510	0	0	
6	0	0	0	0	505	510	0	0	
7	0	0	0	0	504	511	0	0	
8	0	0	0	0	503	511	0	0	
9	0	0	0	0	505	509	0	0	
10	0	0	0	0	504	510	0	0	
11	0	0	0	0	504	509	0	0	
12	0	0	0	0	503	510	0	0	
13	0	0	0	0	505	508	0	0	
14	0	0	0	0	504	511	0	0	
15	0	0	0	0	506	511	0	0	
0	0	0	0	0	511	511	0	0	
1	0	0	0	0	515	508	0	0	
2	0	0	0	0	519	510	0	0	
3	0	0	0	0	519	511	0	0	
4	0	0	0	0	513	511	0	0	
5	0	0	0	0	511	512	0	0	
6	0	0	0	0	511	511	0	0	
7	0	0	0	0	511	509	0	0	
8	0	0	0	0	507	511	0	0	
9	0	0	0	0	505	511	0	0	
10	0	0	0	0	504	510	0	0	
11	0	0	0	0	508	508	0	0	
12	0	0	0	0	507	510	0	0	
13	0	0	0	0	503	511	0	0	
14	0	0	0	0	503	511	0	0	
15	0	0	0	0	501	510	0	0	
0	0	0	0	0	505	510	0	0	
1	0	0	0	0	507	511	0	0	
2	0	0	0	0	508	511	0	0	
3	0	0	0	0	508	511	0	0	
4	0	0	0	0	509	513	0	0	
5	0	0	0	0	511	511	0	0	
6	0	0	0	0	513	511	0	0	
7	0	0	0	0	513	512	0	0	
8	0	0	0	0	512	509	0	0	
9	0	0	0	0	513	510	0	0	
10	0	0	0	0	512	511	0	0	
11	0	0	0	0	509	510	0	0	
12	0	0	0	0	510	511	0	0	
13	0	0	0	0	509	512	0	0	
14	0	0	0	0	506	511	0	0	
15	0	0	0	0	507	511	0	0	
0	0	0	0	0	504	510	0	0	
1	0	0	0	0	500	510	0	0	
2	0	0	0	0	502	510	0	0	
3	0	0	0	0	505	508	0	0	
4	0	0	0	0	508	510	0	0	
5	0	0	0	0	502	510	0	0	
6	0	0	0	0	501	511	0	0	
7	0	0	0	0	512	510	0	0	
8	0	0	0	0	521	510	0	0	
9	0	0	0	0	517	512	0	0	
10	0	0	0	0	511	510	0	0	
11	0	0	0	0	512	511	0	0	
12	0	0	0	0	511	512	0	0	
13	0	0	0	0	511	511	0	0	
14	0	0	0	0	513	511	0	0	
15	0	0	0	0	512	509	0	0	
0	0	0	0	0	519	509	0	0	
1	0	0	0	0	517	512	0	0	
2	0	0	0	0	501	511	0	0	
3	0	0	0	0	496	510	0	0	
4	0	0	0	0	495	511	0	0	
5	0	0	0	0	499	512	0	0	
6	0	0	0	0	501	509	0	0	
7	0	0	0	0	503	512	0	0	
8	0	0	0	0	512	511	0	0	
9	0	0	0	0	511	511	0	0	
10	0	0	0	0	505	509	0	0	
11	0	0	0	0	508	509	0	0	
12	0	0	0	0	514	509	0	0	
13	0	0	0	0	515	510	0	0	
14	0	0	0	0	518	512	0	0	
15	0	0	0	0	516	509	0	0	
0	0	0	0	0	514	512	0	0	
1	0	0	0	0	512	512	0	0	
2	0	0	0	0	512	511	0	0	
3	0	0	0	0	512	513	0	0	
4	0	0	0	0	503	510	0	0	
5	0	0	0	0	503	511	0	0	
6	0	0	0	0	504	509	0	0	
7	0	0	0	0	503	509	0	0	
8	0	0	0	0	501	509	0	0	
9	0	0	0	0	504	510	0	0	
10	0	0	0	0	504	512	0	0	
11	0	0	0	0	505	510	0	0	
12	0	0	0	0	503	510	0	0	
13	0	0	0	0	503	510	0	0	
14	0	0	0	0	507	510	0	0	
15	0	0	0	0	513	511	0	0	
0	0	0	0	0	515	510	0	0	
1	0	0	0	0	510	509	0	0	
2	0	0	0	0	515	509	0	0	
3	0	0	0	0	515	509	0	0	
4	0	0	0	0	513	513	0	0	
5	0	0	0	0	513	512	0	0	
6	0	0	0	0	509	510	0	0	
7	0	0	0	0	507	510	0	0	
8	0	0	0	0	512	509	0	0	
9	0	0	0	0	509	511	0	0	
10	0	0	0	0	506	511	0	0	
11	0	0	0	0	506	511	0	0	
12	0	0	0	0	503	511	0	0	
13	0	0	0	0	500	510	0	0	
14	0	0	0	0	499	510	0	0	
15	0	0	0	0	503	511	0	0	
0	0	0	0	0	504	511	0	0	
1	0	0	0	0	506	509	0	0	
2	0	0	0	0	511	509	0	0	
3	0	0	0	0	511	510	0	0	
4	0	0	0	0	519	510	0	0	
5	0	0	0	0	519	509	0	0	
6	0	0	0	0	512	510	0	0	
7	0	0	0	0	513	510	0	0	
8	0	0	0	0	514	511	0	0	
9	0	0	0	0	511	510	0	0	
10	0	0	0	0	513	510	0	0	
11	0	0	0	0	516	511	0	0	
12	0	0	0	0	504	511	0	0	
13	0	0	0	0	505	512	0	0	
14	0	0	0	0	498	512	0	0	
15	0	0	0	0	495	509	0	0	
0	0	0	0	0	498	509	0	0	
1	0	0	0	0	499	509	0	0	
2	0	0	0	0	510	511	0	0	
3	0	0	0	0	508	512	0	0	
4	0	0	0	0	507	511	0	0	
5	0	0	0	0	515	510	0	0	
6	0	0	0	0	517	512	0	0	
7	0	0	0	0	513	510	0	0	
8	0	0	0	0	525	512	0	0	
9	0	0	0	0	513	511	0	0	
10	0	0	0	0	511	508	0	0	
11	0	0	0	0	513	510	0	0	
12	0	0	0	0	509	511	0	0	
13	0	0	0	0	496	512	0	0	
14	0	0	0	0	502	511	0	0	
15	0	0	0	0	506	511	0	0	
0	0	0	0	0	504	511	0	0	
1	0	0	0	0	508	509	0	0	
2	0	0	0	0	504	510	0	0	
3	0	0	0	0	500	511	0	0	
4	0	0	0	0	499	511	0	0	
5	0	0	0	0	501	510	0	0	
6	0	0	0	0	513	511	0	0	
7	0	0	0	0	509	510	0	0	
8	0	0	0	0	509	509	0	0	
9	0	0	0	0	516	512	0	0	
10	0	0	0	0	523	510	0	0	
11	0	0	0	0	516	509	0	0	
12	0	0	0	0	506	509	0	0	
13	0	0	0	0	505	510	0	0	
14	0	0	0	0	507	511	0	0	
15	0	0	0	0	511	513	0	0	
0	0	0	0	0	512	510	0	0	
1	0	0	0	0	511	509	0	0	
2	0	0	0	0	510	512	0	0	
3	0	0	0	0	506	511	0	0	
4	0	0	0	0	503	510	0	0	
5	0	0	0	0	502	510	0	0	
6	0	0	0	0	503	508	0	0	
7	0	0	0	0	506	508	0	0	
8	0	0	0	0	513	509	0	0	
9	0	0	0	0	515	510	0	0	
10	0	0	0	0	509	512	0	0	
11	0	0	0	0	508	510	0	0	
12	0	0	0	0	507	512	0	0	
13	0	0	0	0	506	511	0	0	
14	0	0	0	0	510	508	0	0	
15	0	0	0	0	511	510	0	0	
0	0	0	0	0	510	510	0	0	
1	0	0	0	0	505	511	0	0	
2	0	0	0	0	508	509	0	0	
3	0	0	0	0	509	511	0	0	
4	0	0	0	0	516	512	0	0	
5	0	0	0	0	519	510	0	0	
6	0	0	0	0	517	511	0	0	
7	0	0	0	0	513	512	0	0	
8	0	0	0	0	505	510	0	0	
9	0	0	0	0	505	509	0	0	
10	0	0	0	0	506	512	0	0	
11	0	0	0	0	507	511	0	0	
12	0	0	0	0	488	509	0	0	
13	0	0	0	0	485	507	0	0	
14	0	0	0	0	492	508	0	0	
15	0	0	0	0	502	509	0	0	
0	0	0	0	0	507	512	0	0	
1	0	0	0	0	516	512	0	0	
2	0	0	0	0	534	511	0	0	
3	0	0	0	0	518	510	0	0	
4	0	0	0	0	512	513	0	0	
5	0	0	0	0	513	513	0	0	
6	0	0	0	0	517	510	0	0	
7	0	0	0	0	511	509	0	0	
8	0	0	0	0	518	512	0	0	
9	0	0	0	0	517	512	0	0	
10	0	0	0	0	508	510	0	0	
11	0	0	0	0	504	510	0	0	
12	0	0	0	0	505	512	0	0	
13	0	0	0	0	506	511	0	0	
14	0	0	0	0	504	511	0	0	
15	0	0	0	0	507	511	0	0	
0	0	0	0	0	505	511	0	0	
1	0	0	0	0	501	510	0	0	
2	0	0	0	0	500	509	0	0	
3	0	0	0	0	502	509	0	0	
4	0	0	0	0	505	510	0	0	
5	0	0	0	0	507	509	0	0	
6	0	0	0	0	507	511	0	0	
7	0	0	0	0	507	509	0	0	
8	0	0	0	0	512	510	0	0	
9	0	0	0	0	511	510	0	0	
10	0	0	0	0	519	512	0	0	
11	0	0	0	0	515	513	0	0	
12	0	0	0	0	517	512	0	0	
13	0	0	0	0	514	511	0	0	
14	0	0	0	0	510	508	0	0	
15	0	0	0	0	511	511	1	0	
0	0	0	0	0	507	510	6	0	
1	0	0	0	0	503	510	6	0	
2	0	0	0	0	504	511	6	0	
3	0	0	0	0	505	510	6	0	
4	0	0	0	0	503	509	6	0	
5	0	0	0	0	507	509	7	0	
6	0	0	0	0	503	509	6	0	
7	0	0	0	0	508	512	7	0	
8	0	0	0	0	508	513	8	0	
9	0	0	0	0	507	510	7	0	
10	0	0	0	0	506	509	8	0	
11	0	0	0	0	509	511	8	0	
12	0	0	0	0	510	511	7	0	
13	0	0	0	0	512	512	8	0	
14	0	0	0	0	515	511	10	0	
15	0	0	0	0	515	512	11	0	
0	0	0	0	0	514	511	13	0	
1	0	0	0	0	512	510	13	0	
2	0	0	0	0	511	509	12	0	
3	0	0	0	0	506	511	14	0	
4	0	0	0	0	507	510	12	0	
5	0	0	0	0	505	511	11	0	
6	0	0	0	0	506	509	11	0	
7	0	0	0	0	511	511	13	0	
8	0	0	0	0	509	511	13	0	
9	0	0	0	0	505	510	14	0	
10	0	0	0	0	503	512	14	0	
11	0	0	0	0	504	509	14	0	
12	0	0	0	0	505	510	14	0	
13	0	0	0	0	505	510	14	0	
14	0	0	0	0	506	512	14	0	
15	0	0	0	0	510	511	14	0	
0	0	0	0	0	510	510	14	0	
1	0	0	0	0	513	511	14	0	
2	0	0	0	0	514	512	14	0	
3	0	0	0	0	515	511	13	0	
4	0	0	0	0	515	510	13	0	
5	0	0	0	0	513	511	13	0	
6	0	0	0	0	511	512	14	0	
7	0	0	0	0	508	510	13	0	
8	0	0	0	0	509	510	13	0	
9	0	0	0	0	509	510	14	0	
10	0	0	0	0	507	509	14	0	
11	0	0	0	0	505	513	14	0	
12	0	0	0	0	504	511	14	0	
13	0	0	0	0	504	510	14	0	
14	0	0	0	0	509	511	14	0	
15	0	0	0	0	503	510	14	0	
0	0	0	0	0	503	510	13	0	
1	0	0	0	0	507	510	13	0	
2	0	0	0	0	508	511	13	0	
3	0	0	0	0	511	511	12	0	
4	0	0	0	0	510	511	10	0	
5	0	0	0	0	511	511	13	0	
6	0	0	0	0	514	511	10	0	
7	0	0	0	0	515	510	10	0	
8	0	0	0	0	515	512	10	0	
9	0	0	0	0	514	512	10	0	
10	0	0	0	0	512	510	9	0	
11	0	0	0	0	507	508	7	0	
12	0	0	0	0	503	509	9	0	
13	0	0	0	0	505	511	7	0	
14	0	0	0	0	505	509	7	0	
15	0	0	0	0	503	510	8	0	
0	0	0	0	0	505	513	10	0	
1	0	0	0	0	506	510	5	0	
2	0	0	0	0	507	508	9	0	
3	0	0	0	0	505	511	8	0	
4	0	0	0	0	506	510	8	0	
5	0	0	0	0	507	510	4	0	
6	0	0	0	0	508	511	6	0	
7	0	0	0	0	510	511	7	0	
8	0	0	0	0	511	510	10	0	
9	0	0	0	0	511	510	11	0	
10	0	0	0	0	514	510	5	0	
11	0	0	0	0	515	510	7	0	
12	0	0	0	0	512	511	9	0	
13	0	0	0	0	512	514	8	0	
14	0	0	0	0	513	511	7	0	
15	0	0	0	0	509	511	8	0	
0	0	0	0	0	509	508	6	0	
1	0	0	0	0	507	510	12	0	
2	0	0	0	0	506	511	4	0	
3	0	0	0	0	506	509	6	0	
4	0	0	0	0	504	510	5	0	
5	0	0	0	0	504	512	7	0	
6	0	0	0	0	502	513	8	0	
7	0	0	0	0	502	510	8	0	
8	0	0	0	0	504	509	7	0	
9	0	0	0	0	504	511	7	0	
10	0	0	0	0	505	509	7	0	
11	0	0	0	0	510	509	7	0	
12	0	0	0	0	512	510	8	0	
13	0	0	0	0	521	512	7	0	
14	0	0	0	0	526	511	7	0	
15	0	0	0	0	515	511	7	0	
0	0	0	0	0	512	512	7	0	
1	0	0	0	0	512	510	7	0	
2	0	0	0	0	511	511	7	0	
3	0	0	0	0	509	511	7	0	
4	0	0	0	0	505	510	7	0	
5	0	0	0	0	502	511	6	0	
6	0	0	0	0	502	511	6	0	
7	0	0	0	0	503	513	7	0	
8	0	0	0	0	504	511	7	0	
9	0	0	0	0	503	510	7	0	
10	0	0	0	0	502	511	7	0	
11	0	0	0	0	503	508	6	0	
12	0	0	0	0	504	510	7	0	
13	0	0	0	0	505	507	5	0	
14	0	0	0	0	503	509	7	0	
15	0	0	0	0	508	508	7	0	
0	0	0	0	0	518	508	7	0	
1	0	0	0	0	518	510	6	0	
2	0	0	0	0	524	511	7	0	
3	0	0	0	0	518	512	6	0	
4	0	0	0	0	519	511	7	0	
5	0	0	0	0	518	512	6	0	
6	0	0	0	0	508	512	7	0	
7	0	0	0	0	503	512	6	0	
8	0	0	0	0	501	511	5	0	
9	0	0	0	0	501	510	5	0	
10	0	0	0	0	503	511	6	0	
11	0	0	0	0	506	511	6	0	
12	0	0	0	0	506	510	0	0	
13	0	0	0	0	503	511	0	0	
14	0	0	0	0	504	512	0	0	
15	0	0	0	0	503	509	0	0	
0	0	0	0	0	504	510	0	0	
1	0	0	0	0	506	511	0	0	
2	0	0	0	0	508	510	0	0	
3	0	0	0	0	509	509	0	0	
4	0	0	0	0	511	512	0	0	
5	0	0	0	0	513	512	0	0	
6	0	0	0	0	514	513	0	0	
7	0	0	0	0	514	511	0	0	
8	0	0	0	0	515	510	0	0	
9	0	0	0	0	512	510	0	0	
10	0	0	0	0	513	510	0	0	
11	0	0	0	0	512	511	0	0	
12	0	0	0	0	505	510	0	0	
13	0	0	0	0	507	511	0	0	
14	0	0	0	0	507	512	0	0	
15	0	0	0	0	507	510	0	0	
0	0	0	0	0	504	509	0	0	
1	0	0	0	0	505	510	0	0	
2	0	0	0	0	505	510	0	0	
3	0	0	0	0	505	511	0	0	
4	0	0	0	0	505	510	0	0	
5	0	0	0	0	507	510	0	0	
6	0	0	0	0	506	508	0	0	
7	0	0	0	0	509	510	0	0	
8	0	0	0	0	511	510	0	0	
9	0	0	0	0	510	512	0	0	
10	0	0	0	0	513	510	0	0	
11	0	0	0	0	517	512	0	0	
12	0	0	0	0	513	512	0	0	
13	0	0	0	0	515	510	0	0	
14	0	0	0	0	511	509	0	0	
15	0	0	0	0	510	512	0	0	
0	0	0	0	0	507	511	0	0	
1	0	0	0	0	505	511	0	0	
2	0	0	0	0	504	511	0	0	
3	0	0	0	0	507	509	0	0	
4	0	0	0	0	504	509	0	0	
5	0	0	0	0	502	510	0	0	
6	0	0	0	0	503	512	0	0	
7	0	0	0	0	502	512	0	0	
8	0	0	0	0	504	510	0	0	
9	0	0	0	0	504	511	0	0	
10	0	0	0	0	508	513	0	0	
11	0	0	0	0	516	511	0	0	
12	0	0	0	0	525	511	0	0	
13	0	0	0	0	524	510	0	0	
14	0	0	0	0	518	511	0	0	
15	0	0	0	0	515	511	0	0	
0	0	0	0	0	510	510	0	0	
1	0	0	0	0	506	510	0	0	
2	0	0	0	0	503	510	0	0	
3	0	0	0	0	506	510	0	0	
4	0	0	0	0	505	513	0	0	
5	0	0	0	0	505	511	0	0	
6	0	0	0	0	505	511	0	0	
7	0	0	0	0	505	512	0	0	
8	0	0	0	0	505	507	0	0	
9	0	0	0	0	502	510	0	0	
10	0	0	0	0	503	512	0	0	
11	0	0	0	0	505	512	0	0	
12	0	0	0	0	505	510	0	0	
13	0	0	0	0	507	509	0	0	
14	0	0	0	0	509	509	0	0	
15	0	0	0	0	511	510	0	0	
0	0	0	0	0	511	510	0	0	
1	0	0	0	0	511	510	0	0	
2	0	0	0	0	513	510	0	0	
3	0	0	0	0	513	509	0	0	
4	0	0	0	0	513	511	0	0	
5	0	0	0	0	511	509	0	0	
6	0	0	0	0	511	510	0	0	
7	0	0	0	0	509	510	0	0	
8	0	0	0	0	508	511	0	0	
9	0	0	0	0	507	513	0	0	
10	0	0	0	0	507	511	0	0	
11	0	0	0	0	508	508	0	0	
12	0	0	0	0	499	508	0	0	
13	0	0	0	0	500	510	0	0	
14	0	0	0	0	502	510	0	0	
15	0	0	0	0	504	511	0	0	
0	0	0	0	0	507	511	0	0	
1	0	0	0	0	510	510	0	0	
2	0	0	0	0	525	513	0	0	
3	0	0	0	0	516	512	0	0	
4	0	0	0	0	508	511	0	0	
5	0	0	0	0	509	509	0	0	
6	0	0	0	0	510	510	0	0	
7	0	0	0	0	511	510	0	0	
8	0	0	0	0	511	510	0	0	
9	0	0	0	0	509	510	0	0	
10	0	0	0	0	508	511	0	0	
11	0	0	0	0	510	510	0	0	
12	0	0	0	0	509	512	0	0	
13	0	0	0	0	505	510	0	0	
14	0	0	0	0	505	510	0	0	
15	0	0	0	0	505	511	0	0	
0	0	0	0	0	505	511	0	0	
1	0	0	0	0	505	511	0	0	
2	0	0	0	0	505	510	0	0	
3	0	0	0	0	505	508	0	0	
4	0	0	0	0	504	510	0	0	
5	0	0	0	0	507	509	0	0	
6	0	0	0	0	506	511	0	0	
7	0	0	0	0	508	512	0	0	
8	0	0	0	0	506	507	0	0	
9	0	0	0	0	512	511	0	0	
10	0	0	0	0	512	512	0	0	
11	0	0	0	0	515	513	0	0	
12	0	0	0	0	517	512	0	0	
13	0	0	0	0	521	513	0	0	
14	0	0	0	0	518	512	0	0	
15	0	0	0	0	509	510	0	0	
0	0	0	0	0	507	509	0	0	
1	0	0	0	0	505	512	0	0	
2	0	0	0	0	504	512	0	0	
3	0	0	0	0	506	513	0	0	
4	0	0	0	0	502	510	0	0	
5	0	0	0	0	505	512	0	0	
6	0	0	0	0	503	511	0	0	
7	0	0	0	0	499	510	0	0	
8	0	0	0	0	504	509	0	0	
9	0	0	0	0	507	509	0	0	
10	0	0	0	0	515	511	0	0	
11	0	0	0	0	514	510	0	0	
12	0	0	0	0	510	509	0	0	
13	0	0	0	0	507	510	0	0	
14	0	0	0	0	512	511	0	0	
15	0	0	0	0	515	511	0	0	
0	0	0	0	0	516	511	0	0	
1	0	0	0	0	511	511	0	0	
2	0	0	0	0	514	514	0	0	
3	0	0	0	0	512	512	0	0	
4	0	0	0	0	507	511	0	0	
5	0	0	0	0	505	510	0	0	
6	0	0	0	0	504	509	0	0	
7	0	0	0	0	505	510	0	0	
8	0	0	0	0	504	508	0	0	
9	0	0	0	0	503	510	0	0	
10	0	0	0	0	503	510	0	0	
11	0	0	0	0	507	510	0	0	
12	0	0	0	0	504	508	0	0	
13	0	0	0	0	503	512	0	0	
14	0	0	0	0	507	511	0	0	
15	0	0	0	0	507	511	0	0	
0	0	0	0	0	511	512	0	0	
1	0	0	0	0	514	511	0	0	
2	0	0	0	0	516	511	0	0	
3	0	0	0	0	515	507	0	0	
4	0	0	0	0	515	508	0	0	
5	0	0	0	0	514	511	0	0	
6	0	0	0	0	511	512	0	0	
7	0	0	0	0	508	511	0	0	
8	0	0	0	0	508	511	0	0	
9	0	0	0	0	504	512	0	0	
10	0	0	0	0	505	510	0	0	
11	0	0	0	0	507	512	0	0	
12	0	0	0	0	502	511	0	0	
13	0	0	0	0	505	508	0	0	
14	0	0	0	0	505	510	0	0	
15	0	0	0	0	506	511	0	0	
0	0	0	0	0	504	511	0	0	
1	0	0	0	0	508	510	0	0	
2	0	0	0	0	508	513	0	0	
3	0	0	0	0	510	512	0	0	
4	0	0	0	0	509	510	0	0	
5	0	0	0	0	510	511	0	0	
6	0	0	0	0	511	510	0	0	
7	0	0	0	0	515	513	0	0	
8	0	0	0	0	513	512	0	0	
9	0	0	0	0	515	511	0	0	
10	0	0	0	0	512	508	0	0	
11	0	0	0	0	512	511	0	0	
12	0	0	0	0	510	509	0	0	
13	0	0	0	0	509	511	0	0	
14	0	0	0	0	506	512	0	0	
15	0	0	0	0	506	511	0	0	
0	0	0	0	0	504	511	0	0	
1	0	0	0	0	504	509	0	0	
2	0	0	0	0	504	509	0	0	
3	0	0	0	0	507	509	0	0	
4	0	0	0	0	505	508	0	0	
5	0	0	0	0	505	509	0	0	
6	0	0	0	0	504	510	0	0	
7	0	0	0	0	505	511	0	0	
8	0	0	0	0	507	511	0	0	
9	0	0	0	0	508	510	0	0	
10	0	0	0	0	512	510	0	0	
11	0	0	0	0	515	511	0	0	
12	0	0	0	0	518	512	0	0	
13	0	0	0	0	521	512	0	0	
14	0	0	0	0	517	511	0	0	
15	0	0	0	0	503	511	0	0	
0	0	0	0	0	501	511	0	0	
1	0	0	0	0	502	512	0	0	
2	0	0	0	0	508	510	0	0	
3	0	0	0	0	514	509	0	0	
4	0	0	0	0	514	509	0	0	
5	0	0	0	0	519	511	0	0	
6	0	0	0	0	503	510	0	0	
7	0	0	0	0	496	510	0	0	
8	0	0	0	0	500	508	0	0	
9	0	0	0	0	504	511	0	0	
10	0	0	0	0	507	512	0	0	
11	0	0	0	0	509	512	0	0	
12	0	0	0	0	512	509	0	0	
13	0	0	0	0	515	510	0	0	
14	0	0	0	0	512	511	0	0	
15	0	0	0	0	513	509	0	0	
0	0	0	0	0	513	512	0	0	
1	0	0	0	0	511	511	0	0	
2	0	0	0	0	511	514	0	0	
3	0	0	0	0	511	510	0	0	
4	0	0	0	0	509	512	0	0	
5	0	0	0	0	507	511	0	0	
6	0	0	0	0	505	513	0	0	
7	0	0	0	0	504	511	0	0	
8	0	0	0	0	500	508	0	0	
9	0	0	0	0	503	508	0	0	
10	0	0	0	0	504	510	0	0	
11	0	0	0	0	504	510	0	0	
12	0	0	0	0	505	509	0	0	
13	0	0	0	0	505	511	0	0	
14	0	0	0	0	507	510	0	0	
15	0	0	0	0	511	511	0	0	
0	0	0	0	0	512	511	0	0	
1	0	0	0	0	514	510	0	0	
2	0	0	0	0	515	510	0	0	
3	0	0	0	0	516	510	0	0	
4	0	0	0	0	514	510	0	0	
5	0	0	0	0	513	512	0	0	
6	0	0	0	0	513	511	0	0	
7	0	0	0	0	509	511	0	0	
8	0	0	0	0	507	512	0	0	
9	0	0	0	0	508	509	0	0	
10	0	0	0	0	507	510	0	0	
11	0	0	0	0	506	512	0	0	
12	0	0	0	0	505	511	0	0	
13	0	0	0	0	504	510	0	0	
14	0	0	0	0	504	510	0	0	
15	0	0	0	0	505	509	0	0	
0	0	0	0	0	505	511	0	0	
1	0	0	0	0	503	509	0	0	
2	0	0	0	0	506	510	0	0	
3	0	0	0	0	511	510	0	0	
4	0	0	0	0	511	510	0	0	
5	0	0	0	0	514	511	0	0	
6	0	0	0	0	513	511	0	0	
7	0	0	0	0	516	512	0	0	
8	0	0	0	0	513	511	0	0	
9	0	0	0	0	510	513	0	0	
10	0	0	0	0	510	511	0	0	
11	0	0	0	0	509	510	0	0	
12	0	0	0	0	511	510	0	0	
13	0	0	0	0	508	511	0	0	
14	0	0	0	0	506	509	0	0	
15	0	0	0	0	502	511	0	0	
0	0	0	0	0	502	510	0	0	
1	0	0	0	0	502	508	0	0	
2	0	0	0	0	504	510	0	0	
3	0	0	0	0	505	509	0	0	
4	0	0	0	0	506	512	0	0	
5	0	0	0	0	507	510	0	0	
6	0	0	0	0	508	511	0	0	
7	0	0	0	0	508	508	0	0	
8	0	0	0	0	511	509	0	0	
9	0	0	0	0	511	509	0	0	
10	0	0	0	0	512	511	0	0	
11	0	0	0	0	516	512	0	0	
12	0	0	0	0	518	511	0	0	
13	0	0	0	0	513	511	0	0	
14	0	0	0	0	523	512	0	0	
15	0	0	0	0	512	512	0	0	
0	0	0	0	0	506	509	0	0	
1	0	0	0	0	499	512	0	0	
2	0	0	0	0	503	512	0	0	
3	0	0	0	0	507	510	0	0	
4	0	0	0	0	510	509	0	0	
5	0	0	0	0	504	509	0	0	
6	0	0	0	0	499	509	0	0	
7	0	0	0	0	501	510	0	0	
8	0	0	0	0	505	510	0	0	
9	0	0	0	0	507	511	0	0	
10	0	0	0	0	507	511	0	0	
11	0	0	0	0	509	511	0	0	
12	0	0	0	0	509	510	0	0	
13	0	0	0	0	512	510	0	0	
14	0	0	0	0	515	510	0	0	
15	0	0	0	0	513	512	0	0	
0	0	0	0	0	514	511	0	0	
1	0	0	0	0	516	511	0	0	
2	0	0	0	0	513	510	0	0	
3	0	0	0	0	510	511	0	0	
4	0	0	0	0	507	511	0	0	
5	0	0	0	0	505	512	0	0	
6	0	0	0	0	505	510	0	0	
7	0	0	0	0	504	510	0	0	
8	0	0	0	0	503	513	0	0	
9	0	0	0	0	504	510	0	0	
10	0	0	0	0	503	507	0	0	
11	0	0	0	0	503	508	0	0	
12	0	0	0	0	503	511	0	0	
13	0	0	0	0	508	508	0	0	
14	0	0	0	0	509	511	0	0	
15	0	0	0	0	510	511	0	0	
0	0	0	0	0	515	509	0	0	
1	0	0	0	0	518	511	0	0	
2	0	0	0	0	515	510	0	0	
3	0	0	0	0	512	510	0	0	
4	0	0	0	0	511	510	0	0	
5	0	0	0	0	511	510	0	0	
6	0	0	0	0	511	512	0	0	
7	0	0	0	0	512	512	0	0	
8	0	0	0	0	511	511	0	0	
9	0	0	0	0	510	510	0	0	
10	0	0	0	0	505	509	0	0	
11	0	0	0	0	503	511	0	0	
12	0	0	0	0	503	511	0	0	
13	0	0	0	0	504	509	0	0	
14	0	0	0	0	504	509	0	0	
15	0	0	0	0	504	511	0	0	
0	0	0	0	0	506	510	0	0	
1	0	0	0	0	507	509	0	0	
2	0	0	0	0	510	511	0	0	
3	0	0	0	0	509	509	0	0	
4	0	0	0	0	512	512	0	0	
5	0	0	0	0	512	510	0	0	
6	0	0	0	0	512	512	0	0	
7	0	0	0	0	516	513	0	0	
8	0	0	0	0	514	512	0	0	
9	0	0	0	0	511	511	0	0	
10	0	0	0	0	510	512	0	0	
11	0	0	0	0	508	510	0	0	
12	0	0	0	0	509	512	0	0	
13	0	0	0	0	504	512	0	0	
14	0	0	0	0	499	512	0	0	
15	0	0	0	0	499	510	0	0	
0	0	0	0	0	501	510	0	0	
1	0	0	0	0	504	510	0	0	
2	0	0	0	0	504	509	0	0	
3	0	0	0	0	512	508	0	0	
4	0	0	0	0	521	508	0	0	
5	0	0	0	0	525	510	0	0	
6	0	0	0	0	509	512	0	0	
7	0	0	0	0	505	512	0	0	
8	0	0	0	0	506	508	0	0	
9	0	0	0	0	507	510	0	0	
10	0	0	0	0	512	510	0	0	
11	0	0	0	0	512	509	0	0	
12	0	0	0	0	513	511	0	0	
13	0	0	0	0	511	511	0	0	
14	0	0	0	0	510	513	0	0	
15	0	0	0	0	509	513	0	0	
0	0	0	0	0	508	511	0	0	
1	0	0	0	0	508	511	0	0	
2	0	0	0	0	504	510	0	0	
3	0	0	0	0	503	508	0	0	
4	0	0	0	0	502	509	0	0	
5	0	0	0	0	502	509	0	0	
6	0	0	0	0	501	510	0	0	
7	0	0	0	0	505	509	0	0	
8	0	0	0	0	507	510	0	0	
9	0	0	0	0	512	512	0	0	
10	0	0	0	0	516	511	0	0	
11	0	0	0	0	510	511	0	0	
12	0	0	0	0	510	511	0	0	
13	0	0	0	0	510	512	0	0	
14	0	0	0	0	513	510	0	0	
15	0	0	0	0	512	511	0	0	
0	0	0	0	0	514	512	0	0	
1	0	0	0	0	513	510	0	0	
2	0	0	0	0	511	511	0	0	
3	0	0	0	0	510	510	0	0	
4	0	0	0	0	506	510	0	0	
5	0	0	0	0	506	511	0	0	
6	0	0	0	0	505	511	0	0	
7	0	0	0	0	507	512	0	0	
8	0	0	0	0	505	511	0	0	
9	0	0	0	0	501	509	0	0	
10	0	0	0	0	502	508	0	0	
11	0	0	0	0	500	509	0	0	
12	0	0	0	0	503	508	0	0	
13	0	0	0	0	506	511	0	0	
14	0	0	0	0	509	508	0	0	
15	0	0	0	0	518	508	0	0	
0	0	0	0	0	513	512	0	0	
1	0	0	0	0	512	510	0	0	
2	0	0	0	0	513	512	0	0	
3	0	0	0	0	514	513	0	0	
4	0	0	0	0	512	510	0	0	
5	0	0	0	0	510	510	0	0	
6	0	0	0	0	513	511	0	0	
7	0	0	0	0	514	508	0	0	
8	0	0	0	0	508	512	0	0	
9	0	0	0	0	505	511	0	0	
10	0	0	0	0	502	510	0	0	
11	0	0	0	0	504	511	0	0	
12	0	0	0	0	502	510	0	0	
13	0	0	0	0	506	512	0	0	
14	0	0	0	0	506	512	0	0	
15	0	0	0	0	506	509	0	0	
0	0	0	0	0	505	510	0	0	
1	0	0	0	0	506	511	0	0	
2	0	0	0	0	508	511	0	0	
3	0	0	0	0	509	511	0	0	
4	0	0	0	0	511	509	0	0	
5	0	0	0	0	510	510	0	0	
6	0	0	0	0	515	509	0	0	
7	0	0	0	0	516	511	0	0	
8	0	0	0	0	515	511	0	0	
9	0	0	0	0	514	512	0	0	
10	0	0	0	0	511	513	0	0	
11	0	0	0	0	508	510	0	0	
12	0	0	0	0	508	510	0	0	
13	0	0	0	0	509	512	0	0	
14	0	0	0	0	506	512	0	0	
15	0	0	0	0	506	510	0	0	
0	0	0	0	0	504	511	0	0	
1	0	0	0	0	503	509	0	0	
2	0	0	0	0	503	509	0	0	
3	0	0	0	0	503	508	0	0	
4	0	0	0	0	504	511	0	0	
5	0	0	0	0	503	509	0	0	
6	0	0	0	0	506	510	0	0	
7	0	0	0	0	511	508	0	0	
8	0	0	0	0	513	511	0	0	
9	0	0	0	0	516	511	0	0	
10	0	0	0	0	521	512	0	0	
11	0	0	0	0	523	513	0	0	
12	0	0	0	0	512	513	0	0	
13	0	0	0	0	504	511	0	0	
14	0	0	0	0	505	510	0	0	
15	0	0	0	0	508	510	0	0	
0	0	0	0	0	510	511	0	0	
1	0	0	0	0	504	511	0	0	
2	0	0	0	0	507	509	0	0	
3	0	0	0	0	506	506	0	0	
4	0	0	0	0	505	512	0	0	
5	0	0	0	0	508	511	0	0	
6	0	0	0	0	504	511	0	0	
7	0	0	0	0	503	512	0	0	
8	0	0	0	0	505	511	0	0	
9	0	0	0	0	505	511	0	0	
10	0	0	0	0	505	510	0	0	
11	0	0	0	0	510	510	0	0	
12	0	0	0	0	511	510	0	0	
13	0	0	0	0	516	511	0	0	
14	0	0	0	0	513	510	0	0	
15	0	0	0	0	512	512	0	0	
0	0	0	0	0	515	510	0	0	
1	0	0	0	0	512	510	0	0	
2	0	0	0	0	511	511	0	0	
3	0	0	0	0	509	509	0	0	
4	0	0	0	0	509	513	0	0	
5	0	0	0	0	505	511	0	0	
6	0	0	0	0	506	511	0	0	
7	0	0	0	0	506	511	0	0	
8	0	0	0	0	504	510	0	0	
9	0	0	0	0	502	510	0	0	
10	0	0	0	0	503	509	0	0	
11	0	0	0	0	508	508	0	0	
12	0	0	0	0	504	508	0	0	
13	0	0	0	0	507	511	0	0	
14	0	0	0	0	508	508	0	0	
15	0	0	0	0	509	510	0	0	
0	0	0	0	0	512	511	0	0	
1	0	0	0	0	513	510	0	0	
2	0	0	0	0	515	512	0	0	
3	0	0	0	0	512	511	0	0	
4	0	0	0	0	514	511	0	0	
5	0	0	0	0	511	512	0	0	
6	0	0	0	0	511	510	0	0	
7	0	0	0	0	508	511	0	0	
8	0	0	0	0	507	512	0	0	
9	0	0	0	0	507	510	0	0	
10	0	0	0	0	507	511	0	0	
11	0	0	0	0	504	510	0	0	
12	0	0	0	0	503	508	0	0	
13	0	0	0	0	508	511	0	0	
14	0	0	0	0	509	510	0	0	
15	0	0	0	0	502	511	0	0	
0	0	0	0	0	503	510	0	0	
1	0	0	0	0	506	510	0	0	
2	0	0	0	0	507	511	0	0	
3	0	0	0	0	509	510	0	0	
4	0	0	0	0	511	510	0	0	
5	0	0	0	0	514	510	0	0	
6	0	0	0	0	515	511	0	0	
7	0	0	0	0	514	512	0	0	
8	0	0	0	0	508	510	0	0	
9	0	0	0	0	510	510	0	0	
10	0	0	0	0	509	512	0	0	
11	0	0	0	0	509	508	0	0	
12	0	0	0	0	507	509	0	0	
13	0	0	0	0	507	511	0	0	
14	0	0	0	0	508	510	0	0	
15	0	0	0	0	515	508	0	0	
0	0	0	0	0	511	510	0	0	
1	0	0	0	0	509	508	0	0	
2	0	0	0	0	500	509	0	0	
3	0	0	0	0	503	509	0	0	
4	0	0	0	0	502	511	0	0	
5	0	0	0	0	511	511	0	0	
6	0	0	0	0	509	511	0	0	
7	0	0	0	0	505	511	0	0	
8	0	0	0	0	508	510	0	0	
9	0	0	0	0	511	513	0	0	
10	0	0	0	0	512	513	0	0	
11	0	0	0	0	513	511	0	0	
12	0	0	0	0	513	508	0	0	
13	0	0	0	0	514	510	0	0	
14	0	0	0	0	512	511	0	0	
15	0	0	0	0	509	508	0	0	
0	0	0	0	0	507	510	0	0	
1	0	0	0	0	507	508	0	0	
2	0	0	0	0	506	512	0	0	
3	0	0	0	0	507	512	0	0	
4	0	0	0	0	503	513	0	0	
5	0	0	0	0	505	511	0	0	
6	0	0	0	0	504	512	0	0	
7	0	0	0	0	504	509	0	0	
8	0	0	0	0	504	510	0	0	
9	0	0	0	0	504	510	0	0	
10	0	0	0	0	505	509	0	0	
11	0	0	0	0	510	512	0	0	
12	0	0	0	0	512	510	0	0	
13	0	0	0	0	516	511	0	0	
14	0	0	0	0	516	512	0	0	
15	0	0	0	0	515	511	0	0	
0	0	0	0	0	514	510	0	0	
1	0	0	0	0	513	510	0	0	
2	0	0	0	0	511	512	0	0	
3	0	0	0	0	510	511	0	0	
4	0	0	0	0	508	510	0	0	
5	0	0	0	0	506	509	0	0	
6	0	0	0	0	503	509	0	0	
7	0	0	0	0	506	509	0	0	
8	0	0	0	0	502	510	0	0	
9	0	0	0	0	503	513	0	0	
10	0	0	0	0	503	511	0	0	
11	0	0	0	0	505	510	0	0	
12	0	0	0	0	507	511	0	0	
13	0	0	0	0	508	511	0	0	
14	0	0	0	0	510	509	0	0	
15	0	0	0	0	511	512	0	0	
0	0	0	0	0	513	508	0	0	
1	0	0	0	0	511	510	0	0	
2	0	0	0	0	511	510	0	0	
3	0	0	0	0	511	511	0	0	
4	0	0	0	0	512	513	0	0	
5	0	0	0	0	514	512	0	0	
6	0	0	0	0	512	512	0	0	
7	0	0	0	0	515	513	0	0	
8	0	0	0	0	509	510	0	0	
9	0	0	0	0	504	510	0	0	
10	0	0	0	0	503	510	0	0	
11	0	0	0	0	502	511	0	0	
12	0	0	0	0	502	511	0	0	
13	0	0	0	0	504	509	0	0	
14	0	0	0	0	508	508	0	0	
15	0	0	0	0	511	511	0	0	
0	0	0	0	0	507	510	0	0	
1	0	0	0	0	505	510	0	0	
2	0	0	0	0	507	510	0	0	
3	0	0	0	0	509	510	0	0	
4	0	0	0	0	511	509	0	0	
5	0	0	0	0	511	511	0	0	
6	0	0	0	0	512	510	0	0	
7	0	0	0	0	510	512	0	0	
8	0	0	0	0	509	511	0	0	
9	0	0	0	0	511	509	0	0	
10	0	0	0	0	509	511	0	0	
11	0	0	0	0	510	509	0	0	
12	0	0	0	0	510	512	0	0	
13	0	0	0	0	512	508	0	0	
14	0	0	0	0	519	512	0	0	
15	0	0	0	0	510	512	0	0	
0	0	0	0	0	503	512	0	0	
1	0	0	0	0	500	512	0	0	
2	0	0	0	0	501	511	0	0	
3	0	0	0	0	501	509	0	0	
4	0	0	0	0	505	509	0	0	
5	0	0	0	0	507	510	0	0	
6	0	0	0	0	509	507	0	0	
7	0	0	0	0	509	511	0	0	
8	0	0	0	0	512	511	0	0	
9	0	0	0	0	515	511	0	0	
10	0	0	0	0	513	509	0	0	
11	0	0	0	0	511	511	0	0	
12	0	0	0	0	512	510	0	0	
13	0	0	0	0	512	510	0	0	
14	0	0	0	0	511	508	0	0	
15	0	0	0	0	513	509	0	0	
0	0	0	0	0	509	511	0	0	
1	0	0	0	0	505	509	0	0	
2	0	0	0	0	504	511	0	0	
3	0	0	0	0	503	510	0	0	
4	0	0	0	0	501	512	0	0	
5	0	0	0	0	501	512	0	0	
6	0	0	0	0	504	511	0	0	
7	0	0	0	0	504	511	0	0	
8	0	0	0	0	507	510	0	0	
9	0	0	0	0	508	511	0	0	
10	0	0	0	0	508	511	0	0	
11	0	0	0	0	512	511	0	0	
12	0	0	0	0	512	511	0	0	
13	0	0	0	0	513	510	0	0	
14	0	0	0	0	517	511	0	0	
15	0	0	0	0	518	510	0	0	
0	0	0	0	0	515	511	0	0	
1	0	0	0	0	513	510	0	0	
2	0	0	0	0	509	511	0	0	
3	0	0	0	0	509	510	0	0	
4	0	0	0	0	507	511	0	0	
5	0	0	0	0	507	509	0	0	
6	0	0	0	0	508	511	0	0	
7	0	0	0	0	505	511	0	0	
8	0	0	0	0	505	508	0	0	
9	0	0	0	0	502	510	0	0	
10	0	0	0	0	503	510	0	0	
11	0	0	0	0	504	508	0	0	
12	0	0	0	0	505	511	0	0	
13	0	0	0	0	508	511	0	0	
14	0	0	0	0	509	512	0	0	
15	0	0	0	0	510	511	0	0	
0	0	0	0	0	512	512	0	0	
1	0	0	0	0	514	511	0	0	
2	0	0	0	0	512	512	0	0	
3	0	0	0	0	514	512	0	0	
4	0	0	0	0	514	512	0	0	
5	0	0	0	0	511	511	0	0	
6	0	0	0	0	510	510	0	0	
7	0	0	0	0	509	511	0	0	
8	0	0	0	0	510	510	0	0	
9	0	0	0	0	507	510	0	0	
10	0	0	0	0	507	510	0	0	
11	0	0	0	0	507	511	0	0	
12	0	0	0	0	505	510	0	0	
13	0	0	0	0	504	511	0	0	
14	0	0	0	0	500	511	0	0	
15	0	0	0	0	501	510	0	0	
0	0	0	0	0	505	510	0	0	
1	0	0	0	0	508	508	0	0	
2	0	0	0	0	511	509	0	0	
3	0	0	0	0	513	511	0	0	
4	0	0	0	0	511	510	0	0	
5	0	0	0	0	512	509	0	0	
6	0	0	0	0	514	510	0	0	
7	0	0	0	0	514	510	0	0	
8	0	0	0	0	515	511	0	0	
9	0	0	0	0	514	514	0	0	
10	0	0	0	0	511	511	0	0	
11	0	0	0	0	508	510	0	0	
12	0	0	0	0	507	511	0	0	
13	0	0	0	0	506	511	0	0	
14	0	0	0	0	505	511	0	0	
15	0	0	0	0	506	511	0	0	
0	0	0	0	0	504	508	0	0	
1	0	0	0	0	504	510	0	0	
2	0	0	0	0	503	512	0	0	
3	0	0	0	0	505	510	0	0	
4	0	0	0	0	504	509	0	0	
5	0	0	0	0	505	510	0	0	
6	0	0	0	0	505	511	0	0	
7	0	0	0	0	512	511	0	0	
8	0	0	0	0	514	511	0	0	
9	0	0	0	0	513	509	0	0	
10	0	0	0	0	514	510	0	0	
11	0	0	0	0	511	511	0	0	
12	0	0	0	0	514	513	0	0	
13	0	0	0	0	515	510	0	0	
14	0	0	0	0	510	511	0	0	
15	0	0	0	0	508	512	0	0	
0	0	0	0	0	510	511	0	0	
1	0	0	0	0	507	509	0	0	
2	0	0	0	0	504	510	0	0	
3	0	0	0	0	506	511	0	0	
4	0	0	0	0	503	508	0	0	
5	0	0	0	0	504	509	0	0	
6	0	0	0	0	504	510	0	0	
7	0	0	0	0	505	511	0	0	
8	0	0	0	0	505	513	0	0	
9	0	0	0	0	505	511	0	0	
10	0	0	0	0	508	512	0	0	
11	0	0	0	0	512	509	0	0	
12	0	0	0	0	511	508	0	0	
13	0	0	0	0	512	511	0	0	
14	0	0	0	0	513	510	0	0	
15	0	0	0	0	516	510	0	0	
0	0	0	0	0	514	511	0	0	
1	0	0	0	0	513	510	0	0	
2	0	0	0	0	511	511	0	0	
3	0	0	0	0	509	510	0	0	
4	0	0	0	0	506	510	0	0	
5	0	0	0	0	506	511	0	0	
6	0	0	0	0	508	512	0	0	
7	0	0	0	0	504	510	0	0	
8	0	0	0	0	504	509	0	0	
9	0	0	0	0	504	511	0	0	
10	0	0	0	0	506	510	0	0	
11	0	0	0	0	503	509	0	0	
12	0	0	0	0	506	510	0	0	
13	0	0	0	0	507	511	0	0	
14	0	0	0	0	509	508	0	0	
15	0	0	0	0	511	510	0	0	
0	0	0	0	0	511	508	0	0	
1	0	0	0	0	513	511	0	0	
2	0	0	0	0	515	510	0	0	
3	0	0	0	0	513	512	0	0	
4	0	0	0	0	513	512	0	0	
5	0	0	0	0	511	512	0	0	
6	0	0	0	0	511	511	0	0	
7	0	0	0	0	511	511	0	0	
8	0	0	0	0	511	512	0	0	
9	0	0	0	0	508	511	0	0	
10	0	0	0	0	508	511	0	0	
11	0	0	0	0	504	510	0	0	
12	0	0	0	0	503	511	0	0	
13	0	0	0	0	503	510	0	0	
14	0	0	0	0	505	511	0	0	
15	0	0	0	0	505	511	0	0	
0	0	0	0	0	505	509	0	0	
1	0	0	0	0	505	509	0	0	
2	0	0	0	0	510	511	0	0	
3	0	0	0	0	510	510	0	0	
4	0	0	0	0	510	510	0	0	
5	0	0	0	0	513	511	0	0	
6	0	0	0	0	514	511	0	0	
7	0	0	0	0	514	510	0	0	
8	0	0	0	0	515	511	0	0	
9	0	0	0	0	513	512	0	0	
10	0	0	0	0	511	513	0	0	
11	0	0	0	0	511	511	0	0	
12	0	0	0	0	511	511	0	0	
13	0	0	0	0	506	510	0	0	
14	0	0	0	0	504	511	0	0	
15	0	0	0	0	505	511	0	0	
0	0	0	0	0	505	509	0	0	
1	0	0	0	0	503	512	0	0	
2	0	0	0	0	502	509	0	0	
3	0	0	0	0	505	509	0	0	
4	0	0	0	0	506	511	0	0	
5	0	0	0	0	505	509	0	0	
6	0	0	0	0	507	509	0	0	
7	0	0	0	0	512	510	0	0	
8	0	0	0	0	511	510	0	0	
9	0	0	0	0	511	510	0	0	
10	0	0	0	0	511	510	0	0	
11	0	0	0	0	512	513	0	0	
12	0	0	0	0	512	512	0	0	
13	0	0	0	0	513	512	0	0	
14	0	0	0	0	517	511	0	0	
15	0	0	0	0	516	512	0	0	
0	0	0	0	0	509	510	0	0	
1	0	0	0	0	504	510	0	0	
2	0	0	0	0	504	509	0	0	
3	0	0	0	0	506	512	0	0	
4	0	0	0	0	503	511	0	0	
5	0	0	0	0	500	510	0	0	
6	0	0	0	0	503	510	0	0	
7	0	0	0	0	505	510	0	0	
8	0	0	0	0	505	507	0	0	
9	0	0	0	0	508	510	0	0	
10	0	0	0	0	509	513	0	0	
11	0	0	0	0	510	511	0	0	
12	0	0	0	0	511	509	0	0	
13	0	0	0	0	515	510	0	0	
14	0	0	0	0	515	509	0	0	
15	0	0	0	0	514	511	0	0	
0	0	0	0	0	513	511	0	0	
1	0	0	0	0	513	513	0	0	
2	0	0	0	0	511	510	0	0	
3	0	0	0	0	508	510	0	0	
4	0	0	0	0	507	510	0	0	
5	0	0	0	0	504	511	0	0	
6	0	0	0	0	505	510	0	0	
7	0	0	0	0	506	512	0	0	
8	0	0	0	0	507	511	0	0	
9	0	0	0	0	509	509	0	0	
10	0	0	0	0	507	511	0	0	
11	0	0	0	0	499	510	0	0	
12	0	0	0	0	505	510	0	0	
13	0	0	0	0	508	510	0	0	
14	0	0	0	0	509	511	0	0	
15	0	0	0	0	510	509	0	0	
0	0	0	0	0	510	509	0	0	
1	0	0	0	0	511	512	0	0	
2	0	0	0	0	513	511	0	0	
3	0	0	0	0	513	510	0	0	
4	0	0	0	0	514	511	0	0	
5	0	0	0	0	511	511	0	0	
6	0	0	0	0	511	510	0	0	
7	0	0	0	0	510	513	0	0	
8	0	0	0	0	506	511	0	0	
9	0	0	0	0	505	511	0	0	
10	0	0	0	0	505	509	0	0	
11	0	0	0	0	506	512	0	0	
12	0	0	0	0	503	511	0	0	
13	0	0	0	0	505	509	0	0	
14	0	0	0	0	506	509	0	0	
15	0	0	0	0	505	512	0	0	
0	0	0	0	0	505	511	0	0	
1	0	0	0	0	505	509	0	0	
2	0	0	0	0	507	510	0	0	
3	0	0	0	0	512	511	0	0	
4	0	0	0	0	511	512	0	0	
5	0	0	0	0	513	511	0	0	
6	0	0	0	0	513	508	0	0	
7	0	0	0	0	512	512	0	0	
8	0	0	0	0	512	508	0	0	
9	0	0	0	0	512	511	0	0	
10	0	0	0	0	509	508	0	0	
11	0	0	0	0	508	513	0	0	
12	0	0	0	0	506	512	0	0	
13	0	0	0	0	506	510	0	0	
14	0	0	0	0	506	509	0	0	
15	0	0	0	0	504	510	0	0	
0	0	0	0	0	507	509	0	0	
1	0	0	0	0	509	511	0	0	
2	0	0	0	0	513	508	0	0	
3	0	0	0	0	504	510	0	0	
4	0	0	0	0	504	511	0	0	
5	0	0	0	0	504	512	0	0	
6	0	0	0	0	504	511	0	0	
7	0	0	0	0	508	510	0	0	
8	0	0	0	0	512	511	0	0	
9	0	0	0	0	511	511	0	0	
10	0	0	0	0	515	511	0	0	
11	0	0	0	0	516	511	0	0	
12	0	0	0	0	512	510	0	0	
13	0	0	0	0	511	513	0	0	
14	0	0	0	0	507	514	0	0	
15	0	0	0	0	507	513	0	0	
0	0	0	0	0	511	512	0	0	
1	0	0	0	0	507	510	0	0	
2	0	0	0	0	505	511	0	0	
3	0	0	0	0	505	509	0	0	
4	0	0	0	0	503	509	0	0	
5	0	0	0	0	504	509	0	0	
6	0	0	0	0	506	508	0	0	
7	0	0	0	0	505	509	0	0	
8	0	0	0	0	506	510	0	0	
9	0	0	0	0	508	510	0	0	
10	0	0	0	0	510	511	0	0	
11	0	0	0	0	511	510	0	0	
12	0	0	0	0	511	510	0	0	
13	0	0	0	0	514	510	0	0	
14	0	0	0	0	517	511	0	0	
15	0	0	0	0	514	509	0	0	
0	0	0	0	0	515	509	0	0	
1	0	0	0	0	511	511	0	0	
2	0	0	0	0	508	510	0	0	
3	0	0	0	0	508	510	0	0	
4	0	0	0	0	507	513	0	0	
5	0	0	0	0	507	511	0	0	
6	0	0	0	0	503	511	0	0	
7	0	0	0	0	504	512	0	0	
8	0	0	0	0	502	511	0	0	
9	0	0	0	0	503	511	0	0	
10	0	0	0	0	508	508	0	0	
11	0	0	0	0	512	509	0	0	
12	0	0	0	0	505	507	0	0	
13	0	0	0	0	504	512	0	0	
14	0	0	0	0	505	511	0	0	
15	0	0	0	0	510	510	0	0	
0	0	0	0	0	512	509	0	0	
1	0	0	0	0	514	512	0	0	
2	0	0	0	0	514	511	0	0	
3	0	0	0	0	512	511	0	0	
4	0	0	0	0	512	511	0	0	
5	0	0	0	0	512	512	0	0	
6	0	0	0	0	512	511	0	0	
7	0	0	0	0	512	511	0	0	
8	0	0	0	0	510	510	0	0	
9	0	0	0	0	507	510	0	0	
10	0	0	0	0	505	510	0	0	
11	0	0	0	0	504	511	0	0	
12	0	0	0	0	503	510	0	0	
13	0	0	0	0	504	510	0	0	
14	0	0	0	0	505	509	0	0	
15	0	0	0	0	507	511	0	0	
0	0	0	0	0	509	511	0	0	
1	0	0	0	0	508	512	0	0	
2	0	0	0	0	507	510	0	0	
3	0	0	0	0	511	509	0	0	
4	0	0	0	0	511	510	0	0	
5	0	0	0	0	511	509	0	0	
6	0	0	0	0	513	509	0	0	
7	0	0	0	0	514	510	0	0	
8	0	0	0	0	514	510	0	0	
9	0	0	0	0	513	514	0	0	
10	0	0	0	0	511	512	0	0	
11	0	0	0	0	510	513	0	0	
12	0	0	0	0	506	511	0	0	
13	0	0	0	0	504	511	0	0	
14	0	0	0	0	504	510	0	0	
15	0	0	0	0	507	511	0	0	
0	0	0	0	0	503	509	0	0	
1	0	0	0	0	503	508	0	0	
2	0	0	0	0	501	511	0	0	
3	0	0	0	0	504	509	0	0	
4	0	0	0	0	507	509	0	0	
5	0	0	0	0	509	513	0	0	
6	0	0	0	0	510	512	0	0	
7	0	0	0	0	513	511	0	0	
8	0	0	0	0	513	511	0	0	
9	0	0	0	0	511	510	0	0	
10	0	0	0	0	513	510	0	0	
11	0	0	0	0	514	509	0	0	
12	0	0	0	0	514	510	0	0	
13	0	0	0	0	514	513	0	0	
14	0	0	0	0	511	511	0	0	
15	0	0	0	0	509	512	0	0	
0	0	0	0	0	511	509	0	0	
1	0	0	0	0	507	510	0	0	
2	0	0	0	0	502	509	0	0	
3	0	0	0	0	500	511	0	0	
4	0	0	0	0	498	511	0	0	
5	0	0	0	0	502	510	0	0	
6	0	0	0	0	507	510	0	0	
7	0	0	0	0	508	509	0	0	
8	0	0	0	0	518	510	0	0	
9	0	0	0	0	513	511	0	0	
10	0	0	0	0	508	509	0	0	
11	0	0	0	0	509	508	0	0	
12	0	0	0	0	512	510	0	0	
13	0	0	0	0	511	513	0	0	
14	0	0	0	0	512	513	0	0	
15	0	0	0	0	512	511	0	0	
0	0	0	0	0	512	512	0	0	
1	0	0	0	0	510	510	0	0	
2	0	0	0	0	508	512	0	0	
3	0	0	0	0	507	511	0	0	
4	0	0	0	0	509	510	0	0	
5	0	0	0	0	507	512	0	0	
6	0	0	0	0	504	511	0	0	
7	0	0	0	0	505	510	0	0	
8	0	0	0	0	504	512	0	0	
9	0	0	0	0	505	512	0	0	
10	0	0	0	0	506	510	0	0	
11	0	0	0	0	505	510	0	0	
12	0	0	0	0	505	508	0	0	
13	0	0	0	0	508	510	0	0	
14	0	0	0	0	507	509	0	0	
15	0	0	0	0	509	508	0	0	
0	0	0	0	0	513	510	0	0	
1	0	0	0	0	515	509	0	0	
2	0	0	0	0	514	512	0	0	
3	0	0	0	0	513	513	0	0	
4	0	0	0	0	513	511	0	0	
5	0	0	0	0	512	512	0	0	
6	0	0	0	0	511	510	0	0	
7	0	0	0	0	510	511	0	0	
8	0	0	0	0	507	511	0	0	
9	0	0	0	0	509	513	0	0	
10	0	0	0	0	506	511	0	0	
11	0	0	0	0	506	513	0	0	
12	0	0	0	0	504	513	0	0	
13	0	0	0	0	502	508	0	0	
14	0	0	0	0	504	509	0	0	
15	0	0	0	0	505	509	0	0	
0	0	0	0	0	507	508	0	0	
1	0	0	0	0	506	510	0	0	
2	0	0	0	0	509	511	0	0	
3	0	0	0	0	508	510	0	0	
4	0	0	0	0	511	509	0	0	
5	0	0	0	0	512	511	0	0	
6	0	0	0	0	514	510	0	0	
7	0	0	0	0	516	511	0	0	
8	0	0	0	0	515	511	0	0	
9	0	0	0	0	513	512	0	0	
10	0	0	0	0	512	510	0	0	
11	0	0	0	0	508	510	0	0	
12	0	0	0	0	506	509	0	0	
13	0	0	0	0	504	510	0	0	
14	0	0	0	0	505	510	0	0	
15	0	0	0	0	504	508	0	0	
0	0	0	0	0	507	511	0	0	
1	0	0	0	0	507	510	0	0	
2	0	0	0	0	506	510	0	0	
3	0	0	0	0	504	508	0	0	
4	0	0	0	0	503	511	0	0	
5	0	0	0	0	507	510	0	0	
6	0	0	0	0	509	512	0	0	
7	0	0	0	0	512	512	0	0	
8	0	0	0	0	513	510	0	0	
9	0	0	0	0	511	510	0	0	
10	0	0	0	0	512	510	0	0	
11	0	0	0	0	513	509	0	0	
12	0	0	0	0	512	512	0	0	
13	0	0	0	0	511	510	0	0	
14	0	0	0	0	510	512	0	0	
15	0	0	0	0	509	510	0	0	
0	0	0	0	0	508	509	0	0	
1	0	0	0	0	514	511	0	0	
2	0	0	0	0	512	512	0	0	
3	0	0	0	0	503	511	0	0	
4	0	0	0	0	501	509	0	0	
5	0	0	0	0	503	508	0	0	
6	0	0	0	0	506	509	0	0	
7	0	0	0	0	504	509	0	0	
8	0	0	0	0	505	511	0	0	
9	0	0	0	0	507	508	0	0	
10	0	0	0	0	506	512	0	0	
11	0	0	0	0	511	510	0	0	
12	0	0	0	0	508	511	0	0	
13	0	0	0	0	512	510	0	0	
14	0	0	0	0	513	512	0	0	
15	0	0	0	0	518	509	0	0	
0	0	0	0	0	515	510	0	0	
1	0	0	0	0	512	510	0	0	
2	0	0	0	0	509	512	0	0	
3	0	0	0	0	510	511	0	0	
4	0	0	0	0	507	513	0	0	
5	0	0	0	0	506	509	0	0	
6	0	0	0	0	504	511	0	0	
7	0	0	0	0	507	508	0	0	
8	0	0	0	0	504	509	0	0	
9	0	0	0	0	504	510	0	0	
10	0	0	0	0	504	511	0	0	
11	0	0	0	0	504	511	0	0	
12	0	0	0	0	505	512	0	0	
13	0	0	0	0	506	510	0	0	
14	0	0	0	0	506	508	0	0	
15	0	0	0	0	509	512	0	0	
0	0	0	0	0	515	510	0	0	
1	0	0	0	0	515	512	0	0	
2	0	0	0	0	524	511	0	0	
3	0	0	0	0	515	510	0	0	
4	0	0	0	0	512	509	0	0	
5	0	0	0	0	511	511	0	0	
6	0	0	0	0	510	509	0	0	
7	0	0	0	0	509	511	0	0	
8	0	0	0	0	504	511	0	0	
9	0	0	0	0	504	510	0	0	
10	0	0	0	0	504	511	0	0	
11	0	0	0	0	505	510	0	0	
12	0	0	0	0	504	511	0	0	
13	0	0	0	0	505	508	0	0	
14	0	0	0	0	508	509	0	0	
15	0	0	0	0	504	510	0	0	
0	0	0	0	0	506	512	0	0	
1	0	0	0	0	507	508	0	0	
2	0	0	0	0	506	511	0	0	
3	0	0	0	0	511	512	0	0	
4	0	0	0	0	511	511	0	0	
5	0	0	0	0	512	510	0	0	
6	0	0	0	0	514	510	0	0	
7	0	0	0	0	515	512	0	0	
8	0	0	0	0	515	511	0	0	
9	0	0	0	0	512	510	0	0	
10	0	0	0	0	510	510	0	0	
11	0	0	0	0	509	511	0	0	
12	0	0	0	0	508	511	0	0	
13	0	0	0	0	506	509	0	0	
14	0	0	0	0	505	509	0	0	
15	0	0	0	0	505	510	0	0	
0	0	0	0	0	504	512	0	0	
1	0	0	0	0	504	511	0	0	
2	0	0	0	0	505	510	0	0	
3	0	0	0	0	506	510	0	0	
4	0	0	0	0	505	510	0	0	
5	0	0	0	0	504	513	0	0	
6	0	0	0	0	509	512	0	0	
7	0	0	0	0	512	511	0	0	
8	0	0	0	0	511	510	0	0	
9	0	0	0	0	510	511	0	0	
10	0	0	0	0	511	511	0	0	
11	0	0	0	0	514	511	0	0	
12	0	0	0	0	515	511	0	0	
13	0	0	0	0	513	511	0	0	
14	0	0	0	0	511	509	0	0	
15	0	0	0	0	508	508	0	0	
0	0	0	0	0	510	511	0	0	
1	0	0	0	0	506	509	0	0	
2	0	0	0	0	504	511	0	0	
3	0	0	0	0	503	508	0	0	
4	0	0	0	0	503	509	0	0	
5	0	0	0	0	503	513	0	0	
6	0	0	0	0	504	509	0	0	
7	0	0	0	0	505	510	0	0	
8	0	0	0	0	507	510	0	0	
9	0	0	0	0	512	511	0	0	
10	0	0	0	0	512	511	0	0	
11	0	0	0	0	513	511	0	0	
12	0	0	0	0	508	512	0	0	
13	0	0	0	0	509	511	0	0	
14	0	0	0	0	514	512	0	0	
15	0	0	0	0	515	512	0	0	
0	0	0	0	0	512	512	0	0	
1	0	0	0	0	513	512	0	0	
2	0	0	0	0	512	514	0	0	
3	0	0	0	0	509	509	0	0	
4	0	0	0	0	507	511	0	0	
5	0	0	0	0	506	511	0	0	
6	0	0	0	0	505	510	0	0	
7	0	0	0	0	502	509	0	0	
8	0	0	0	0	506	510	0	0	
9	0	0	0	0	506	510	0	0	
10	0	0	0	0	505	511	0	0	
11	0	0	0	0	503	511	0	0	
12	0	0	0	0	506	509	0	0	
13	0	0	0	0	508	511	0	0	
14	0	0	0	0	510	511	0	0	
15	0	0	0	0	511	510	0	0	
0	0	0	0	0	508	511	0	0	
1	0	0	0	0	512	510	0	0	
2	0	0	0	0	516	512	0	0	
3	0	0	0	0	511	509	0	0	
4	0	0	0	0	513	513	0	0	
5	0	0	0	0	513	511	0	0	
6	0	0	0	0	518	510	0	0	
7	0	0	0	0	518	511	0	0	
8	0	0	0	0	510	511	0	0	
9	0	0	0	0	502	511	0	0	
10	0	0	0	0	502	510	0	0	
11	0	0	0	0	504	508	0	0	
12	0	0	0	0	502	509	0	0	
13	0	0	0	0	501	510	0	0	
14	0	0	0	0	503	511	0	0	
15	0	0	0	0	503	510	0	0	
0	0	0	0	0	504	510	0	0	
1	0	0	0	0	507	509	0	0	
2	0	0	0	0	508	512	0	0	
3	0	0	0	0	514	511	0	0	
4	0	0	0	0	512	510	0	0	
5	0	0	0	0	517	511	0	0	
6	0	0	0	0	520	510	0	0	
7	0	0	0	0	516	510	0	0	
8	0	0	0	0	511	512	0	0	
9	0	0	0	0	510	511	0	0	
10	0	0	0	0	510	512	0	0	
11	0	0	0	0	509	512	0	0	
12	0	0	0	0	505	510	0	0	
13	0	0	0	0	503	511	0	0	
14	0	0	0	0	503	513	0	0	
15	0	0	0	0	504	510	0	0	
0	0	0	0	0	504	510	0	0	
1	0	0	0	0	504	510	0	0	
2	0	0	0	0	505	510	0	0	
3	0	0	0	0	505	510	0	0	
4	0	0	0	0	507	511	0	0	
5	0	0	0	0	508	508	0	0	
6	0	0	0	0	510	509	0	0	
7	0	0	0	0	511	512	0	0	
8	0	0	0	0	511	512	0	0	
9	0	0	0	0	513	508	0	0	
10	0	0	0	0	513	510	0	0	
11	0	0	0	0	513	511	0	0	
12	0	0	0	0	515	511	0	0	
13	0	0	0	0	513	510	0	0	
14	0	0	0	0	512	511	0	0	
15	0	0	0	0	510	510	0	0	
0	0	0	0	0	506	510	0	0	
1	0	0	0	0	506	510	0	0	
2	0	0	0	0	507	511	0	0	
3	0	0	0	0	504	510	0	0	
4	0	0	0	0	504	509	0	0	
5	0	0	0	0	507	510	0	0	
6	0	0	0	0	503	509	0	0	
7	0	0	0	0	504	510	0	0	
8	0	0	0	0	505	511	0	0	
9	0	0	0	0	507	510	0	0	
10	0	0	0	0	510	513	0	0	
11	0	0	0	0	511	510	0	0	
12	0	0	0	0	513	510	0	0	
13	0	0	0	0	513	512	0	0	
14	0	0	0	0	515	511	0	0	
15	0	0	0	0	510	511	0	0	
0	0	0	0	0	512	509	0	0	
1	0	0	0	0	515	510	0	0	
2	0	0	0	0	512	511	0	0	
3	0	0	0	0	511	511	0	0	
4	0	0	0	0	508	508	0	0	
5	0	0	0	0	505	510	0	0	
6	0	0	0	0	504	511	0	0	
7	0	0	0	0	502	512	0	0	
8	0	0	0	0	502	510	0	0	
9	0	0	0	0	505	509	0	0	
10	0	0	0	0	508	511	0	0	
11	0	0	0	0	507	509	0	0	
12	0	0	0	0	505	510	0	0	
13	0	0	0	0	505	510	0	0	
14	0	0	0	0	507	509	0	0	
15	0	0	0	0	512	510	0	0	
0	0	0	0	0	512	512	0	0	
1	0	0	0	0	513	513	0	0	
2	0	0	0	0	515	510	0	0	
3	0	0	0	0	512	512	0	0	
4	0	0	0	0	512	511	0	0	
5	0	0	0	0	512	511	0	0	
6	0	0	0	0	511	509	0	0	
7	0	0	0	0	511	512	0	0	
8	0	0	0	0	508	510	0	0	
9	0	0	0	0	510	512	0	0	
10	0	0	0	0	507	510	0	0	
11	0	0	0	0	506	509	0	0	
12	0	0	0	0	502	513	0	0	
13	0	0	0	0	504	508	0	0	
14	0	0	0	0	504	510	0	0	
15	0	0	0	0	506	510	0	0	
0	0	0	0	0	506	511	0	0	
1	0	0	0	0	505	509	0	0	
2	0	0	0	0	505	510	0	0	
3	0	0	0	0	508	510	0	0	
4	0	0	0	0	508	511	0	0	
5	0	0	0	0	511	511	0	0	
6	0	0	0	0	513	510	0	0	
7	0	0	0	0	512	511	0	0	
8	0	0	0	0	515	509	0	0	
9	0	0	0	0	513	514	0	0	
10	0	0	0	0	511	512	0	0	
11	0	0	0	0	508	511	0	0	
12	0	0	0	0	513	512	0	0	
13	0	0	0	0	505	511	0	0	
14	0	0	0	0	505	511	0	0	
15	0	0	0	0	504	508	0	0	
0	0	0	0	0	506	508	0	0	
1	0	0	0	0	508	510	0	0	
2	0	0	0	0	513	509	0	0	
3	0	0	0	0	506	514	0	0	
4	0	0	0	0	505	513	0	0	
5	0	0	0	0	507	510	0	0	
6	0	0	0	0	504	508	0	0	
7	0	0	0	0	509	510	0	0	
8	0	0	0	0	511	510	0	0	
9	0	0	0	0	512	511	0	0	
10	0	0	0	0	513	511	0	0	
11	0	0	0	0	513	509	0	0	
12	0	0	0	0	511	511	0	0	
13	0	0	0	0	509	512	0	0	
14	0	0	0	0	509	511	0	0	
15	0	0	0	0	505	513	0	0	
0	0	0	0	0	505	508	0	0	
1	0	0	0	0	507	512	0	0	
2	0	0	0	0	505	509	0	0	
3	0	0	0	0	510	511	0	0	
4	0	0	0	0	512	509	0	0	
5	0	0	0	0	508	511	0	0	
6	0	0	0	0	506	511	0	0	
7	0	0	0	0	505	511	0	0	
8	0	0	0	0	505	510	0	0	
9	0	0	0	0	507	509	0	0	
10	0	0	0	0	507	511	0	0	
11	0	0	0	0	506	511	0	0	
12	0	0	0	0	508	511	0	0	
13	0	0	0	0	513	511	0	0	
14	0	0	0	0	516	511	0	0	
15	0	0	0	0	514	511	0	0	
0	0	0	0	0	512	510	0	0	
1	0	0	0	0	513	510	0	0	
2	0	0	0	0	508	510	0	0	
3	0	0	0	0	509	507	0	0	
4	0	0	0	0	508	508	0	0	
5	0	0	0	0	509	510	0	0	
6	0	0	0	0	504	512	0	0	
7	0	0	0	0	505	511	0	0	
8	0	0	0	0	503	509	0	0	
9	0	0	0	0	503	511	0	0	
10	0	0	0	0	504	509	0	0	
11	0	0	0	0	505	510	0	0	
12	0	0	0	0	507	508	0	0	
13	0	0	0	0	508	512	0	0	
14	0	0	0	0	508	511	0	0	
15	0	0	0	0	510	511	0	0	
0	0	0	0	0	511	509	0	0	
1	0	0	0	0	512	512	0	0	
2	0	0	0	0	515	511	0	0	
3	0	0	0	0	514	510	0	0	
4	0	0	0	0	512	511	0	0	
5	0	0	0	0	512	508	0	0	
6	0	0	0	0	510	509	0	0	
7	0	0	0	0	508	512	0	0	
8	0	0	0	0	507	511	0	0	
9	0	0	0	0	506	511	0	0	
10	0	0	0	0	504	511	0	0	
11	0	0	0	0	506	511	0	0	
12	0	0	0	0	501	511	0	0	
13	0	0	0	0	502	511	0	0	
14	0	0	0	0	505	511	0	0	
15	0	0	0	0	505	510	0	0	
0	0	0	0	0	507	508	0	0	
1	0	0	0	0	505	510	0	0	
2	0	0	0	0	508	510	0	0	
3	0	0	0	0	513	509	0	0	
4	0	0	0	0	515	509	0	0	
5	0	0	0	0	514	510	0	0	
6	0	0	0	0	513	511	0	0	
7	0	0	0	0	515	512	0	0	
8	0	0	0	0	515	513	0	0	
9	0	0	0	0	512	511	0	0	
10	0	0	0	0	510	511	0	0	
11	0	0	0	0	510	511	0	0	
12	0	0	0	0	508	509	0	0	
13	0	0	0	0	506	511	0	0	
14	0	0	0	0	504	511	0	0	
15	0	0	0	0	503	510	0	0	
0	0	0	0	0	504	511	0	0	
1	0	0	0	0	503	512	0	0	
2	0	0	0	0	507	513	0	0	
3	0	0	0	0	506	509	0	0	
4	0	0	0	0	506	507	0	0	
5	0	0	0	0	506	509	0	0	
6	0	0	0	0	510	511	0	0	
7	0	0	0	0	513	509	0	0	
8	0	0	0	0	512	510	0	0	
9	0	0	0	0	511	511	0	0	
10	0	0	0	0	512	511	0	0	
11	0	0	0	0	514	510	0	0	
12	0	0	0	0	513	512	0	0	
13	0	0	0	0	512	511	0	0	
14	0	0	0	0	513	512	0	0	
15	0	0	0	0	510	510	0	0	
0	0	0	0	0	509	509	0	0	
1	0	0	0	0	505	511	0	0	
2	0	0	0	0	503	508	0	0	
3	0	0	0	0	501	511	0	0	
4	0	0	0	0	503	509	0	0	
5	0	0	0	0	502	510	0	0	
6	0	0	0	0	504	508	0	0	
7	0	0	0	0	504	508	0	0	
8	0	0	0	0	506	511	0	0	
9	0	0	0	0	508	510	0	0	
10	0	0	0	0	508	512	0	0	
11	0	0	0	0	512	510	0	0	
12	0	0	0	0	512	510	0	0	
13	0	0	0	0	514	511	0	0	
14	0	0	0	0	515	512	0	0	
15	0	0	0	0	520	515	0	0	
0	0	0	0	0	514	512	0	0	
1	0	0	0	0	512	511	0	0	
2	0	0	0	0	510	510	0	0	
3	0	0	0	0	510	511	0	0	
4	0	0	0	0	509	507	0	0	
5	0	0	0	0	504	509	0	0	
6	0	0	0	0	505	510	0	0	
7	0	0	0	0	504	510	0	0	
8	0	0	0	0	502	511	0	0	
9	0	0	0	0	501	511	0	0	
10	0	0	0	0	504	514	0	0	
11	0	0	0	0	501	510	0	0	
12	0	0	0	0	504	510	0	0	
13	0	0	0	0	508	508	0	0	
14	0	0	0	0	511	510	0	0	
15	0	0	0	0	519	511	0	0	
0	0	0	0	0	511	511	0	0	
1	0	0	0	0	512	511	0	0	
2	0	0	0	0	516	510	0	0	
3	0	0	0	0	514	511	0	0	
4	0	0	0	0	523	513	0	0	
5	0	0	0	0	515	512	0	0	
6	0	0	0	0	510	509	0	0	
7	0	0	0	0	507	510	0	0	
8	0	0	0	0	507	510	0	0	
9	0	0	0	0	505	510	0	0	
10	0	0	0	0	504	510	0	0	
11	0	0	0	0	503	510	0	0	
12	0	0	0	0	500	509	0	0	
13	0	0	0	0	503	510	0	0	
14	0	0	0	0	504	511	0	0	
15	0	0	0	0	505	511	0	0	
0	0	0	0	0	505	511	0	0	
1	0	0	0	0	504	509	0	0	
2	0	0	0	0	506	511	0	0	
3	0	0	0	0	510	510	0	0	
4	0	0	0	0	515	508	0	0	
5	0	0	0	0	515	509	0	0	
6	0	0	0	0	515	510	0	0	
7	0	0	0	0	515	512	0	0	
8	0	0	0	0	513	511	0	0	
9	0	0	0	0	512	512	0	0	
10	0	0	0	0	509	511	0	0	
11	0	0	0	0	509	511	0	0	
12	0	0	0	0	508	511	0	0	
13	0	0	0	0	509	510	0	0	
14	0	0	0	0	504	512	0	0	
15	0	0	0	0	502	511	0	0	
0	0	0	0	0	503	511	0	0	
1	0	0	0	0	503	510	0	0	
2	0	0	0	0	505	508	0	0	
3	0	0	0	0	505	510	0	0	
4	0	0	0	0	511	511	0	0	
5	0	0	0	0	511	511	0	0	
6	0	0	0	0	508	511	0	0	
7	0	0	0	0	507	508	0	0	
8	0	0	0	0	512	511	0	0	
9	0	0	0	0	512	509	0	0	
10	0	0	0	0	514	512	0	0	
11	0	0	0	0	514	509	0	0	
12	0	0	0	0	512	508	0	0	
13	0	0	0	0	511	512	0	0	
14	0	0	0	0	508	512	0	0	
15	0	0	0	0	509	510	0	0	
0	0	0	0	0	508	510	0	0	
1	0	0	0	0	505	511	0	0	
2	0	0	0	0	504	512	0	0	
3	0	0	0	0	504	511	0	0	
4	0	0	0	0	505	510	0	0	
5	0	0	0	0	506	510	0	0	
6	0	0	0	0	504	509	0	0	
7	0	0	0	0	505	510	0	0	
8	0	0	0	0	505	510	0	0	
9	0	0	0	0	508	511	0	0	
10	0	0	0	0	511	510	0	0	
11	0	0	0	0	509	510	0	0	
12	0	0	0	0	512	512	0	0	
13	0	0	0	0	512	511	0	0	
14	0	0	0	0	514	512	0	0	
15	0	0	0	0	514	513	0	0	
0	0	0	0	0	513	513	0	0	
1	0	0	0	0	512	513	0	0	
2	0	0	0	0	510	512	0	0	
3	0	0	0	0	510	510	0	0	
4	0	0	0	0	507	509	0	0	
5	0	0	0	0	507	509	0	0	
6	0	0	0	0	506	509	0	0	
7	0	0	0	0	504	512	0	0	
8	0	0	0	0	505	507	0	0	
9	0	0	0	0	503	508	0	0	
10	0	0	0	0	504	507	0	0	
11	0	0	0	0	506	506	0	0	
12	0	0	0	0	508	507	0	0	
13	0	0	0	0	508	511	0	0	
14	0	0	0	0	509	513	0	0	
15	0	0	0	0	511	511	0	0	
0	0	0	0	0	512	511	0	0	
1	0	0	0	0	511	511	0	0	
2	0	0	0	0	511	512	0	0	
3	0	0	0	0	513	511	0	0	
4	0	0	0	0	515	510	0	0	
5	0	0	0	0	512	510	0	0	
6	0	0	0	0	509	512	0	0	
7	0	0	0	0	508	510	0	0	
8	0	0	0	0	506	511	0	0	
9	0	0	0	0	506	510	0	0	
10	0	0	0	0	504	511	0	0	
11	0	0	0	0	505	510	0	0	
12	0	0	0	0	507	511	0	0	
13	0	0	0	0	507	510	0	0	
14	0	0	0	0	516	510	0	0	
15	0	0	0	0	508	510	0	0	
0	0	0	0	0	503	511	0	0	
1	0	0	0	0	505	510	0	0	
2	0	0	0	0	507	511	0	0	
3	0	0	0	0	508	510	0	0	
4	0	0	0	0	509	509	0	0	
5	0	0	0	0	513	511	0	0	
6	0	0	0	0	513	510	0	0	
7	0	0	0	0	515	511	0	0	
8	0	0	0	0	512	511	0	0	
9	0	0	0	0	511	511	0	0	
10	0	0	0	0	508	510	0	0	
11	0	0	0	0	510	511	0	0	
12	0	0	0	0	508	512	0	0	
13	0	0	0	0	508	511	0	0	
14	0	0	0	0	505	510	0	0	
15	0	0	0	0	505	510	0	0	
0	0	0	0	0	507	508	0	0	
1	0	0	0	0	504	509	0	0	
2	0	0	0	0	502	511	0	0	
3	0	0	0	0	505	509	0	0	
4	0	0	0	0	508	509	0	0	
5	0	0	0	0	508	511	0	0	
6	0	0	0	0	510	513	0	0	
7	0	0	0	0	508	508	0	0	
8	0	0	0	0	508	511	0	0	
9	0	0	0	0	508	512	0	0	
10	0	0	0	0	510	511	0	0	
11	0	0	0	0	511	510	0	0	
12	0	0	0	0	514	510	0	0	
13	0	0	0	0	516	508	0	0	
14	0	0	0	0	516	508	0	0	
15	0	0	0	0	515	511	0	0	
0	0	0	0	0	509	511	0	0	
1	0	0	0	0	502	510	0	0	
2	0	0	0	0	504	510	0	0	
3	0	0	0	0	506	511	0	0	
4	0	0	0	0	505	512	0	0	
5	0	0	0	0	505	512	0	0	
6	0	0	0	0	504	508	0	0	
7	0	0	0	0	504	510	0	0	
8	0	0	0	0	504	512	0	0	
9	0	0	0	0	509	508	0	0	
10	0	0	0	0	509	510	0	0	
11	0	0	0	0	510	512	0	0	
12	0	0	0	0	511	508	0	0	
13	0	0	0	0	511	512	0	0	
14	0	0	0	0	513	512	0	0	
15	0	0	0	0	514	511	0	0	
0	0	0	0	0	513	510	0	0	
1	0	0	0	0	511	511	0	0	
2	0	0	0	0	508	511	0	0	
3	0	0	0	0	507	511	0	0	
4	0	0	0	0	508	512	0	0	
5	0	0	0	0	507	511	0	0	
6	0	0	0	0	504	510	0	0	
7	0	0	0	0	504	511	0	0	
8	0	0	0	0	504	510	0	0	
9	0	0	0	0	506	511	0	0	
10	0	0	0	0	504	510	0	0	
11	0	0	0	0	507	509	0	0	
12	0	0	0	0	508	510	0	0	
13	0	0	0	0	508	509	0	0	
14	0	0	0	0	509	509	0	0	
15	0	0	0	0	509	510	0	0	
0	0	0	0	0	510	510	0	0	
1	0	0	0	0	512	510	0	0	
2	0	0	0	0	512	512	0	0	
3	0	0	0	0	514	512	0	0	
4	0	0	0	0	515	510	0	0	
5	0	0	0	0	516	508	0	0	
6	0	0	0	0	520	512	0	0	
7	0	0	0	0	513	511	0	0	
8	0	0	0	0	506	510	0	0	
9	0	0	0	0	505	511	0	0	
10	0	0	0	0	504	510	0	0	
11	0	0	0	0	500	509	0	0	
12	0	0	0	0	504	512	0	0	
13	0	0	0	0	502	509	0	0	
14	0	0	0	0	505	508	0	0	
15	0	0	0	0	507	511	0	0	
0	0	0	0	0	506	511	0	0	
1	0	0	0	0	507	511	0	0	
2	0	0	0	0	508	511	0	0	
3	0	0	0	0	510	513	0	0	
4	0	0	0	0	511	510	0	0	
5	0	0	0	0	512	512	0	0	
6	0	0	0	0	517	511	0	0	
7	0	0	0	0	515	511	0	0	
8	0	0	0	0	514	511	0	0	
9	0	0	0	0	513	512	0	0	
10	0	0	0	0	509	512	0	0	
11	0	0	0	0	510	513	0	0	
12	0	0	0	0	507	511	0	0	
13	0	0	0	0	504	511	0	0	
14	0	0	0	0	506	510	0	0	
15	0	0	0	0	503	510	0	0	
0	0	0	0	0	504	509	0	0	
1	0	0	0	0	504	508	0	0	
2	0	0	0	0	507	510	0	0	
3	0	0	0	0	504	508	0	0	
4	0	0	0	0	503	511	0	0	
5	0	0	0	0	507	512	0	0	
6	0	0	0	0	509	512	0	0	
7	0	0	0	0	508	511	0	0	
8	0	0	0	0	512	510	0	0	
9	0	0	0	0	515	507	0	0	
10	0	0	0	0	513	510	0	0	
11	0	0	0	0	514	512	0	0	
12	0	0	0	0	514	511	0	0	
13	0	0	0	0	514	509	0	0	
14	0	0	0	0	511	511	0	0	
15	0	0	0	0	509	512	0	0	
0	0	0	0	0	509	512	0	0	
1	0	0	0	0	507	509	0	0	
2	0	0	0	0	507	509	0	0	
3	0	0	0	0	505	511	0	0	
4	0	0	0	0	502	510	0	0	
5	0	0	0	0	503	510	0	0	
6	0	0	0	0	504	510	0	0	
7	0	0	0	0	506	508	0	0	
8	0	0	0	0	506	509	0	0	
9	0	0	0	0	507	509	0	0	
10	0	0	0	0	508	508	0	0	
11	0	0	0	0	514	509	0	0	
12	0	0	0	0	512	510	0	0	
13	0	0	0	0	512	511	0	0	
14	0	0	0	0	512	511	0	0	
15	0	0	0	0	511	511	0	0	
0	0	0	0	0	514	510	0	0	
1	0	0	0	0	512	511	0	0	
2	0	0	0	0	510	510	0	0	
3	0	0	0	0	509	512	0	0	
4	0	0	0	0	509	512	0	0	
5	0	0	0	0	504	510	0	0	
6	0	0	0	0	500	509	0	0	
7	0	0	0	0	499	510	0	0	
8	0	0	0	0	502	507	0	0	
9	0	0	0	0	500	510	0	0	
10	0	0	0	0	502	510	0	0	
11	0	0	0	0	510	511	0	0	
12	0	0	0	0	515	511	0	0	
13	0	0	0	0	527	511	0	0	
14	0	0	0	0	514	510	0	0	
15	0	0	0	0	509	512	0	0	
0	0	0	0	0	509	512	0	0	
1	0	0	0	0	510	510	0	0	
2	0	0	0	0	512	513	0	0	
3	0	0	0	0	512	511	0	0	
4	0	0	0	0	511	510	0	0	
5	0	0	0	0	511	509	0	0	
6	0	0	0	0	509	510	0	0	
7	0	0	0	0	507	510	0	0	
8	0	0	0	0	507	508	0	0	
9	0	0	0	0	507	510	0	0	
10	0	0	0	0	504	508	0	0	
11	0	0	0	0	504	511	0	0	
12	0	0	0	0	504	511	0	0	
13	0	0	0	0	503	512	0	0	
14	0	0	0	0	503	509	0	0	
15	0	0	0	0	504	509	0	0	
0	0	0	0	0	504	510	0	0	
1	0	0	0	0	508	512	0	0	
2	0	0	0	0	508	512	0	0	
3	0	0	0	0	512	511	0	0	
4	0	0	0	0	512	512	0	0	
5	0	0	0	0	514	513	0	0	
6	0	0	0	0	516	511	0	0	
7	0	0	0	0	513	512	0	0	
8	0	0	0	0	510	509	0	0	
9	0	0	0	0	508	511	0	0	
10	0	0	0	0	511	510	0	0	
11	0	0	0	0	511	511	0	0	
12	0	0	0	0	508	509	0	0	
13	0	0	0	0	507	511	0	0	
14	0	0	0	0	506	511	0	0	
15	0	0	0	0	504	510	0	0	
0	0	0	0	0	505	510	0	0	
1	0	0	0	0	503	510	0	0	
2	0	0	0	0	504	510	0	0	
3	0	0	0	0	505	510	0	0	
4	0	0	0	0	506	510	0	0	
5	0	0	0	0	507	510	0	0	
6	0	0	0	0	511	510	0	0	
7	0	0	0	0	511	511	0	0	
8	0	0	0	0	511	510	0	0	
9	0	0	0	0	514	511	0	0	
10	0	0	0	0	514	512	0	0	
11	0	0	0	0	514	510	0	0	
12	0	0	0	0	511	511	0	0	
13	0	0	0	0	509	512	0	0	
14	0	0	0	0	512	508	0	0	
15	0	0	0	0	509	511	0	0	
0	0	0	0	0	505	511	0	0	
1	0	0	0	0	507	511	0	0	
2	0	0	0	0	505	511	0	0	
3	0	0	0	0	504	511	0	0	
4	0	0	0	0	504	509	0	0	
5	0	0	0	0	505	508	0	0	
6	0	0	0	0	505	511	0	0	
7	0	0	0	0	504	509	0	0	
8	0	0	0	0	505	511	0	0	
9	0	0	0	0	505	511	0	0	
10	0	0	0	0	510	510	0	0	
11	0	0	0	0	513	511	0	0	
12	0	0	0	0	512	510	0	0	
13	0	0	0	0	513	512	0	0	
14	0	0	0	0	515	510	0	0	
15	0	0	0	0	512	512	0	0	
0	0	0	0	0	514	511	0	0	
1	0	0	0	0	509	512	0	0	
2	0	0	0	0	509	510	0	0	
3	0	0	0	0	510	511	0	0	
4	0	0	0	0	508	510	0	0	
5	0	0	0	0	508	511	0	0	
6	0	0	0	0	507	509	0	0	
7	0	0	0	0	503	508	0	0	
8	0	0	0	0	501	508	0	0	
9	0	0	0	0	500	511	0	0	
10	0	0	0	0	505	511	0	0	
11	0	0	0	0	503	511	0	0	
12	0	0	0	0	506	510	0	0	
13	0	0	0	0	506	511	0	0	
14	0	0	0	0	515	510	0	0	
15	0	0	0	0	515	510	0	0	
0	0	0	0	0	523	513	0	0	
1	0	0	0	0	515	511	0	0	
2	0	0	0	0	512	513	0	0	
3	0	0	0	0	512	511	0	0	
4	0	0	0	0	511	513	0	0	
5	0	0	0	0	508	509	0	0	
6	0	0	0	0	508	510	0	0	
7	0	0	0	0	505	511	0	0	
8	0	0	0	0	506	510	0	0	
9	0	0	0	0	507	508	0	0	
10	0	0	0	0	505	509	0	0	
11	0	0	0	0	502	510	0	0	
12	0	0	0	0	504	510	0	0	
13	0	0	0	0	505	511	0	0	
14	0	0	0	0	507	511	0	0	
15	0	0	0	0	506	512	0	0	
0	0	0	0	0	506	510	0	0	
1	0	0	0	0	507	510	0	0	
2	0	0	0	0	507	511	0	0	
3	0	0	0	0	513	510	0	0	
4	0	0	0	0	512	511	0	0	
5	0	0	0	0	513	511	0	0	
6	0	0	0	0	513	512	0	0	
7	0	0	0	0	513	511	0	0	
8	0	0	0	0	514	510	0	0	
9	0	0	0	0	512	511	0	0	
10	0	0	0	0	511	509	0	0	
11	0	0	0	0	509	508	0	0	
12	0	0	0	0	506	510	0	0	
13	0	0	0	0	503	511	0	0	
14	0	0	0	0	505	510	0	0	
15	0	0	0	0	506	512	0	0	
0	0	0	0	0	503	513	0	0	
1	0	0	0	0	505	512	0	0	
2	0	0	0	0	504	508	0	0	
3	0	0	0	0	507	510	0	0	
4	0	0	0	0	507	511	0	0	
5	0	0	0	0	507	511	0	0	
6	0	0	0	0	509	511	0	0	
7	0	0	0	0	513	511	0	0	
8	0	0	0	0	512	508	0	0	
9	0	0	0	0	513	511	0	0	
10	0	0	0	0	515	510	0	0	
11	0	0	0	0	512	511	0	0	
12	0	0	0	0	511	514	0	0	
13	0	0	0	0	509	511	0	0	
14	0	0	0	0	507	511	0	0	
15	0	0	0	0	509	511	0	0	
0	0	0	0	0	509	509	0	0	
1	0	0	0	0	507	510	0	0	
2	0	0	0	0	515	510	0	0	
3	0	0	0	0	508	510	0	0	
4	0	0	0	0	504	512	0	0	
5	0	0	0	0	503	509	0	0	
6	0	0	0	0	504	509	0	0	
7	0	0	0	0	499	511	0	0	
8	0	0	0	0	503	509	0	0	
9	0	0	0	0	510	511	0	0	
10	0	0	0	0	508	511	0	0	
11	0	0	0	0	508	510	0	0	
12	0	0	0	0	514	510	0	0	
13	0	0	0	0	516	511	0	0	
14	0	0	0	0	524	513	0	0	
15	0	0	0	0	514	513	0	0	
0	0	0	0	0	511	510	0	0	
1	0	0	0	0	508	512	0	0	
2	0	0	0	0	508	512	0	0	
3	0	0	0	0	506	511	0	0	
4	0	0	0	0	506	511	0	0	
5	0	0	0	0	505	511	0	0	
6	0	0	0	0	504	513	0	0	
7	0	0	0	0	506	509	0	0	
8	0	0	0	0	505	510	0	0	
9	0	0	0	0	503	511	0	0	
10	0	0	0	0	506	510	0	0	
11	0	0	0	0	505	510	0	0	
12	0	0	0	0	505	512	0	0	
13	0	0	0	0	506	512	0	0	
14	0	0	0	0	508	510	0	0	
15	0	0	0	0	513	509	0	0	
0	0	0	0	0	512	508	0	0	
1	0	0	0	0	512	510	0	0	
2	0	0	0	0	514	508	0	0	
3	0	0	0	0	513	508	0	0	
4	0	0	0	0	513	510	0	0	
5	0	0	0	0	512	511	0	0	
6	0	0	0	0	511	510	0	0	
7	0	0	0	0	509	511	0	0	
8	0	0	0	0	507	512	0	0	
9	0	0	0	0	506	510	0	0	
10	0	0	0	0	504	512	0	0	
11	0	0	0	0	504	513	0	0	
12	0	0	0	0	504	510	0	0	
13	0	0	0	0	503	510	0	0	
14	0	0	0	0	507	508	0	0	
15	0	0	0	0	505	510	0	0	
0	0	0	0	0	506	511	0	0	
1	0	0	0	0	510	511	0	0	
2	0	0	0	0	509	511	0	0	
3	0	0	0	0	512	511	0	0	
4	0	0	0	0	514	511	0	0	
5	0	0	0	0	511	509	0	0	
6	0	0	0	0	509	511	0	0	
7	0	0	0	0	509	510	0	0	
8	0	0	0	0	513	509	0	0	
9	0	0	0	0	511	512	0	0	
10	0	0	0	0	511	510	0	0	
11	0	0	0	0	510	510	0	0	
12	0	0	0	0	508	510	0	0	
13	0	0	0	0	508	511	0	0	
14	0	0	0	0	507	512	0	0	
15	0	0	0	0	507	511	0	0	
0	0	0	0	0	505	512	0	0	
1	0	0	0	0	505	512	0	0	
2	0	0	0	0	504	511	0	0	
3	0	0	0	0	505	509	0	0	
4	0	0	0	0	504	511	0	0	
5	0	0	0	0	506	511	0	0	
6	0	0	0	0	509	511	0	0	
7	0	0	0	0	510	509	0	0	
8	0	0	0	0	513	509	0	0	
9	0	0	0	0	513	510	0	0	
10	0	0	0	0	514	511	0	0	
11	0	0	0	0	513	511	0	0	
12	0	0	0	0	514	510	0	0	
13	0	0	0	0	510	512	0	0	
14	0	0	0	0	512	512	0	0	
15	0	0	0	0	509	511	0	0	
0	0	0	0	0	508	512	0	0	
1	0	0	0	0	506	511	0	0	
2	0	0	0	0	506	511	0	0	
3	0	0	0	0	503	509	0	0	
4	0	0	0	0	504	511	0	0	
5	0	0	0	0	503	510	0	0	
6	0	0	0	0	505	510	0	0	
7	0	0	0	0	505	508	0	0	
8	0	0	0	0	503	508	0	0	
9	0	0	0	0	504	511	0	0	
10	0	0	0	0	508	511	0	0	
11	0	0	0	0	511	510	0	0	
12	0	0	0	0	513	509	0	0	
13	0	0	0	0	518	510	0	0	
14	0	0	0	0	517	511	0	0	
15	0	0	0	0	521	513	0	0	
0	0	0	0	0	517	514	0	0	
1	0	0	0	0	511	511	0	0	
2	0	0	0	0	507	510	0	0	
3	0	0	0	0	508	511	0	0	
4	0	0	0	0	507	511	0	0	
5	0	0	0	0	504	510	0	0	
6	0	0	0	0	504	512	0	0	
7	0	0	0	0	505	513	0	0	
8	0	0	0	0	504	510	0	0	
9	0	0	0	0	502	510	0	0	
10	0	0	0	0	500	510	0	0	
11	0	0	0	0	503	510	0	0	
12	0	0	0	0	505	510	0	0	
13	0	0	0	0	507	509	0	0	
14	0	0	0	0	511	509	0	0	
15	0	0	0	0	513	510	0	0	
0	0	0	0	0	521	510	0	0	
1	0	0	0	0	522	510	0	0	
2	0	0	0	0	512	510	0	0	
3	0	0	0	0	512	512	0	0	
4	0	0	0	0	509	512	0	0	
5	0	0	0	0	508	511	0	0	
6	0	0	0	0	507	511	0	0	
7	0	0	0	0	507	512	0	0	
8	0	0	0	0	507	510	0	0	
9	0	0	0	0	507	512	0	0	
10	0	0	0	0	507	511	0	0	
11	0	0	0	0	505	511	0	0	
12	0	0	0	0	504	512	0	0	
13	0	0	0	0	504	510	0	0	
14	0	0	0	0	508	508	0	0	
15	0	0	0	0	505	510	0	0	
0	0	0	0	0	506	511	0	0	
1	0	0	0	0	505	510	0	0	
2	0	0	0	0	507	511	0	0	
3	0	0	0	0	510	513	0	0	
4	0	0	0	0	512	509	0	0	
5	0	0	0	0	512	513	0	0	
6	0	0	0	0	513	511	0	0	
7	0	0	0	0	515	510	0	0	
8	0	0	0	0	514	508	0	0	
9	0	0	0	0	512	508	0	0	
10	0	0	0	0	512	510	0	0	
11	0	0	0	0	511	510	0	0	
12	0	0	0	0	509	511	0	0	
13	0	0	0	0	505	508	0	0	
14	0	0	0	0	506	511	0	0	
15	0	0	0	0	504	511	0	0	
0	0	0	0	0	505	510	0	0	
1	0	0	0	0	504	510	0	0	
2	0	0	0	0	500	509	0	0	
3	0	0	0	0	505	510	0	0	
4	0	0	0	0	509	510	0	0	
5	0	0	0	0	505	512	0	0	
6	0	0	0	0	504	510	0	0	
7	0	0	0	0	510	513	0	0	
8	0	0	0	0	511	512	0	0	
9	0	0	0	0	511	511	0	0	
10	0	0	0	0	514	511	0	0	
11	0	0	0	0	513	508	0	0	
12	0	0	0	0	512	512	0	0	
13	0	0	0	0	512	511	0	0	
14	0	0	0	0	510	511	0	0	
15	0	0	0	0	508	511	0	0	
0	0	0	0	0	508	511	0	0	
1	0	0	0	0	510	509	0	0	
2	0	0	0	0	510	511	0	0	
3	0	0	0	0	518	510	0	0	
4	0	0	0	0	506	510	0	0	
5	0	0	0	0	500	510	0	0	
6	0	0	0	0	503	511	0	0	
7	0	0	0	0	504	510	0	0	
8	0	0	0	0	505	511	0	0	
9	0	0	0	0	506	511	0	0	
10	0	0	0	0	508	511	0	0	
11	0	0	0	0	511	510	0	0	
12	0	0	0	0	510	512	0	0	
13	0	0	0	0	512	511	0	0	
14	0	0	0	0	513	511	0	0	
15	0	0	0	0	515	510	0	0	
0	0	0	0	0	511	510	0	0	
1	0	0	0	0	510	511	0	0	
2	0	0	0	0	507	513	0	0	
3	0	0	0	0	510	512	0	0	
4	0	0	0	0	507	511	0	0	
5	0	0	0	0	505	512	0	0	
6	0	0	0	0	505	511	0	0	
7	0	0	0	0	503	508	0	0	
8	0	0	0	0	504	510	0	0	
9	0	0	0	0	503	509	0	0	
10	0	0	0	0	503	510	0	0	
11	0	0	0	0	507	511	0	0	
12	0	0	0	0	509	510	0	0	
13	0	0	0	0	510	510	0	0	
14	0	0	0	0	508	512	0	0	
15	0	0	0	0	511	511	0	0	
0	0	0	0	0	512	512	0	0	
1	0	0	0	0	515	510	0	0	
2	0	0	0	0	512	511	0	0	
3	0	0	0	0	515	509	0	0	
4	0	0	0	0	512	509	0	0	
5	0	0	0	0	513	511	0	0	
6	0	0	0	0	511	509	0	0	
7	0	0	0	0	511	511	0	0	
8	0	0	0	0	510	513	0	0	
9	0	0	0	0	506	510	0	0	
10	0	0	0	0	505	512	0	0	
11	0	0	0	0	504	511	0	0	
12	0	0	0	0	501	510	0	0	
13	0	0	0	0	501	511	0	0	
14	0	0	0	0	504	509	0	0	
15	0	0	0	0	506	511	0	0	
0	0	0	0	0	504	510	0	0	
1	0	0	0	0	506	510	0	0	
2	0	0	0	0	508	510	0	0	
3	0	0	0	0	513	509	0	0	
4	0	0	0	0	520	511	0	0	
5	0	0	0	0	521	511	0	0	
6	0	0	0	0	515	512	0	0	
7	0	0	0	0	513	510	0	0	
8	0	0	0	0	511	512	0	0	
9	0	0	0	0	509	510	0	0	
10	0	0	0	0	506	509	0	0	
11	0	0	0	0	508	511	0	0	
12	0	0	0	0	506	508	0	0	
13	0	0	0	0	505	508	0	0	
14	0	0	0	0	504	509	0	0	
15	0	0	0	0	508	512	0	0	
0	0	0	0	0	505	511	0	0	
1	0	0	0	0	508	510	0	0	
2	0	0	0	0	505	511	0	0	
3	0	0	0	0	505	511	0	0	
4	0	0	0	0	503	512	0	0	
5	0	0	0	0	506	511	0	0	
6	0	0	0	0	508	510	0	0	
7	0	0	0	0	510	511	0	0	
8	0	0	0	0	511	510	0	0	
9	0	0	0	0	513	509	0	0	
10	0	0	0	0	512	512	0	0	
11	0	0	0	0	513	510	0	0	
12	0	0	0	0	512	512	0	0	
13	0	0	0	0	508	511	0	0	
14	0	0	0	0	507	510	0	0	
15	0	0	0	0	511	508	0	0	
0	0	0	0	0	511	510	0	0	
1	0	0	0	0	516	512	0	0	
2	0	0	0	0	516	513	0	0	
3	0	0	0	0	504	511	0	0	
4	0	0	0	0	498	512	0	0	
5	0	0	0	0	496	510	0	0	
6	0	0	0	0	501	510	0	0	
7	0	0	0	0	503	510	0	0	
8	0	0	0	0	504	509	0	0	
9	0	0	0	0	506	510	0	0	
10	0	0	0	0	511	510	0	0	
11	0	0	0	0	514	511	0	0	
12	0	0	0	0	511	511	0	0	
13	0	0	0	0	513	510	0	0	
14	0	0	0	0	515	508	0	0	
15	0	0	0	0	513	511	0	0	
0	0	0	0	0	515	514	0	0	
1	0	0	0	0	512	511	0	0	
2	0	0	0	0	512	511	0	0	
3	0	0	0	0	510	509	0	0	
4	0	0	0	0	507	512	0	0	
5	0	0	0	0	506	510	0	0	
6	0	0	0	0	503	512	0	0	
7	0	0	0	0	504	510	0	0	
8	0	0	0	0	503	509	0	0	
9	0	0	0	0	505	511	0	0	
10	0	0	0	0	504	510	0	0	
11	0	0	0	0	504	511	0	0	
12	0	0	0	0	508	510	0	0	
13	0	0	0	0	509	509	0	0	
14	0	0	0	0	511	511	0	0	
15	0	0	0	0	512	511	0	0	
0	0	0	0	0	511	510	0	0	
1	0	0	0	0	510	510	0	0	
2	0	0	0	0	515	512	0	0	
3	0	0	0	0	516	511	0	0	
4	0	0	0	0	513	510	0	0	
5	0	0	0	0	513	511	0	0	
6	0	0	0	0	510	511	0	0	
7	0	0	0	0	505	511	0	0	
8	0	0	0	0	501	511	0	0	
9	0	0	0	0	500	511	0	0	
10	0	0	0	0	503	511	0	0	
11	0	0	0	0	505	511	0	0	
12	0	0	0	0	502	508	0	0	
13	0	0	0	0	507	508	0	0	
14	0	0	0	0	515	509	0	0	
15	0	0	0	0	519	509	0	0	
0	0	0	0	0	515	511	0	0	
1	0	0	0	0	505	511	0	0	
2	0	0	0	0	504	512	0	0	
3	0	0	0	0	511	511	0	0	
4	0	0	0	0	515	512	0	0	
5	0	0	0	0	518	510	0	0	
6	0	0	0	0	500	511	0	0	
7	0	0	0	0	505	510	0	0	
8	0	0	0	0	513	510	0	0	
9	0	0	0	0	515	510	0	0	
10	0	0	0	0	518	509	0	0	
11	0	0	0	0	519	509	0	0	
12	0	0	0	0	497	512	0	0	
13	0	0	0	0	484	512	0	0	
14	0	0	0	0	481	509	0	0	
15	0	0	0	0	489	510	0	0	
0	0	0	0	0	496	509	0	0	
1	0	0	0	0	495	509	0	0	
2	0	0	0	0	520	508	0	0	
3	0	0	0	0	515	507	0	0	
4	0	0	0	0	527	509	0	0	
5	0	0	0	0	525	512	0	0	
6	0	0	0	0	537	513	0	0	
7	0	0	0	0	553	519	0	0	
8	0	0	0	0	506	514	0	0	
9	0	0	0	0	480	510	0	0	
10	0	0	0	0	499	508	0	0	
11	0	0	0	0	501	504	0	0	
12	0	0	0	0	473	502	0	0	
13	0	0	0	0	446	505	0	0	
14	0	0	0	0	472	510	0	0	
15	0	0	0	0	564	518	0	0	
0	0	0	0	0	597	515	0	0	
1	0	0	0	0	499	513	0	0	
2	0	0	0	0	467	510	0	0	
3	0	0	0	0	496	516	0	0	
4	0	0	0	0	526	513	0	0	
5	0	0	0	0	523	515	0	0	
6	0	0	0	0	531	510	0	0	
7	0	0	0	0	535	507	0	0	
8	0	0	0	0	520	504	0	0	
9	0	0	0	0	522	500	0	0	
10	0	0	0	0	489	499	0	0	
11	0	0	0	0	521	500	0	0	
12	0	0	0	0	542	501	0	0	
13	0	0	0	0	483	510	0	0	
14	0	0	0	0	393	522	0	0	
15	0	0	0	0	379	533	0	0	
0	0	0	0	0	450	527	0	0	
1	0	0	0	0	467	517	0	0	
2	0	0	0	0	578	513	0	0	
3	0	0	0	0	636	509	0	0	
4	0	0	0	0	679	504	7	0	
5	0	0	0	0	632	503	12	0	
6	0	0	0	0	540	502	15	0	
7	0	0	0	0	575	510	14	0	
8	0	0	0	0	514	504	17	0	
9	0	0	0	0	478	501	19	0	
10	0	0	0	0	431	510	19	0	
11	0	0	0	0	358	516	21	0	
12	0	0	0	0	349	511	21	0	
13	0	0	0	0	429	513	23	0	
14	0	0	0	0	489	516	24	0	
15	0	0	0	0	550	516	25	0	
0	0	0	0	0	503	518	37	0	
1	0	0	0	0	599	505	44	0	
2	0	0	0	0	596	499	52	0	
3	0	0	0	0	533	496	57	0	
4	0	0	0	0	521	504	66	0	
5	0	0	0	0	504	515	74	0	
6	0	0	0	0	588	521	77	0	
7	0	0	0	0	523	519	86	0	
8	0	0	0	0	487	513	91	0	
9	0	0	0	0	386	521	96	0	
10	0	0	0	0	343	522	99	0	
11	0	0	0	0	376	528	102	0	
12	0	0	0	0	460	527	100	0	
13	0	0	0	0	638	520	100	0	
14	0	0	0	0	756	515	99	0	
15	0	0	0	0	739	502	99	0	
0	0	0	0	0	655	493	94	0	
1	0	0	0	0	478	490	91	0	
2	0	0	0	0	326	499	89	0	
3	0	0	0	0	383	504	80	0	
4	0	0	0	0	558	509	77	0	
5	0	0	0	0	529	508	80	0	
6	0	0	0	0	453	509	77	0	
7	0	0	0	0	423	505	79	0	
8	0	0	0	0	415	509	80	0	
9	0	0	0	0	565	506	81	0	
10	0	0	0	0	530	504	80	0	
11	0	0	0	0	479	509	79	0	
12	0	0	0	0	459	515	79	0	
13	0	0	0	0	555	521	80	0	
14	0	0	0	0	566	524	83	0	
15	0	0	0	0	547	524	82	0	
0	0	0	0	0	521	520	83	0	
1	0	0	0	0	582	514	86	0	
2	0	0	0	0	539	496	83	0	
3	0	0	0	0	490	498	83	0	
4	0	0	0	0	484	504	79	0	
5	0	0	0	0	415	499	78	0	
6	0	0	0	0	466	510	76	0	
7	0	0	0	0	501	504	79	0	
8	0	0	0	0	475	511	76	0	
9	0	0	0	0	531	515	76	0	
10	0	0	0	0	524	515	76	0	
11	0	0	0	0	496	515	74	0	
12	0	0	0	0	408	509	76	0	
13	0	0	0	0	557	520	81	0	
14	0	0	0	0	543	522	80	0	
15	0	0	0	0	523	519	81	0	
0	0	0	0	0	623	513	83	0	
1	0	0	0	0	601	496	83	0	
2	0	0	0	0	516	502	83	0	
3	0	0	0	0	483	512	76	0	
4	0	0	0	0	508	516	74	0	
5	0	0	0	0	532	510	73	0	
6	0	0	0	0	569	507	69	0	
7	0	0	0	0	492	504	65	0	
8	0	0	0	0	457	499	59	0	
9	0	0	0	0	317	494	47	0	
10	0	0	0	0	393	503	39	0	
11	0	0	0	0	494	523	37	0	
12	0	0	0	0	540	526	36	0	
13	0	0	0	0	509	517	33	0	
14	0	0	0	0	420	525	31	0	
15	0	0	0	0	426	529	16	0	
0	0	0	0	0	451	512	15	0	
1	0	0	0	0	636	511	15	0	
2	0	0	0	0	651	516	14	0	
3	0	0	0	0	641	505	15	0	
4	0	0	0	0	608	493	15	0	
5	0	0	0	0	527	503	15	0	
6	0	0	0	0	560	510	15	0	
7	0	0	0	0	523	506	13	0	
8	0	0	0	0	502	505	11	0	
9	0	0	0	0	436	516	10	0	
10	0	0	0	0	374	522	10	0	
11	0	0	0	0	420	529	8	0	
12	0	0	0	0	507	519	7	0	
13	0	0	0	0	639	504	0	0	
14	0	0	0	0	631	506	0	0	
15	0	0	0	0	428	508	0	0	
0	0	0	0	0	412	502	0	0	
1	0	0	0	0	352	494	0	0	
2	0	0	0	0	368	499	0	0	
3	0	0	0	0	480	499	0	0	
4	0	0	0	0	633	507	0	0	
5	0	0	0	0	718	518	0	0	
6	0	0	0	0	596	527	0	0	
7	0	0	0	0	412	525	0	0	
8	0	0	0	0	359	534	0	0	
9	0	0	0	0	403	543	0	0	
10	0	0	0	0	460	539	0	0	
11	0	0	0	0	724	519	0	0	
12	0	0	0	0	831	516	0	0	
13	0	0	0	0	505	501	0	0	
14	0	0	0	0	383	485	0	0	
15	0	0	0	0	483	472	0	0	
0	0	0	0	0	570	465	0	0	
1	0	0	0	0	579	491	0	0	
2	0	0	0	0	411	513	0	0	
3	0	0	0	0	287	519	0	0	
4	0	0	0	0	347	521	0	0	
5	0	0	0	0	438	505	0	0	
6	0	0	0	0	591	493	0	0	
7	0	0	0	0	654	490	0	0	
8	0	0	0	0	533	491	0	0	
9	0	0	0	0	545	470	0	0	
10	0	0	0	0	552	509	0	0	
11	0	0	0	0	552	529	0	0	
12	0	0	0	0	670	538	0	0	
13	0	0	0	0	457	542	0	0	
14	0	0	0	0	377	527	0	0	
15	0	0	0	0	433	515	0	0	
0	0	0	0	0	519	508	0	0	
1	0	0	0	0	562	508	0	0	
2	0	0	0	0	466	502	0	0	
3	0	0	0	0	460	509	0	0	
4	0	0	0	0	427	514	0	0	
5	0	0	0	0	496	509	0	0	
6	0	0	0	0	549	545	0	0	
7	0	0	0	0	371	541	0	0	
8	0	0	0	0	519	527	0	0	
9	0	0	0	0	692	522	0	0	
10	0	0	0	0	628	499	0	0	
11	0	0	0	0	579	496	0	0	
12	0	0	0	0	519	495	0	0	
13	0	0	0	0	430	510	0	0	
14	0	0	0	0	480	513	0	0	
15	0	0	0	0	543	511	0	0	
0	0	0	0	0	499	504	0	0	
1	0	0	0	0	421	509	0	0	
2	0	0	0	0	508	508	0	0	
3	0	0	0	0	532	505	0	0	
4	0	0	0	0	430	508	0	0	
5	0	0	0	0	420	493	0	0	
6	0	0	0	0	464	491	0	0	
7	0	0	0	0	428	501	0	0	
8	0	0	0	0	538	520	0	0	
9	0	0	0	0	706	541	0	0	
10	0	0	0	0	557	545	0	0	
11	0	0	0	0	476	532	0	0	
12	0	0	0	0	463	531	0	0	
13	0	0	0	0	534	505	0	0	
14	0	0	0	0	597	484	0	0	
15	0	0	0	0	515	486	0	0	
0	0	0	0	0	380	475	0	0	
1	0	0	0	0	435	491	0	0	
2	0	0	0	0	536	521	0	0	
3	0	0	0	0	716	553	0	0	
4	0	0	0	0	586	542	0	0	
5	0	0	0	0	487	528	0	0	
6	0	0	0	0	417	514	0	0	
7	0	0	0	0	517	504	0	0	
8	0	0	0	0	612	509	0	0	
9	0	0	0	0	409	534	0	0	
10	0	0	0	0	342	520	0	0	
11	0	0	0	0	437	493	0	0	
12	0	0	0	0	517	472	0	0	
13	0	0	0	0	577	463	0	0	
14	0	0	0	0	517	471	0	0	
15	0	0	0	0	484	499	0	0	
0	0	0	0	0	465	493	0	0	
1	0	0	0	0	580	472	0	0	
2	0	0	0	0	659	497	0	0	
3	0	0	0	0	573	518	0	0	
4	0	0	0	0	419	523	0	0	
5	0	0	0	0	443	524	0	0	
6	0	0	0	0	469	524	0	0	
7	0	0	0	0	578	515	0	0	
8	0	0	0	0	524	517	0	0	
9	0	0	0	0	436	530	0	0	
10	0	0	0	0	404	532	0	0	
11	0	0	0	0	550	529	0	0	
12	0	0	0	0	564	521	0	0	
13	0	0	0	0	496	497	0	0	
14	0	0	0	0	460	478	0	0	
15	0	0	0	0	560	496	0	0	
0	0	0	0	0	576	514	0	0	
1	0	0	0	0	496	527	0	0	
2	0	0	0	0	466	530	0	0	
3	0	0	0	0	498	528	0	0	
4	0	0	0	0	612	537	0	0	
5	0	0	0	0	508	555	0	0	
6	0	0	0	0	451	561	0	0	
7	0	0	0	0	498	541	0	0	
8	0	0	0	0	497	512	0	0	
9	0	0	0	0	472	493	0	0	
10	0	0	0	0	507	476	0	0	
11	0	0	0	0	618	472	0	0	
12	0	0	0	0	583	468	0	0	
13	0	0	0	0	455	474	0	0	
14	0	0	0	0	482	475	0	0	
15	0	0	0	0	559	491	0	0	
0	0	0	0	0	444	508	0	0	
1	0	0	0	0	402	522	0	0	
2	0	0	0	0	316	523	0	0	
3	0	0	0	0	518	530	0	0	
4	0	0	0	0	678	539	0	0	
5	0	0	0	0	664	513	0	0	
6	0	0	0	0	511	504	0	0	
7	0	0	0	0	549	513	0	0	
8	0	0	0	0	520	523	0	0	
9	0	0	0	0	379	524	0	0	
10	0	0	0	0	509	504	0	0	
11	0	0	0	0	497	486	0	0	
12	0	0	0	0	573	502	0	0	
13	0	0	0	0	564	516	0	0	
14	0	0	0	0	416	521	0	0	
15	0	0	0	0	460	526	0	0	
0	0	0	0	0	421	520	0	0	
1	0	0	0	0	451	515	0	0	
2	0	0	0	0	487	492	0	0	
3	0	0	0	0	586	491	0	0	
4	0	0	0	0	633	513	0	0	
5	0	0	0	0	575	520	0	0	
6	0	0	0	0	492	520	0	0	
7	0	0	0	0	515	508	0	2	
8	0	0	0	0	540	500	0	2	
9	0	0	0	0	428	514	0	1	
10	0	0	0	0	448	526	0	1	
11	0	0	0	0	427	516	0	2	
12	0	0	0	0	571	506	0	3	
13	0	0	0	0	669	512	0	19	
14	0	0	0	0	519	503	0	17	
15	0	0	0	0	462	503	0	12	
0	0	0	0	0	488	498	0	11	
1	0	0	0	0	547	500	0	14	
2	0	0	0	0	570	500	0	15	
3	0	0	0	0	511	501	0	14	
4	0	0	0	0	377	498	0	16	
5	0	0	0	0	307	508	0	17	
6	0	0	0	0	332	527	0	25	
7	0	0	0	0	464	535	0	28	
8	0	0	0	0	850	542	0	30	
9	0	0	0	0	715	523	0	38	
10	0	0	0	0	595	499	0	36	
11	0	0	0	0	508	503	0	37	
12	0	0	0	0	499	498	0	39	
13	0	0	0	0	447	504	0	36	
14	0	0	0	0	356	519	0	49	
15	0	0	0	0	501	515	0	40	
0	0	0	0	0	384	517	0	39	
1	0	0	0	0	550	517	0	40	
2	0	0	0	0	534	507	0	42	
3	0	0	0	0	543	515	0	36	
4	0	0	0	0	568	543	0	47	
5	0	0	0	0	627	569	0	44	
6	0	0	0	0	524	560	0	44	
7	0	0	0	0	525	534	0	43	
8	0	0	0	0	463	508	0	44	
9	0	0	0	0	375	481	0	52	
10	0	0	0	0	462	460	0	46	
11	0	0	0	0	491	438	0	45	
12	0	0	0	0	543	419	0	49	
13	0	0	0	0	591	441	0	55	
14	0	0	0	0	654	495	0	56	
15	0	0	0	0	487	515	0	62	
0	0	0	0	0	414	528	0	60	
1	0	0	0	0	415	534	0	60	
2	0	0	0	0	405	525	0	58	
3	0	0	0	0	554	524	0	54	
4	0	0	0	0	425	521	0	60	
5	0	0	0	0	627	518	0	56	
6	0	0	0	0	549	519	0	60	
7	0	0	0	0	656	527	0	66	
8	0	0	0	0	553	540	0	66	
9	0	0	0	0	426	534	0	58	
10	0	0	0	0	386	514	0	58	
11	0	0	0	0	440	504	0	59	
12	0	0	0	0	569	510	0	61	
13	0	0	0	0	663	522	0	63	
14	0	0	0	0	524	515	0	69	
15	0	0	0	0	351	501	0	64	
0	0	0	0	0	505	502	0	75	
1	0	0	0	0	431	497	0	70	
2	0	0	0	0	549	495	0	68	
3	0	0	0	0	551	492	0	67	
4	0	0	0	0	609	498	0	74	
5	0	0	0	0	473	502	0	74	
6	0	0	0	0	392	521	0	78	
7	0	0	0	0	577	537	0	76	
8	0	0	0	0	656	526	0	79	
9	0	0	0	0	516	511	0	75	
10	0	0	0	0	372	518	0	87	
11	0	0	0	0	484	516	0	89	
12	0	0	0	0	440	506	0	86	
13	0	0	0	0	549	512	0	89	
14	0	0	0	0	573	520	0	94	
15	0	0	0	0	584	526	0	96	
0	0	0	0	0	413	514	0	98	
1	0	0	0	0	447	503	0	97	
2	0	0	0	0	513	496	0	89	
3	0	0	0	0	630	496	0	92	
4	0	0	0	0	489	506	0	92	
5	0	0	0	0	424	515	0	98	
6	0	0	0	0	423	524	0	96	
7	0	0	0	0	588	523	0	98	
8	0	0	0	0	615	518	0	97	
9	0	0	0	0	565	514	0	101	
10	0	0	0	0	609	509	0	98	
11	0	0	0	0	446	492	0	99	
12	0	0	0	0	477	475	0	98	
13	0	0	0	0	343	486	0	96	
14	0	0	0	0	402	501	0	95	
15	0	0	0	0	493	516	0	94	
0	0	0	0	0	587	527	0	92	
1	0	0	0	0	707	519	0	94	
2	0	0	0	0	415	515	0	92	
3	0	0	0	0	459	527	0	98	
4	0	0	0	0	612	516	0	92	
5	0	0	0	0	602	512	0	94	
6	0	0	0	0	458	506	0	97	
7	0	0	0	0	490	508	0	101	
8	0	0	0	0	530	517	0	102	
9	0	0	0	0	499	520	0	114	
10	0	0	0	0	372	517	0	114	
11	0	0	0	0	462	512	0	114	
12	0	0	0	0	578	507	0	112	
13	0	0	0	0	480	512	0	108	
14	0	0	0	0	449	518	0	111	
15	0	0	0	0	582	511	0	104	
0	0	0	0	0	562	515	0	102	
1	0	0	0	0	544	517	0	101	
2	0	0	0	0	493	511	0	104	
3	0	0	0	0	507	507	0	113	
4	0	0	0	0	562	498	0	103	
5	0	0	0	0	543	491	0	104	
6	0	0	0	0	453	502	0	109	
7	0	0	0	0	473	515	0	106	
8	0	0	0	0	541	525	0	107	
9	0	0	0	0	514	512	0	112	
10	0	0	0	0	377	510	0	125	
11	0	0	0	0	400	512	0	112	
12	0	0	0	0	515	508	0	109	
13	0	0	0	0	654	496	0	115	
14	0	0	0	0	621	497	0	114	
15	0	0	0	0	508	503	0	115	
0	0	0	0	0	528	505	0	119	
1	0	0	0	0	502	504	0	117	
2	0	0	0	0	464	516	0	117	
3	0	0	0	0	460	519	0	116	
4	0	0	0	0	488	518	0	125	
5	0	0	0	0	483	512	0	114	
6	0	0	0	0	461	506	0	118	
7	0	0	0	0	504	507	0	123	
8	0	0	0	0	583	520	0	127	
9	0	0	0	0	462	519	0	128	
10	0	0	0	0	399	516	0	128	
11	0	0	0	0	492	516	0	130	
12	0	0	0	0	704	511	0	129	
13	0	0	0	0	704	504	0	130	
14	0	0	0	0	624	519	0	128	
15	0	0	0	0	376	519	0	129	
0	0	0	0	0	348	507	0	122	
1	0	0	0	0	559	512	0	126	
2	0	0	0	0	512	513	0	128	
3	0	0	0	0	311	508	0	128	
4	0	0	0	0	318	502	0	129	
5	0	0	0	0	568	499	0	127	
6	0	0	0	0	670	506	0	129	
7	0	0	0	0	668	505	0	125	
8	0	0	0	0	536	498	0	124	
9	0	0	0	0	491	509	0	124	
10	0	0	0	0	510	510	0	122	
11	0	0	0	0	519	511	0	119	
12	0	0	0	0	500	513	0	120	
13	0	0	0	0	532	525	0	119	
14	0	0	0	0	473	532	0	121	
15	0	0	0	0	448	516	0	122	
0	0	0	0	0	481	510	0	115	
1	0	0	0	0	362	518	0	112	
2	0	0	0	0	472	515	0	115	
3	0	0	0	0	602	509	0	114	
4	0	0	0	0	613	491	0	116	
5	0	0	0	0	583	491	0	115	
6	0	0	0	0	582	496	0	115	
7	0	0	0	0	487	511	0	116	
8	0	0	0	0	539	508	0	114	
9	0	0	0	0	459	515	0	118	
10	0	0	0	0	340	524	0	115	
11	0	0	0	0	383	523	0	115	
12	0	0	0	0	425	517	0	117	
13	0	0	0	0	550	510	0	119	
14	0	0	0	0	588	511	0	119	
15	0	0	0	0	612	511	0	121	
0	0	0	0	0	586	514	0	124	
1	0	0	0	0	593	518	0	123	
2	0	0	0	0	524	512	0	123	
3	0	0	0	0	456	510	0	124	
4	0	0	0	0	482	513	0	126	
5	0	0	0	0	480	512	0	127	
6	0	0	0	0	479	507	0	122	
7	0	0	0	0	448	515	0	120	
8	0	0	0	0	363	515	0	126	
9	0	0	0	0	633	507	0	118	
10	0	0	0	0	611	499	0	123	
11	0	0	0	0	542	495	0	123	
12	0	0	0	0	463	499	0	126	
13	0	0	0	0	579	502	0	123	
14	0	0	0	0	579	510	0	123	
15	0	0	0	0	469	509	0	125	
0	0	0	0	0	403	523	0	129	
1	0	0	0	0	480	525	0	128	
2	0	0	0	0	480	527	0	122	
3	0	0	0	0	469	524	0	121	
4	0	0	0	0	484	521	0	123	
5	0	0	0	0	529	518	0	120	
6	0	0	0	0	553	517	0	120	
7	0	0	0	0	532	494	0	121	
8	0	0	0	0	519	490	0	118	
9	0	0	0	0	551	498	0	116	
10	0	0	0	0	513	504	0	114	
11	0	0	0	0	515	509	0	121	
12	0	0	0	0	389	499	0	113	
13	0	0	0	0	529	496	0	112	
14	0	0	0	0	606	507	0	123	
15	0	0	0	0	519	513	0	114	
0	0	0	0	0	484	517	0	112	
1	0	0	0	0	466	525	0	112	
2	0	0	0	0	481	524	0	110	
3	0	0	0	0	497	521	0	112	
4	0	0	0	0	483	516	0	112	
5	0	0	0	0	529	509	0	114	
6	0	0	0	0	588	504	0	114	
7	0	0	0	0	518	502	0	112	
8	0	0	0	0	488	498	0	114	
9	0	0	0	0	520	499	0	113	
10	0	0	0	0	541	511	0	111	
11	0	0	0	0	484	513	0	112	
12	0	0	0	0	496	508	0	110	
13	0	0	0	0	503	505	0	108	
14	0	0	0	0	517	511	0	110	
15	0	0	0	0	479	511	0	106	
0	0	0	0	0	558	519	0	105	
1	0	0	0	0	480	521	0	103	
2	0	0	0	0	383	514	0	106	
3	0	0	0	0	494	516	0	103	
4	0	0	0	0	564	521	0	105	
5	0	0	0	0	565	515	0	105	
6	0	0	0	0	490	506	0	103	
7	0	0	0	0	487	504	0	100	
8	0	0	0	0	527	506	0	98	
9	0	0	0	0	551	516	0	94	
10	0	0	0	0	487	514	0	92	
11	0	0	0	0	460	505	0	92	
12	0	0	0	0	527	512	0	92	
13	0	0	0	0	579	512	0	90	
14	0	0	0	0	524	516	0	93	
15	0	0	0	0	486	517	0	90	
0	0	0	0	0	490	512	0	91	
1	0	0	0	0	471	507	0	91	
2	0	0	0	0	459	503	0	87	
3	0	0	0	0	584	508	0	88	
4	0	0	0	0	580	508	0	87	
5	0	0	0	0	472	513	0	86	
6	0	0	0	0	477	527	0	85	
7	0	0	0	0	586	524	0	86	
8	0	0	0	0	440	522	0	86	
9	0	0	0	0	392	512	0	85	
10	0	0	0	0	440	503	0	84	
11	0	0	0	0	563	503	0	83	
12	0	0	0	0	594	496	0	83	
13	0	0	0	0	572	497	0	83	
14	0	0	0	0	504	505	0	83	
15	0	0	0	0	470	509	0	83	
0	0	0	0	0	567	502	0	83	
1	0	0	0	0	583	503	0	83	
2	0	0	0	0	542	503	0	83	
3	0	0	0	0	498	517	0	83	
4	0	0	0	0	481	524	0	83	
5	0	0	0	0	462	522	0	83	
6	0	0	0	0	421	514	0	83	
7	0	0	0	0	492	512	0	83	
8	0	0	0	0	521	512	0	83	
9	0	0	0	0	518	507	0	83	
10	0	0	0	0	494	503	0	83	
11	0	0	0	0	503	507	0	83	
12	0	0	0	0	483	511	0	83	
13	0	0	0	0	483	514	0	82	
14	0	0	0	0	513	509	0	83	
15	0	0	0	0	569	511	0	82	
0	0	0	0	0	544	513	0	82	
1	0	0	0	0	485	518	0	82	
2	0	0	0	0	480	518	0	82	
3	0	0	0	0	542	518	0	81	
4	0	0	0	0	590	519	0	81	
5	0	0	0	0	554	517	0	80	
6	0	0	0	0	520	517	0	79	
7	0	0	0	0	472	515	0	77	
8	0	0	0	0	470	513	0	77	
9	0	0	0	0	476	506	0	76	
10	0	0	0	0	513	500	0	75	
11	0	0	0	0	470	491	0	76	
12	0	0	0	0	411	487	0	75	
13	0	0	0	0	501	502	0	76	
14	0	0	0	0	571	511	0	75	
15	0	0	0	0	515	508	0	73	
0	0	0	0	0	645	507	0	74	
1	0	0	0	0	557	510	0	72	
2	0	0	0	0	472	521	0	71	
3	0	0	0	0	455	520	0	68	
4	0	0	0	0	455	505	0	69	
5	0	0	0	0	513	508	0	68	
6	0	0	0	0	517	503	0	66	
7	0	0	0	0	504	500	0	64	
8	0	0	0	0	459	505	0	60	
9	0	0	0	0	475	507	0	59	
10	0	0	0	0	574	518	0	55	
11	0	0	0	0	615	519	0	54	
12	0	0	0	0	539	515	0	55	
13	0	0	0	0	534	525	0	50	
14	0	0	0	0	512	518	0	49	
15	0	0	0	0	515	512	0	42	
0	0	0	0	0	386	518	0	39	
1	0	0	0	0	404	516	0	33	
2	0	0	0	0	460	510	0	28	
3	0	0	0	0	537	507	0	25	
4	0	0	0	0	515	502	0	22	
5	0	0	0	0	515	502	0	17	
6	0	0	0	0	528	496	0	0	
7	0	0	0	0	606	504	0	0	
8	0	0	0	0	636	513	0	0	
9	0	0	0	0	547	508	0	0	
10	0	0	0	0	431	519	0	2	
11	0	0	0	0	459	517	0	1	
12	0	0	0	0	462	519	0	0	
13	0	0	0	0	488	514	0	0	
14	0	0	0	0	474	508	0	0	
15	0	0	0	0	475	507	0	0	
0	0	0	0	0	505	512	0	0	
1	0	0	0	0	609	505	0	0	
2	0	0	0	0	529	503	0	0	
3	0	0	0	0	396	502	0	0	
4	0	0	0	0	387	514	0	0	
5	0	0	0	0	628	528	0	0	
6	0	0	0	0	570	527	0	0	
7	0	0	0	0	481	514	0	0	
8	0	0	0	0	501	503	0	0	
9	0	0	0	0	528	501	0	0	
10	0	0	0	0	664	516	0	0	
11	0	0	0	0	463	515	0	0	
12	0	0	0	0	430	510	0	0	
13	0	0	0	0	421	502	0	0	
14	0	0	0	0	470	500	0	0	
15	0	0	0	0	566	516	0	0	
0	0	0	0	0	549	519	0	0	
1	0	0	0	0	527	515	0	0	
2	0	0	0	0	529	509	0	0	
3	0	0	0	0	625	495	0	0	
4	0	0	0	0	561	512	0	0	
5	0	0	0	0	415	523	0	0	
6	0	0	0	0	428	508	0	0	
7	0	0	0	0	477	505	0	0	
8	0	0	0	0	543	508	0	0	
9	0	0	0	0	548	506	0	0	
10	0	0	0	0	453	506	0	0	
11	0	0	0	0	482	508	0	0	
12	0	0	0	0	487	517	0	0	
13	0	0	0	0	501	514	0	0	
14	0	0	0	0	523	506	0	0	
15	0	0	0	0	527	509	0	0	
0	0	0	0	0	556	519	0	0	
1	0	0	0	0	469	525	0	0	
2	0	0	0	0	417	516	0	0	
3	0	0	0	0	420	504	0	0	
4	0	0	0	0	516	507	0	0	
5	0	0	0	0	619	518	0	0	
6	0	0	0	0	607	511	0	0	
7	0	0	0	0	567	492	0	0	
8	0	0	0	0	569	487	0	0	
9	0	0	0	0	455	502	0	0	
10	0	0	0	0	456	519	0	0	
11	0	0	0	0	496	520	0	0	
12	0	0	0	0	444	512	0	0	
13	0	0	0	0	463	508	0	0	
14	0	0	0	0	524	511	0	0	
15	0	0	0	0	587	518	0	0	
0	0	0	0	0	568	508	0	0	
1	0	0	0	0	483	507	0	0	
2	0	0	0	0	476	512	0	0	
3	0	0	0	0	491	508	0	0	
4	0	0	0	0	484	506	0	0	
5	0	0	0	0	518	515	0	0	
6	0	0	0	0	498	521	0	0	
7	0	0	0	0	484	524	0	0	
8	0	0	0	0	498	519	0	0	
9	0	0	0	0	551	525	0	0	
10	0	0	0	0	568	530	0	0	
11	0	0	0	0	503	521	0	0	
12	0	0	0	0	515	506	0	0	
13	0	0	0	0	484	491	0	0	
14	0	0	0	0	569	486	0	0	
15	0	0	0	0	502	490	0	0	
0	0	0	0	0	480	499	0	0	
1	0	0	0	0	442	508	0	0	
2	0	0	0	0	426	524	0	0	
3	0	0	0	0	476	522	0	0	
4	0	0	0	0	539	511	0	0	
5	0	0	0	0	620	499	0	0	
6	0	0	0	0	585	502	0	0	
7	0	0	0	0	447	495	0	0	
8	0	0	0	0	414	491	0	0	
9	0	0	0	0	561	502	0	0	
10	0	0	0	0	642	516	0	0	
11	0	0	0	0	618	526	0	0	
12	0	0	0	0	431	518	0	0	
13	0	0	0	0	424	518	0	0	
14	0	0	0	0	477	517	0	0	
15	0	0	0	0	509	519	0	0	
0	0	0	0	0	481	518	0	0	
1	0	0	0	0	494	511	0	0	
2	0	0	0	0	479	508	0	0	
3	0	0	0	0	555	510	0	0	
4	0	0	0	0	581	525	0	0	
5	0	0	0	0	492	523	0	0	
6	0	0	0	0	455	514	0	0	
7	0	0	0	0	483	511	0	0	
8	0	0	0	0	499	509	0	0	
9	0	0	0	0	488	507	0	0	
10	0	0	0	0	478	508	0	0	
11	0	0	0	0	510	510	0	0	
12	0	0	0	0	494	506	0	0	
13	0	0	0	0	560	506	0	0	
14	0	0	0	0	461	501	0	0	
15	0	0	0	0	540	501	0	0	
0	0	0	0	0	638	503	0	0	
1	0	0	0	0	590	509	0	0	
2	0	0	0	0	594	516	0	0	
3	0	0	0	0	511	521	0	0	
4	0	0	0	0	347	513	0	0	
5	0	0	0	0	410	518	0	0	
6	0	0	0	0	470	522	0	0	
7	0	0	0	0	519	531	0	0	
8	0	0	0	0	415	523	0	0	
9	0	0	0	0	507	514	0	0	
10	0	0	0	0	584	505	0	0	
11	0	0	0	0	573	508	0	0	
12	0	0	0	0	541	508	0	0	
13	0	0	0	0	532	502	0	0	
14	0	0	0	0	523	495	0	0	
15	0	0	0	0	505	492	0	0	
0	0	0	0	0	480	499	0	0	
1	0	0	0	0	477	509	0	0	
2	0	0	0	0	503	508	0	0	
3	0	0	0	0	489	510	0	0	
4	0	0	0	0	495	518	0	0	
5	0	0	0	0	491	508	0	0	
6	0	0	0	0	545	503	0	0	
7	0	0	0	0	570	507	0	0	
8	0	0	0	0	582	514	0	0	
9	0	0	0	0	504	511	0	0	
10	0	0	0	0	449	507	0	0	
11	0	0	0	0	356	508	0	0	
12	0	0	0	0	492	510	0	0	
13	0	0	0	0	689	525	0	0	
14	0	0	0	0	528	525	0	0	
15	0	0	0	0	453	521	0	0	
0	0	0	0	0	501	508	0	0	
1	0	0	0	0	491	520	0	0	
2	0	0	0	0	447	522	0	0	
3	0	0	0	0	433	515	0	0	
4	0	0	0	0	500	515	0	0	
5	0	0	0	0	505	504	0	0	
6	0	0	0	0	565	504	0	0	
7	0	0	0	0	692	496	0	0	
8	0	0	0	0	560	492	0	0	
9	0	0	0	0	512	486	0	0	
10	0	0	0	0	485	497	0	0	
11	0	0	0	0	471	515	0	0	
12	0	0	0	0	498	521	0	0	
13	0	0	0	0	477	511	0	0	
14	0	0	0	0	546	521	0	0	
15	0	0	0	0	487	517	0	0	
0	0	0	0	0	525	516	0	0	
1	0	0	0	0	502	506	0	0	
2	0	0	0	0	481	504	0	0	
3	0	0	0	0	456	508	0	0	
4	0	0	0	0	446	513	0	0	
5	0	0	0	0	528	516	0	0	
6	0	0	0	0	594	516	0	0	
7	0	0	0	0	501	513	0	0	
8	0	0	0	0	440	522	0	0	
9	0	0	0	0	445	522	0	0	
10	0	0	0	0	475	520	0	0	
11	0	0	0	0	557	522	0	0	
12	0	0	0	0	582	515	0	0	
13	0	0	0	0	552	504	0	0	
14	0	0	0	0	556	504	0	0	
15	0	0	0	0	516	507	0	0	
0	0	0	0	0	474	497	0	0	
1	0	0	0	0	493	489	0	0	
2	0	0	0	0	547	492	0	0	
3	0	0	0	0	560	505	0	0	
4	0	0	0	0	517	508	0	0	
5	0	0	0	0	482	508	0	0	
6	0	0	0	0	414	504	0	0	
7	0	0	0	0	490	514	0	0	
8	0	0	0	0	495	519	0	0	
9	0	0	0	0	478	526	0	0	
10	0	0	0	0	504	515	0	0	
11	0	0	0	0	482	508	0	0	
12	0	0	0	0	500	505	0	0	
13	0	0	0	0	511	507	0	0	
14	0	0	0	0	559	510	0	0	
15	0	0	0	0	572	511	0	0	
0	0	0	0	0	551	519	0	0	
1	0	0	0	0	569	518	0	0	
2	0	0	0	0	519	521	0	0	
3	0	0	0	0	497	527	0	0	
4	0	0	0	0	427	524	0	0	
5	0	0	0	0	424	515	0	0	
6	0	0	0	0	469	510	0	0	
7	0	0	0	0	509	501	0	0	
8	0	0	0	0	628	502	0	0	
9	0	0	0	0	539	504	0	0	
10	0	0	0	0	404	504	0	0	
11	0	0	0	0	466	501	0	0	
12	0	0	0	0	542	511	0	0	
13	0	0	0	0	496	509	0	0	
14	0	0	0	0	547	511	0	0	
15	0	0	0	0	545	515	0	0	
0	0	0	0	0	537	514	0	0	
1	0	0	0	0	459	510	0	0	
2	0	0	0	0	491	513	0	0	
3	0	0	0	0	542	505	0	0	
4	0	0	0	0	502	507	0	0	
5	0	0	0	0	457	517	0	0	
6	0	0	0	0	425	514	0	0	
7	0	0	0	0	499	515	0	0	
8	0	0	0	0	633	518	0	0	
9	0	0	0	0	608	519	0	0	
10	0	0	0	0	564	512	0	0	
11	0	0	0	0	534	513	0	0	
12	0	0	0	0	505	509	0	0	
13	0	0	0	0	480	503	0	0	
14	0	0	0	0	472	504	0	0	
15	0	0	0	0	442	507	0	0	
0	0	0	0	0	521	503	0	0	
1	0	0	0	0	544	498	0	0	
2	0	0	0	0	568	508	0	0	
3	0	0	0	0	462	507	0	0	
4	0	0	0	0	434	509	0	0	
5	0	0	0	0	476	515	0	0	
6	0	0	0	0	467	514	0	0	
7	0	0	0	0	508	517	0	0	
8	0	0	0	0	506	512	0	0	
9	0	0	0	0	535	511	0	0	
10	0	0	0	0	492	515	0	0	
11	0	0	0	0	497	513	0	0	
12	0	0	0	0	563	513	0	0	
13	0	0	0	0	544	508	0	0	
14	0	0	0	0	518	511	0	0	
15	0	0	0	0	509	512	0	0	
0	0	0	0	0	453	507	0	0	
1	0	0	0	0	498	507	0	0	
2	0	0	0	0	550	517	0	0	
3	0	0	0	0	538	513	0	0	
4	0	0	0	0	533	510	0	0	
5	0	0	0	0	562	504	0	0	
6	0	0	0	0	570	497	0	0	
7	0	0	0	0	506	509	0	0	
8	0	0	0	0	446	517	0	0	
9	0	0	0	0	393	515	0	0	
10	0	0	0	0	455	517	0	0	
11	0	0	0	0	518	511	0	0	
12	0	0	0	0	515	511	0	0	
13	0	0	0	0	542	515	0	0	
14	0	0	0	0	527	513	0	0	
15	0	0	0	0	453	509	0	0	
0	0	0	0	0	458	507	0	0	
1	0	0	0	0	505	513	0	0	
2	0	0	0	0	504	508	0	0	
3	0	0	0	0	530	497	0	0	
4	0	0	0	0	632	504	0	0	
5	0	0	0	0	519	509	0	0	
6	0	0	0	0	527	512	0	0	
7	0	0	0	0	498	511	0	0	
8	0	0	0	0	508	514	0	0	
9	0	0	0	0	515	515	0	0	
10	0	0	0	0	520	515	0	0	
11	0	0	0	0	529	519	0	0	
12	0	0	0	0	540	516	0	0	
13	0	0	0	0	489	515	0	0	
14	0	0	0	0	460	518	0	0	
15	0	0	0	0	463	510	0	0	
0	0	0	0	0	511	503	0	0	
1	0	0	0	0	538	502	0	0	
2	0	0	0	0	533	504	0	0	
3	0	0	0	0	439	497	0	0	
4	0	0	0	0	362	505	0	0	
5	0	0	0	0	482	516	0	0	
6	0	0	0	0	582	528	0	0	
7	0	0	0	0	579	521	0	0	
8	0	0	0	0	563	510	0	0	
9	0	0	0	0	548	503	0	0	
10	0	0	0	0	517	509	0	0	
11	0	0	0	0	463	513	0	0	
12	0	0	0	0	409	514	0	0	
13	0	0	0	0	472	526	0	0	
14	0	0	0	0	543	516	0	0	
15	0	0	0	0	605	493	0	0	
0	0	0	0	0	605	492	0	0	
1	0	0	0	0	573	504	0	0	
2	0	0	0	0	438	506	0	0	
3	0	0	0	0	388	503	0	0	
4	0	0	0	0	467	502	0	0	
5	0	0	0	0	531	510	0	0	
6	0	0	0	0	534	514	0	0	
7	0	0	0	0	537	516	0	0	
8	0	0	0	0	504	519	0	0	
9	0	0	0	0	481	515	0	0	
10	0	0	0	0	502	517	0	0	
11	0	0	0	0	563	515	0	0	
12	0	0	0	0	535	511	0	0	
13	0	0	0	0	539	511	0	0	
14	0	0	0	0	494	508	0	0	
15	0	0	0	0	477	510	0	0	
0	0	0	0	0	453	509	0	0	
1	0	0	0	0	485	513	0	0	
2	0	0	0	0	443	512	0	0	
3	0	0	0	0	515	511	0	0	
4	0	0	0	0	587	511	0	0	
5	0	0	0	0	651	515	0	0	
6	0	0	0	0	439	517	0	0	
7	0	0	0	0	453	507	0	0	
8	0	0	0	0	535	495	0	0	
9	0	0	0	0	540	486	0	0	
10	0	0	0	0	477	498	0	0	
11	0	0	0	0	452	513	0	0	
12	0	0	0	0	564	544	0	0	
13	0	0	0	0	525	544	0	0	
14	0	0	0	0	488	528	0	0	
15	0	0	0	0	441	505	0	0	
0	0	0	0	0	487	499	0	0	
1	0	0	0	0	477	493	0	0	
2	0	0	0	0	512	494	0	0	
3	0	0	0	0	507	507	0	0	
4	0	0	0	0	548	507	0	0	
5	0	0	0	0	630	505	0	0	
6	0	0	0	0	611	500	0	0	
7	0	0	0	0	502	512	0	0	
8	0	0	0	0	471	515	0	0	
9	0	0	0	0	412	513	0	0	
10	0	0	0	0	386	512	0	0	
11	0	0	0	0	452	509	0	0	
12	0	0	0	0	600	517	0	0	
13	0	0	0	0	666	526	0	0	
14	0	0	0	0	479	524	0	0	
15	0	0	0	0	419	523	0	0	
0	0	0	0	0	431	508	0	0	
1	0	0	0	0	520	496	0	0	
2	0	0	0	0	620	496	0	0	
3	0	0	0	0	580	510	0	0	
4	0	0	0	0	484	517	0	0	
5	0	0	0	0	463	513	0	0	
6	0	0	0	0	518	515	0	0	
7	0	0	0	0	505	510	0	0	
8	0	0	0	0	611	511	0	0	
9	0	0	0	0	521	508	0	0	
10	0	0	0	0	412	501	0	0	
11	0	0	0	0	426	500	0	0	
12	0	0	0	0	454	502	0	0	
13	0	0	0	0	575	508	0	0	
14	0	0	0	0	552	519	0	0	
15	0	0	0	0	527	517	0	0	
0	0	0	0	0	611	513	0	0	
1	0	0	0	0	444	510	0	0	
2	0	0	0	0	481	515	0	0	
3	0	0	0	0	534	515	0	0	
4	0	0	0	0	465	516	0	0	
5	0	0	0	0	466	514	0	0	
6	0	0	0	0	440	515	0	0	
7	0	0	0	0	451	516	0	0	
8	0	0	0	0	505	510	0	0	
9	0	0	0	0	563	516	0	0	
10	0	0	0	0	601	511	0	0	
11	0	0	0	0	496	502	0	0	
12	0	0	0	0	515	515	0	0	
13	0	0	0	0	458	512	0	0	
14	0	0	0	0	472	520	0	0	
15	0	0	0	0	615	533	0	0	
0	0	0	0	0	563	517	0	0	
1	0	0	0	0	542	495	0	0	
2	0	0	0	0	487	484	0	0	
3	0	0	0	0	508	482	0	0	
4	0	0	0	0	459	489	0	0	
5	0	0	0	0	462	499	0	0	
6	0	0	0	0	518	499	0	0	
7	0	0	0	0	427	495	0	0	
8	0	0	0	0	460	512	0	0	
9	0	0	0	0	594	519	0	0	
10	0	0	0	0	614	519	0	0	
11	0	0	0	0	625	517	0	0	
12	0	0	0	0	583	522	0	0	
13	0	0	0	0	428	517	0	0	
14	0	0	0	0	351	511	0	0	
15	0	0	0	0	426	523	0	0	
0	0	0	0	0	426	519	0	0	
1	0	0	0	0	511	508	0	0	
2	0	0	0	0	516	507	0	0	
3	0	0	0	0	604	514	0	0	
4	0	0	0	0	589	515	0	0	
5	0	0	0	0	571	517	0	0	
6	0	0	0	0	515	510	0	0	
7	0	0	0	0	516	507	0	0	
8	0	0	0	0	500	501	0	0	
9	0	0	0	0	446	516	0	0	
10	0	0	0	0	503	534	0	0	
11	0	0	0	0	550	523	0	0	
12	0	0	0	0	460	510	0	0	
13	0	0	0	0	520	505	0	0	
14	0	0	0	0	535	503	0	0	
15	0	0	0	0	529	504	0	0	
0	0	0	0	0	473	509	0	0	
1	0	0	0	0	433	513	0	0	
2	0	0	0	0	467	513	0	0	
3	0	0	0	0	515	508	0	0	
4	0	0	0	0	591	504	0	0	
5	0	0	0	0	594	499	0	0	
6	0	0	0	0	531	501	0	0	
7	0	0	0	0	461	511	0	0	
8	0	0	0	0	407	515	0	0	
9	0	0	0	0	426	512	0	0	
10	0	0	0	0	551	512	0	0	
11	0	0	0	0	598	510	0	0	
12	0	0	0	0	484	506	0	0	
13	0	0	0	0	429	512	0	0	
14	0	0	0	0	524	516	0	0	
15	0	0	0	0	546	520	0	0	
0	0	0	0	0	626	515	0	0	
1	0	0	0	0	499	517	0	0	
2	0	0	0	0	393	520	0	0	
3	0	0	0	0	507	509	0	0	
4	0	0	0	0	560	510	0	0	
5	0	0	0	0	519	507	0	0	
6	0	0	0	0	481	510	0	0	
7	0	0	0	0	548	520	0	0	
8	0	0	0	0	504	508	0	0	
9	0	0	0	0	483	495	0	0	
10	0	0	0	0	532	499	0	0	
11	0	0	0	0	548	508	0	0	
12	0	0	0	0	535	515	0	0	
13	0	0	0	0	440	512	0	0	
14	0	0	0	0	361	497	0	0	
15	0	0	0	0	495	494	0	0	
0	0	0	0	0	509	497	0	0	
1	0	0	0	0	551	508	0	0	
2	0	0	0	0	667	518	0	0	
3	0	0	0	0	560	506	0	0	
4	0	0	0	0	505	507	0	0	
5	0	0	0	0	384	503	0	0	
6	0	0	0	0	547	529	0	0	
7	0	0	0	0	604	519	0	0	
8	0	0	0	0	540	524	0	0	
9	0	0	0	0	417	517	0	0	
10	0	0	0	0	419	517	0	0	
11	0	0	0	0	455	520	0	0	
12	0	0	0	0	543	507	0	0	
13	0	0	0	0	517	504	0	0	
14	0	0	0	0	478	509	0	0	
15	0	0	0	0	534	522	0	0	
0	0	0	0	0	570	518	0	0	
1	0	0	0	0	524	508	0	0	
2	0	0	0	0	508	507	0	0	
3	0	0	0	0	476	508	0	0	
4	0	0	0	0	473	506	0	0	
5	0	0	0	0	512	505	0	0	
6	0	0	0	0	546	504	0	0	
7	0	0	0	0	519	501	0	0	
8	0	0	0	0	527	502	0	0	
9	0	0	0	0	469	508	0	0	
10	0	0	0	0	512	518	0	0	
11	0	0	0	0	463	508	0	0	
12	0	0	0	0	579	518	0	0	
13	0	0	0	0	540	513	0	0	
14	0	0	0	0	452	508	0	0	
15	0	0	0	0	465	507	0	0	
0	0	0	0	0	486	513	0	0	
1	0	0	0	0	445	524	0	0	
2	0	0	0	0	448	522	0	0	
3	0	0	0	0	463	513	0	0	
4	0	0	0	0	616	516	0	0	
5	0	0	0	0	757	516	0	0	
6	0	0	0	0	550	514	0	0	
7	0	0	0	0	416	509	0	0	
8	0	0	0	0	448	508	0	0	
9	0	0	0	0	430	511	0	0	
10	0	0	0	0	541	499	0	0	
11	0	0	0	0	588	495	0	0	
12	0	0	0	0	543	502	0	0	
13	0	0	0	0	495	519	0	0	
14	0	0	0	0	442	516	0	0	
15	0	0	0	0	450	500	0	0	
0	0	0	0	0	480	499	0	0	
1	0	0	0	0	611	509	0	0	
2	0	0	0	0	509	506	0	0	
3	0	0	0	0	495	517	0	0	
4	0	0	0	0	521	513	0	0	
5	0	0	0	0	505	511	0	0	
6	0	0	0	0	482	507	0	0	
7	0	0	0	0	607	509	0	0	
8	0	0	0	0	590	518	0	0	
9	0	0	0	0	490	510	0	0	
10	0	0	0	0	383	502	0	0	
11	0	0	0	0	483	513	0	0	
12	0	0	0	0	506	517	0	0	
13	0	0	0	0	505	526	0	0	
14	0	0	0	0	496	524	0	0	
15	0	0	0	0	475	517	0	0	
0	0	0	0	0	569	518	0	0	
1	0	0	0	0	603	504	0	0	
2	0	0	0	0	543	502	0	0	
3	0	0	0	0	450	508	0	0	
4	0	0	0	0	473	501	0	0	
5	0	0	0	0	452	510	0	0	
6	0	0	0	0	500	511	0	0	
7	0	0	0	0	487	514	0	0	
8	0	0	0	0	539	505	0	0	
9	0	0	0	0	523	505	0	0	
10	0	0	0	0	462	504	0	0	
11	0	0	0	0	473	501	0	0	
12	0	0	0	0	574	503	0	0	
13	0	0	0	0	519	506	0	0	
14	0	0	0	0	511	511	0	0	
15	0	0	0	0	524	516	0	0	
0	0	0	0	0	549	518	0	0	
1	0	0	0	0	558	526	0	0	
2	0	0	0	0	543	524	0	0	
3	0	0	0	0	485	518	0	0	
4	0	0	0	0	494	512	0	0	
5	0	0	0	0	462	504	0	0	
6	0	0	0	0	442	503	0	0	
7	0	0	0	0	522	502	0	0	
8	0	0	0	0	536	501	0	0	
9	0	0	0	0	533	500	0	0	
10	0	0	0	0	520	508	0	0	
11	0	0	0	0	470	512	0	0	
12	0	0	0	0	488	513	0	0	
13	0	0	0	0	528	511	0	0	
14	0	0	0	0	495	508	0	0	
15	0	0	0	0	427	511	0	0	
0	0	0	0	0	483	508	0	0	
1	0	0	0	0	519	518	0	0	
2	0	0	0	0	582	519	0	0	
3	0	0	0	0	549	517	0	0	
4	0	0	0	0	515	508	0	0	
5	0	0	0	0	479	513	0	0	
6	0	0	0	0	531	520	0	0	
7	0	0	0	0	451	512	0	0	
8	0	0	0	0	512	510	0	0	
9	0	0	0	0	558	513	0	0	
10	0	0	0	0	461	506	0	0	
11	0	0	0	0	499	511	0	0	
12	0	0	0	0	537	504	0	0	
13	0	0	0	0	594	505	0	0	
14	0	0	0	0	555	504	0	0	
15	0	0	0	0	494	496	0	0	
0	0	0	0	0	483	499	0	0	
1	0	0	0	0	503	508	0	0	
2	0	0	0	0	508	508	0	0	
3	0	0	0	0	487	513	0	0	
4	0	0	0	0	432	515	0	0	
5	0	0	0	0	501	516	0	0	
6	0	0	0	0	536	513	0	0	
7	0	0	0	0	576	513	0	0	
8	0	0	0	0	541	515	0	0	
9	0	0	0	0	440	511	0	0	
10	0	0	0	0	375	509	0	0	
11	0	0	0	0	450	513	0	0	
12	0	0	0	0	554	517	0	0	
13	0	0	0	0	591	517	0	0	
14	0	0	0	0	548	511	0	0	
15	0	0	0	0	539	508	0	0	
0	0	0	0	0	564	515	0	0	
1	0	0	0	0	546	508	0	0	
2	0	0	0	0	411	508	0	0	
3	0	0	0	0	443	511	0	0	
4	0	0	0	0	434	515	0	0	
5	0	0	0	0	518	516	0	0	
6	0	0	0	0	541	515	0	0	
7	0	0	0	0	549	515	0	0	
8	0	0	0	0	556	515	0	0	
9	0	0	0	0	517	512	0	0	
10	0	0	0	0	511	508	0	0	
11	0	0	0	0	520	508	0	0	
12	0	0	0	0	518	507	0	0	
13	0	0	0	0	512	509	0	0	
14	0	0	0	0	505	508	0	0	
15	0	0	0	0	503	511	0	0	
0	0	0	0	0	499	508	0	0	
1	0	0	0	0	501	510	0	0	
2	0	0	0	0	503	510	0	0	
3	0	0	0	0	511	510	0	0	
4	0	0	0	0	503	508	0	0	
5	0	0	0	0	500	508	0	0	
6	0	0	0	0	502	510	0	0	
7	0	0	0	0	505	511	0	0	
8	0	0	0	0	508	511	0	0	
9	0	0	0	0	503	508	0	0	
10	0	0	0	0	508	510	0	0	
11	0	0	0	0	510	508	0	0	
12	0	0	0	0	510	511	0	0	
13	0	0	0	0	514	509	0	0	
14	0	0	0	0	515	509	0	0	
15	0	0	0	0	514	508	0	0	
0	0	0	0	0	511	513	0	0	
1	0	0	0	0	512	513	0	0	
2	0	0	0	0	511	510	0	0	
3	0	0	0	0	508	511	0	0	
4	0	0	0	0	506	514	0	0	
5	0	0	0	0	504	510	0	0	
6	0	0	0	0	506	509	0	0	
7	0	0	0	0	505	510	0	0	
8	0	0	0	0	504	512	0	0	
9	0	0	0	0	504	510	0	0	
10	0	0	0	0	506	511	0	0	
11	0	0	0	0	514	511	0	0	
12	0	0	0	0	512	512	0	0	
13	0	0	0	0	511	511	0	0	
14	0	0	0	0	518	509	0	0	
15	0	0	0	0	514	511	0	0	
0	0	0	0	0	512	510	0	0	
1	0	0	0	0	507	511	0	0	
2	0	0	0	0	508	511	0	0	
3	0	0	0	0	510	512	0	0	
4	0	0	0	0	510	508	0	0	
5	0	0	0	0	504	508	0	0	
6	0	0	0	0	497	508	0	0	
7	0	0	0	0	499	510	0	0	
8	0	0	0	0	504	509	0	0	
9	0	0	0	0	505	510	0	0	
10	0	0	0	0	507	511	0	0	
11	0	0	0	0	507	511	0	0	
12	0	0	0	0	507	511	0	0	
13	0	0	0	0	507	511	0	0	
14	0	0	0	0	506	510	0	0	
15	0	0	0	0	511	512	0	0	
0	0	0	0	0	512	511	0	0	
1	0	0	0	0	514	511	0	0	
2	0	0	0	0	508	508	0	0	
3	0	0	0	0	511	510	0	0	
4	0	0	0	0	508	508	0	0	
5	0	0	0	0	509	510	0	0	
6	0	0	0	0	516	511	0	0	
7	0	0	0	0	515	509	0	0	
8	0	0	0	0	519	512	0	0	
9	0	0	0	0	514	511	0	0	
10	0	0	0	0	513	512	0	0	
11	0	0	0	0	512	512	0	0	
12	0	0	0	0	507	515	0	0	
13	0	0	0	0	504	511	0	0	
14	0	0	0	0	504	509	0	0	
15	0	0	0	0	498	508	0	0	
0	0	0	0	0	501	511	0	0	
1	0	0	0	0	506	510	0	0	
2	0	0	0	0	507	508	0	0	
3	0	0	0	0	501	508	0	0	
4	0	0	0	0	499	508	0	0	
5	0	0	0	0	503	509	0	0	
6	0	0	0	0	511	511	0	0	
7	0	0	0	0	515	511	0	0	
8	0	0	0	0	518	511	0	0	
9	0	0	0	0	516	509	0	0	
10	0	0	0	0	513	510	0	0	
11	0	0	0	0	513	509	0	0	
12	0	0	0	0	516	512	0	0	
13	0	0	0	0	514	510	0	0	
14	0	0	0	0	510	512	0	0	
15	0	0	0	0	510	509	0	0	
0	0	0	0	0	506	511	0	0	
1	0	0	0	0	505	513	0	0	
2	0	0	0	0	507	511	0	0	
3	0	0	0	0	503	510	0	0	
4	0	0	0	0	501	511	0	0	
5	0	0	0	0	503	510	0	0	
6	0	0	0	0	504	509	0	0	
7	0	0	0	0	505	510	0	0	
8	0	0	0	0	508	510	0	0	
9	0	0	0	0	511	512	0	0	
10	0	0	0	0	510	511	0	0	
11	0	0	0	0	512	511	0	0	
12	0	0	0	0	514	510	0	0	
13	0	0	0	0	516	512	0	0	
14	0	0	0	0	515	512	0	0	
15	0	0	0	0	514	515	0	0	
0	0	0	0	0	515	512	0	0	
1	0	0	0	0	510	512	0	0	
2	0	0	0	0	508	510	0	0	
3	0	0	0	0	508	509	0	0	
4	0	0	0	0	505	509	0	0	
5	0	0	0	0	503	510	0	0	
6	0	0	0	0	503	509	0	0	
7	0	0	0	0	503	510	0	0	
8	0	0	0	0	503	510	0	0	
9	0	0	0	0	505	511	0	0	
10	0	0	0	0	504	512	0	0	
11	0	0	0	0	504	512	0	0	
12	0	0	0	0	505	511	0	0	
13	0	0	0	0	510	511	0	0	
14	0	0	0	0	511	511	0	0	
15	0	0	0	0	514	508	0	0	
0	0	0	0	0	513	509	0	0	
1	0	0	0	0	514	512	0	0	
2	0	0	0	0	515	511	0	0	
3	0	0	0	0	515	510	0	0	
4	0	0	0	0	513	511	0	0	
5	0	0	0	0	511	511	0	0	
6	0	0	0	0	509	513	0	0	
7	0	0	0	0	509	512	0	0	
8	0	0	0	0	507	510	0	0	
9	0	0	0	0	502	508	0	0	
10	0	0	0	0	504	510	0	0	
11	0	0	0	0	505	509	0	0	
12	0	0	0	0	503	509	0	0	
13	0	0	0	0	504	507	0	0	
14	0	0	0	0	501	510	0	0	
15	0	0	0	0	505	511	0	0	
0	0	0	0	0	510	512	0	0	
1	0	0	0	0	509	509	0	0	
2	0	0	0	0	511	508	0	0	
3	0	0	0	0	510	510	0	0	
4	0	0	0	0	510	510	0	0	
5	0	0	0	0	515	511	0	0	
6	0	0	0	0	515	510	0	0	
7	0	0	0	0	515	511	0	0	
8	0	0	0	0	514	511	0	0	
9	0	0	0	0	511	510	0	0	
10	0	0	0	0	507	510	0	0	
11	0	0	0	0	508	510	0	0	
12	0	0	0	0	507	508	0	0	
13	0	0	0	0	505	511	0	0	
14	0	0	0	0	502	510	0	0	
15	0	0	0	0	501	510	0	0	
0	0	0	0	0	506	513	0	0	
1	0	0	0	0	505	509	0	0	
2	0	0	0	0	504	508	0	0	
3	0	0	0	0	504	509	0	0	
4	0	0	0	0	507	509	0	0	
5	0	0	0	0	509	510	0	0	
6	0	0	0	0	511	511	0	0	
7	0	0	0	0	513	511	0	0	
8	0	0	0	0	513	511	0	0	
9	0	0	0	0	517	511	0	0	
10	0	0	0	0	512	509	0	0	
11	0	0	0	0	512	511	0	0	
12	0	0	0	0	513	511	0	0	
13	0	0	0	0	513	512	0	0	
14	0	0	0	0	508	512	0	0	
15	0	0	0	0	507	512	0	0	
0	0	0	0	0	503	510	0	0	
1	0	0	0	0	503	512	0	0	
2	0	0	0	0	505	512	0	0	
3	0	0	0	0	504	512	0	0	
4	0	0	0	0	502	510	0	0	
5	0	0	0	0	504	511	0	0	
6	0	0	0	0	503	509	0	0	
7	0	0	0	0	507	510	0	0	
8	0	0	0	0	508	510	0	0	
9	0	0	0	0	508	509	0	0	
10	0	0	0	0	509	510	0	0	
11	0	0	0	0	513	510	0	0	
12	0	0	0	0	513	508	0	0	
13	0	0	0	0	515	512	0	0	
14	0	0	0	0	517	511	0	0	
15	0	0	0	0	513	511	0	0	
0	0	0	0	0	511	510	0	0	
1	0	0	0	0	509	511	0	0	
2	0	0	0	0	510	510	0	0	
3	0	0	0	0	511	512	0	0	
4	0	0	0	0	504	511	0	0	
5	0	0	0	0	505	512	0	0	
6	0	0	0	0	505	511	0	0	
7	0	0	0	0	503	511	0	0	
8	0	0	0	0	504	511	0	0	
9	0	0	0	0	504	512	0	0	
10	0	0	0	0	505	511	0	0	
11	0	0	0	0	504	513	0	0	
12	0	0	0	0	508	512	0	0	
13	0	0	0	0	510	513	0	0	
14	0	0	0	0	510	510	0	0	
15	0	0	0	0	513	510	0	0	
0	0	0	0	0	513	509	0	0	
1	0	0	0	0	515	513	0	0	
2	0	0	0	0	512	511	0	0	
3	0	0	0	0	512	510	0	0	
4	0	0	0	0	513	512	0	0	
5	0	0	0	0	513	512	0	0	
6	0	0	0	0	512	510	0	0	
7	0	0	0	0	510	508	0	0	
8	0	0	0	0	507	508	0	0	
9	0	0	0	0	505	510	0	0	
10	0	0	0	0	502	508	0	0	
11	0	0	0	0	503	510	0	0	
12	0	0	0	0	503	510	0	0	
13	0	0	0	0	501	510	0	0	
14	0	0	0	0	503	509	0	0	
15	0	0	0	0	505	510	0	0	
0	0	0	0	0	505	509	0	0	
1	0	0	0	0	507	511	0	0	
2	0	0	0	0	513	512	0	0	
3	0	0	0	0	513	509	0	0	
4	0	0	0	0	518	512	0	0	
5	0	0	0	0	516	510	0	0	
6	0	0	0	0	518	511	0	0	
7	0	0	0	0	514	510	0	0	
8	0	0	0	0	512	512	0	0	
9	0	0	0	0	508	512	0	0	
10	0	0	0	0	508	513	0	0	
11	0	0	0	0	508	514	0	0	
12	0	0	0	0	505	510	0	0	
13	0	0	0	0	505	509	0	0	
14	0	0	0	0	505	511	0	0	
15	0	0	0	0	504	510	0	0	
0	0	0	0	0	502	511	0	0	
1	0	0	0	0	504	509	0	0	
2	0	0	0	0	502	508	0	0	
3	0	0	0	0	506	509	0	0	
4	0	0	0	0	505	511	0	0	
5	0	0	0	0	508	510	0	0	
6	0	0	0	0	509	511	0	0	
7	0	0	0	0	511	510	0	0	
8	0	0	0	0	514	510	0	0	
9	0	0	0	0	516	508	0	0	
10	0	0	0	0	515	509	0	0	
11	0	0	0	0	513	511	0	0	
12	0	0	0	0	511	511	0	0	
13	0	0	0	0	512	511	0	0	
14	0	0	0	0	510	511	0	0	
15	0	0	0	0	508	513	0	0	
0	0	0	0	0	508	509	0	0	
1	0	0	0	0	507	507	0	0	
2	0	0	0	0	504	510	0	0	
3	0	0	0	0	504	508	0	0	
4	0	0	0	0	503	510	0	0	
5	0	0	0	0	505	510	0	0	
6	0	0	0	0	503	508	0	0	
7	0	0	0	0	503	510	0	0	
8	0	0	0	0	506	510	0	0	
9	0	0	0	0	507	512	0	0	
10	0	0	0	0	510	513	0	0	
11	0	0	0	0	515	509	0	0	
12	0	0	0	0	514	511	0	0	
13	0	0	0	0	512	512	0	0	
14	0	0	0	0	515	511	0	0	
15	0	0	0	0	518	511	0	0	
0	0	0	0	0	515	508	0	0	
1	0	0	0	0	510	513	0	0	
2	0	0	0	0	508	510	0	0	
3	0	0	0	0	508	511	0	0	
4	0	0	0	0	504	509	0	0	
5	0	0	0	0	504	509	0	0	
6	0	0	0	0	504	511	0	0	
7	0	0	0	0	503	512	0	0	
8	0	0	0	0	505	512	0	0	
9	0	0	0	0	502	512	0	0	
10	0	0	0	0	506	511	0	0	
11	0	0	0	0	510	511	0	0	
12	0	0	0	0	507	509	0	0	
13	0	0	0	0	507	510	0	0	
14	0	0	0	0	509	507	0	0	
15	0	0	0	0	511	511	0	0	
0	0	0	0	0	513	511	0	0	
1	0	0	0	0	513	513	0	0	
2	0	0	0	0	515	510	0	0	
3	0	0	0	0	515	509	0	0	
4	0	0	0	0	509	511	0	0	
5	0	0	0	0	511	513	0	0	
6	0	0	0	0	509	510	0	0	
7	0	0	0	0	508	510	0	0	
8	0	0	0	0	507	511	0	0	
9	0	0	0	0	507	511	0	0	
10	0	0	0	0	505	510	0	0	
11	0	0	0	0	504	509	0	0	
12	0	0	0	0	503	510	0	0	
13	0	0	0	0	501	511	0	0	
14	0	0	0	0	504	509	0	0	
15	0	0	0	0	505	508	0	0	
0	0	0	0	0	507	510	0	0	
1	0	0	0	0	510	511	0	0	
2	0	0	0	0	511	510	0	0	
3	0	0	0	0	512	510	0	0	
4	0	0	0	0	511	511	0	0	
5	0	0	0	0	514	511	0	0	
6	0	0	0	0	513	512	0	0	
7	0	0	0	0	512	510	0	0	
8	0	0	0	0	511	513	0	0	
9	0	0	0	0	511	509	0	0	
10	0	0	0	0	510	510	0	0	
11	0	0	0	0	508	511	0	0	
12	0	0	0	0	506	510	0	0	
13	0	0	0	0	506	511	0	0	
14	0	0	0	0	504	510	0	0	
15	0	0	0	0	506	508	0	0	
0	0	0	0	0	503	511	0	0	
1	0	0	0	0	508	510	0	0	
2	0	0	0	0	505	511	0	0	
3	0	0	0	0	506	512	0	0	
4	0	0	0	0	507	510	0	0	
5	0	0	0	0	506	509	0	0	
6	0	0	0	0	508	511	0	0	
7	0	0	0	0	512	513	0	0	
8	0	0	0	0	516	512	0	0	
9	0	0	0	0	519	513	0	0	
10	0	0	0	0	514	511	0	0	
11	0	0	0	0	511	511	0	0	
12	0	0	0	0	506	511	0	0	
13	0	0	0	0	507	512	0	0	
14	0	0	0	0	509	510	0	0	
15	0	0	0	0	508	511	0	0	
0	0	0	0	0	504	511	0	0	
1	0	0	0	0	508	508	0	0	
2	0	0	0	0	506	512	0	0	
3	0	0	0	0	504	510	0	0	
4	0	0	0	0	503	509	0	0	
5	0	0	0	0	504	510	0	0	
6	0	0	0	0	504	510	0	0	
7	0	0	0	0	506	510	0	0	
8	0	0	0	0	508	510	0	0	
9	0	0	0	0	511	510	0	0	
10	0	0	0	0	512	510	0	0	
11	0	0	0	0	513	508	0	0	
12	0	0	0	0	513	513	0	0	
13	0	0	0	0	513	512	0	0	
14	0	0	0	0	514	510	0	0	
15	0	0	0	0	512	510	0	0	
0	0	0	0	0	513	511	0	0	
1	0	0	0	0	511	509	0	0	
2	0	0	0	0	511	511	0	0	
3	0	0	0	0	510	510	0	0	
4	0	0	0	0	506	511	0	0	
5	0	0	0	0	503	511	0	0	
6	0	0	0	0	504	510	0	0	
7	0	0	0	0	504	511	0	0	
8	0	0	0	0	503	510	0	0	
9	0	0	0	0	506	510	0	0	
10	0	0	0	0	500	510	0	0	
11	0	0	0	0	499	508	0	0	
12	0	0	0	0	501	507	0	0	
13	0	0	0	0	507	510	0	0	
14	0	0	0	0	513	512	0	0	
15	0	0	0	0	516	511	0	0	
0	0	0	0	0	516	510	0	0	
1	0	0	0	0	512	512	0	0	
2	0	0	0	0	514	513	0	0	
3	0	0	0	0	513	511	0	0	
4	0	0	0	0	514	511	0	0	
5	0	0	0	0	513	508	0	0	
6	0	0	0	0	508	510	0	0	
7	0	0	0	0	509	511	0	0	
8	0	0	0	0	507	508	0	0	
9	0	0	0	0	506	507	0	0	
10	0	0	0	0	504	510	0	0	
11	0	0	0	0	508	511	0	0	
12	0	0	0	0	507	511	0	0	
13	0	0	0	0	502	512	0	0	
14	0	0	0	0	504	511	0	0	
15	0	0	0	0	504	508	0	0	
0	0	0	0	0	507	511	0	0	
1	0	0	0	0	509	513	0	0	
2	0	0	0	0	509	514	0	0	
3	0	0	0	0	510	511	0	0	
4	0	0	0	0	512	509	0	0	
5	0	0	0	0	512	508	0	0	
6	0	0	0	0	512	511	0	0	
7	0	0	0	0	516	511	0	0	
8	0	0	0	0	518	512	0	0	
9	0	0	0	0	513	510	0	0	
10	0	0	0	0	508	511	0	0	
11	0	0	0	0	508	512	0	0	
12	0	0	0	0	506	511	0	0	
13	0	0	0	0	504	510	0	0	
14	0	0	0	0	502	510	0	0	
15	0	0	0	0	501	511	0	0	
0	0	0	0	0	504	509	0	0	
1	0	0	0	0	503	511	0	0	
2	0	0	0	0	504	509	0	0	
3	0	0	0	0	505	511	0	0	
4	0	0	0	0	506	510	0	0	
5	0	0	0	0	508	508	0	0	
6	0	0	0	0	512	509	0	0	
7	0	0	0	0	511	510	0	0	
8	0	0	0	0	513	510	0	0	
9	0	0	0	0	516	512	0	0	
10	0	0	0	0	515	512	0	0	
11	0	0	0	0	512	511	0	0	
12	0	0	0	0	514	510	0	0	
13	0	0	0	0	511	511	0	0	
14	0	0	0	0	509	510	0	0	
15	0	0	0	0	506	509	0	0	
0	0	0	0	0	503	510	0	0	
1	0	0	0	0	504	512	0	0	
2	0	0	0	0	510	513	0	0	
3	0	0	0	0	508	514	0	0	
4	0	0	0	0	504	510	0	0	
5	0	0	0	0	505	508	0	0	
6	0	0	0	0	503	509	0	0	
7	0	0	0	0	501	508	0	0	
8	0	0	0	0	506	509	0	0	
9	0	0	0	0	510	510	0	0	
10	0	0	0	0	508	511	0	0	
11	0	0	0	0	512	508	0	0	
12	0	0	0	0	513	510	0	0	
13	0	0	0	0	516	510	0	0	
14	0	0	0	0	513	511	0	0	
15	0	0	0	0	514	511	0	0	
0	0	0	0	0	514	510	0	0	
1	0	0	0	0	510	510	0	0	
2	0	0	0	0	508	512	0	0	
3	0	0	0	0	509	513	0	0	
4	0	0	0	0	507	510	0	0	
5	0	0	0	0	501	511	0	0	
6	0	0	0	0	502	510	0	0	
7	0	0	0	0	503	508	0	0	
8	0	0	0	0	504	512	0	0	
9	0	0	0	0	505	511	0	0	
10	0	0	0	0	505	509	0	0	
11	0	0	0	0	505	511	0	0	
12	0	0	0	0	507	511	0	0	
13	0	0	0	0	509	508	0	0	
14	0	0	0	0	515	512	0	0	
15	0	0	0	0	513	513	0	0	
0	0	0	0	0	513	512	0	0	
1	0	0	0	0	514	512	0	0	
2	0	0	0	0	516	511	0	0	
3	0	0	0	0	514	513	0	0	
4	0	0	0	0	511	511	0	0	
5	0	0	0	0	510	512	0	0	
6	0	0	0	0	509	508	0	0	
7	0	0	0	0	505	509	0	0	
8	0	0	0	0	500	508	0	0	
9	0	0	0	0	506	511	0	0	
10	0	0	0	0	507	512	0	0	
11	0	0	0	0	506	510	0	0	
12	0	0	0	0	502	509	0	0	
13	0	0	0	0	505	509	0	0	
14	0	0	0	0	506	510	0	0	
15	0	0	0	0	508	509	0	0	
0	0	0	0	0	505	510	0	0	
1	0	0	0	0	510	510	0	0	
2	0	0	0	0	512	511	0	0	
3	0	0	0	0	513	508	0	0	
4	0	0	0	0	515	510	0	0	
5	0	0	0	0	512	509	0	0	
6	0	0	0	0	514	508	0	0	
7	0	0	0	0	512	510	0	0	
8	0	0	0	0	513	512	0	0	
9	0	0	0	0	511	512	0	0	
10	0	0	0	0	510	511	0	0	
11	0	0	0	0	507	510	0	0	
12	0	0	0	0	506	510	0	0	
13	0	0	0	0	504	509	0	0	
14	0	0	0	0	503	513	0	0	
15	0	0	0	0	503	510	0	0	
0	0	0	0	0	505	510	0	0	
1	0	0	0	0	505	511	0	0	
2	0	0	0	0	504	509	0	0	
3	0	0	0	0	505	506	0	0	
4	0	0	0	0	507	510	0	0	
5	0	0	0	0	507	510	0	0	
6	0	0	0	0	512	512	0	0	
7	0	0	0	0	513	510	0	0	
8	0	0	0	0	511	512	0	0	
9	0	0	0	0	513	512	0	0	
10	0	0	0	0	513	513	0	0	
11	0	0	0	0	513	511	0	0	
12	0	0	0	0	512	512	0	0	
13	0	0	0	0	508	512	0	0	
14	0	0	0	0	505	510	0	0	
15	0	0	0	0	511	512	0	0	
0	0	0	0	0	511	511	0	0	
1	0	0	0	0	507	509	0	0	
2	0	0	0	0	506	510	0	0	
3	0	0	0	0	504	510	0	0	
4	0	0	0	0	502	509	0	0	
5	0	0	0	0	503	508	0	0	
6	0	0	0	0	502	509	0	0	
7	0	0	0	0	504	509	0	0	
8	0	0	0	0	508	511	0	0	
9	0	0	0	0	509	508	0	0	
10	0	0	0	0	512	508	0	0	
11	0	0	0	0	513	513	0	0	
12	0	0	0	0	515	510	0	0	
13	0	0	0	0	514	510	0	0	
14	0	0	0	0	511	511	0	0	
15	0	0	0	0	515	509	0	0	
0	0	0	0	0	513	510	0	0	
1	0	0	0	0	510	512	0	0	
2	0	0	0	0	511	511	0	0	
3	0	0	0	0	508	512	0	0	
4	0	0	0	0	504	510	0	0	
5	0	0	0	0	505	509	0	0	
6	0	0	0	0	505	510	0	0	
7	0	0	0	0	507	511	0	0	
8	0	0	0	0	505	510	0	0	
9	0	0	0	0	504	510	0	0	
10	0	0	0	0	505	511	0	0	
11	0	0	0	0	502	509	0	0	
12	0	0	0	0	504	511	0	0	
13	0	0	0	0	509	512	0	0	
14	0	0	0	0	511	512	0	0	
15	0	0	0	0	512	511	0	0	
0	0	0	0	0	510	510	0	0	
1	0	0	0	0	512	511	0	0	
2	0	0	0	0	515	511	0	0	
3	0	0	0	0	516	511	0	0	
4	0	0	0	0	513	511	0	0	
5	0	0	0	0	509	510	0	0	
6	0	0	0	0	508	510	0	0	
7	0	0	0	0	509	510	0	0	
8	0	0	0	0	507	512	0	0	
9	0	0	0	0	509	511	0	0	
10	0	0	0	0	504	511	0	0	
11	0	0	0	0	502	509	0	0	
12	0	0	0	0	502	509	0	0	
13	0	0	0	0	504	510	0	0	
14	0	0	0	0	504	510	0	0	
15	0	0	0	0	506	508	0	0	
0	0	0	0	0	506	512	0	0	
1	0	0	0	0	509	512	0	0	
2	0	0	0	0	511	511	0	0	
3	0	0	0	0	515	510	0	0	
4	0	0	0	0	515	513	0	0	
5	0	0	0	0	516	511	0	0	
6	0	0	0	0	513	513	0	0	
7	0	0	0	0	512	511	0	0	
8	0	0	0	0	512	509	0	0	
9	0	0	0	0	511	510	0	0	
10	0	0	0	0	509	510	0	0	
11	0	0	0	0	509	511	0	0	
12	0	0	0	0	506	512	0	0	
13	0	0	0	0	504	511	0	0	
14	0	0	0	0	505	510	0	0	
15	0	0	0	0	503	508	0	0	
0	0	0	0	0	503	510	0	0	
1	0	0	0	0	503	510	0	0	
2	0	0	0	0	504	509	0	0	
3	0	0	0	0	508	512	0	0	
4	0	0	0	0	506	511	0	0	
5	0	0	0	0	510	510	0	0	
6	0	0	0	0	512	508	0	0	
7	0	0	0	0	513	511	0	0	
8	0	0	0	0	513	511	0	0	
9	0	0	0	0	513	513	0	0	
10	0	0	0	0	513	511	0	0	
11	0	0	0	0	513	509	0	0	
12	0	0	0	0	515	512	0	0	
13	0	0	0	0	511	511	0	0	
14	0	0	0	0	510	511	0	0	
15	0	0	0	0	507	512	0	0	
0	0	0	0	0	505	512	0	0	
1	0	0	0	0	506	513	0	0	
2	0	0	0	0	505	512	0	0	
3	0	0	0	0	504	509	0	0	
4	0	0	0	0	503	508	0	0	
5	0	0	0	0	500	508	0	0	
6	0	0	0	0	503	511	0	0	
7	0	0	0	0	504	510	0	0	
8	0	0	0	0	507	511	0	0	
9	0	0	0	0	510	511	0	0	
10	0	0	0	0	514	508	0	0	
11	0	0	0	0	512	511	0	0	
12	0	0	0	0	515	512	0	0	
13	0	0	0	0	514	510	0	0	
14	0	0	0	0	517	512	0	0	
15	0	0	0	0	514	511	0	0	
0	0	0	0	0	513	508	0	0	
1	0	0	0	0	512	510	0	0	
2	0	0	0	0	508	508	0	0	
3	0	0	0	0	507	510	0	0	
4	0	0	0	0	507	511	0	0	
5	0	0	0	0	504	509	0	0	
6	0	0	0	0	503	509	0	0	
7	0	0	0	0	500	508	0	0	
8	0	0	0	0	504	511	0	0	
9	0	0	0	0	504	510	0	0	
10	0	0	0	0	507	512	0	0	
11	0	0	0	0	508	511	0	0	
12	0	0	0	0	504	509	0	0	
13	0	0	0	0	508	510	0	0	
14	0	0	0	0	512	510	0	0	
15	0	0	0	0	513	512	0	0	
0	0	0	0	0	517	510	0	0	
1	0	0	0	0	514	511	0	0	
2	0	0	0	0	517	510	0	0	
3	0	0	0	0	517	512	0	0	
4	0	0	0	0	515	509	0	0	
5	0	0	0	0	508	510	0	0	
6	0	0	0	0	507	512	0	0	
7	0	0	0	0	507	511	0	0	
8	0	0	0	0	503	511	0	0	
9	0	0	0	0	504	510	0	0	
10	0	0	0	0	504	510	0	0	
11	0	0	0	0	503	509	0	0	
12	0	0	0	0	505	510	0	0	
13	0	0	0	0	505	511	0	0	
14	0	0	0	0	506	510	0	0	
15	0	0	0	0	510	511	0	0	
0	0	0	0	0	508	510	0	0	
1	0	0	0	0	506	510	0	0	
2	0	0	0	0	509	509	0	0	
3	0	0	0	0	510	512	0	0	
4	0	0	0	0	511	510	0	0	
5	0	0	0	0	512	509	0	0	
6	0	0	0	0	515	509	0	0	
7	0	0	0	0	511	512	0	0	
8	0	0	0	0	513	511	0	0	
9	0	0	0	0	511	511	0	0	
10	0	0	0	0	511	511	0	0	
11	0	0	0	0	512	511	0	0	
12	0	0	0	0	509	512	0	0	
13	0	0	0	0	509	511	0	0	
14	0	0	0	0	504	511	0	0	
15	0	0	0	0	502	511	0	0	
0	0	0	0	0	501	508	0	0	
1	0	0	0	0	502	511	0	0	
2	0	0	0	0	503	511	0	0	
3	0	0	0	0	504	511	0	0	
4	0	0	0	0	505	511	0	0	
5	0	0	0	0	507	510	0	0	
6	0	0	0	0	511	509	0	0	
7	0	0	0	0	511	512	0	0	
8	0	0	0	0	511	510	0	0	
9	0	0	0	0	512	511	0	0	
10	0	0	0	0	515	511	0	0	
11	0	0	0	0	513	510	0	0	
12	0	0	0	0	513	510	0	0	
13	0	0	0	0	513	510	0	0	
14	0	0	0	0	511	512	0	0	
15	0	0	0	0	511	511	0	0	
0	0	0	0	0	506	511	0	0	
1	0	0	0	0	506	510	0	0	
2	0	0	0	0	502	508	0	0	
3	0	0	0	0	500	509	0	0	
4	0	0	0	0	500	511	0	0	
5	0	0	0	0	504	509	0	0	
6	0	0	0	0	505	510	0	0	
7	0	0	0	0	504	512	0	0	
8	0	0	0	0	505	511	0	0	
9	0	0	0	0	507	510	0	0	
10	0	0	0	0	512	510	0	0	
11	0	0	0	0	513	509	0	0	
12	0	0	0	0	513	511	0	0	
13	0	0	0	0	515	513	0	0	
14	0	0	0	0	515	511	0	0	
15	0	0	0	0	514	511	0	0	
0	0	0	0	0	511	509	0	0	
1	0	0	0	0	509	509	0	0	
2	0	0	0	0	510	510	0	0	
3	0	0	0	0	510	510	0	0	
4	0	0	0	0	506	510	0	0	
5	0	0	0	0	504	508	0	0	
6	0	0	0	0	505	510	0	0	
7	0	0	0	0	505	512	0	0	
8	0	0	0	0	505	511	0	0	
9	0	0	0	0	506	510	0	0	
10	0	0	0	0	505	511	0	0	
11	0	0	0	0	506	511	0	0	
12	0	0	0	0	506	510	0	0	
13	0	0	0	0	507	511	0	0	
14	0	0	0	0	511	513	0	0	
15	0	0	0	0	511	512	0	0	
0	0	0	0	0	514	512	0	0	
1	0	0	0	0	515	511	0	0	
2	0	0	0	0	515	511	0	0	
3	0	0	0	0	514	511	0	0	
4	0	0	0	0	511	509	0	0	
5	0	0	0	0	508	510	0	0	
6	0	0	0	0	511	513	0	0	
7	0	0	0	0	508	512	0	0	
8	0	0	0	0	504	510	0	0	
9	0	0	0	0	505	510	0	0	
10	0	0	0	0	505	511	0	0	
11	0	0	0	0	502	508	0	0	
12	0	0	0	0	504	509	0	0	
13	0	0	0	0	502	512	0	0	
14	0	0	0	0	504	512	0	0	
15	0	0	0	0	504	511	0	0	
0	0	0	0	0	505	510	0	0	
1	0	0	0	0	510	512	0	0	
2	0	0	0	0	513	510	0	0	
3	0	0	0	0	512	511	0	0	
4	0	0	0	0	512	509	0	0	
5	0	0	0	0	516	511	0	0	
6	0	0	0	0	515	510	0	0	
7	0	0	0	0	514	511	0	0	
8	0	0	0	0	515	510	0	0	
9	0	0	0	0	512	511	0	0	
