# OpenSignals Text File Format. Version 1
# {"98:D3:31:B2:12:BA": {"position": 0, "device": "bitalino", "device name": "98:D3:31:B2:12:BA", "device connection": "BTH98:D3:31:B2:12:BA", "sampling rate": 1000, "resolution": [4, 1, 1, 1, 1, 10, 10, 10, 10], "firmware version": 771, "comments": "", "keywords": "", "mode": 0, "sync interval": 2, "date": "2022-7-28", "time": "13:10:18.80", "channels": [1, 2, 3, 4], "sensor": ["EMGBIT", "EMGBIT", "RAW", "RAW"], "label": ["A1", "A2", "A3", "A4"], "column": ["nSeq", "I1", "I2", "I3", "I4", "A1", "A2", "A3", "A4"], "special": [{}, {}, {}, {}], "digital IO": [0, 0, 0, 0, 1, 1, 1, 1]}}
# EndOfHeader
0	0	0	0	0	486	504	0	0	
1	0	0	0	0	481	504	0	0	
2	0	0	0	0	480	508	0	0	
3	0	0	0	0	476	504	0	0	
4	0	0	0	0	472	508	0	0	
5	0	0	0	0	472	508	0	0	
6	0	0	0	0	465	505	0	0	
7	0	0	0	0	472	508	0	0	
8	0	0	0	0	480	510	0	0	
9	0	0	0	0	480	512	0	0	
10	0	0	0	0	480	512	0	0	
11	0	0	0	0	481	513	0	0	
12	0	0	0	0	483	512	0	0	
13	0	0	0	0	487	510	0	0	
14	0	0	0	0	487	512	0	0	
15	0	0	0	0	483	511	0	0	
0	0	0	0	0	480	512	0	0	
1	0	0	0	0	480	511	0	0	
2	0	0	0	0	472	510	0	0	
3	0	0	0	0	472	510	0	0	
4	0	0	0	0	467	508	0	0	
5	0	0	0	0	462	508	0	0	
6	0	0	0	0	463	508	0	0	
7	0	0	0	0	463	508	0	0	
8	0	0	0	0	463	508	0	0	
9	0	0	0	0	463	508	0	0	
10	0	0	0	0	463	510	0	0	
11	0	0	0	0	467	510	0	0	
12	0	0	0	0	467	510	0	0	
13	0	0	0	0	467	510	0	0	
14	0	0	0	0	472	512	0	0	
15	0	0	0	0	478	512	0	0	
0	0	0	0	0	483	513	0	0	
1	0	0	0	0	487	512	0	0	
2	0	0	0	0	483	510	0	0	
3	0	0	0	0	487	512	0	0	
4	0	0	0	0	496	511	0	0	
5	0	0	0	0	496	511	0	0	
6	0	0	0	0	487	504	0	0	
7	0	0	0	0	480	504	0	0	
8	0	0	0	0	472	504	0	0	
9	0	0	0	0	472	508	0	0	
10	0	0	0	0	472	505	0	0	
11	0	0	0	0	472	508	0	0	
12	0	0	0	0	472	511	0	0	
13	0	0	0	0	470	510	0	0	
14	0	0	0	0	463	510	0	0	
15	0	0	0	0	460	510	0	0	
0	0	0	0	0	465	510	0	0	
1	0	0	0	0	472	512	0	0	
2	0	0	0	0	472	512	0	0	
3	0	0	0	0	476	511	0	0	
4	0	0	0	0	478	510	0	0	
5	0	0	0	0	478	511	0	0	
6	0	0	0	0	480	511	0	0	
7	0	0	0	0	480	512	0	0	
8	0	0	0	0	480	512	0	0	
9	0	0	0	0	480	515	0	0	
10	0	0	0	0	480	512	0	0	
11	0	0	0	0	476	511	0	0	
12	0	0	0	0	465	513	0	0	
13	0	0	0	0	463	508	0	0	
14	0	0	0	0	463	512	0	0	
15	0	0	0	0	460	508	0	0	
0	0	0	0	0	472	510	0	0	
1	0	0	0	0	480	512	0	0	
2	0	0	0	0	472	508	0	0	
3	0	0	0	0	465	510	0	0	
4	0	0	0	0	467	512	0	0	
5	0	0	0	0	463	511	0	0	
6	0	0	0	0	465	510	0	0	
7	0	0	0	0	476	511	0	0	
8	0	0	0	0	480	511	0	0	
9	0	0	0	0	483	512	0	0	
10	0	0	0	0	487	511	0	0	
11	0	0	0	0	487	511	0	0	
12	0	0	0	0	487	508	0	0	
13	0	0	0	0	487	508	0	0	
14	0	0	0	0	487	510	0	0	
15	0	0	0	0	480	510	0	0	
0	0	0	0	0	476	508	0	0	
1	0	0	0	0	473	510	0	0	
2	0	0	0	0	472	510	0	0	
3	0	0	0	0	467	510	0	0	
4	0	0	0	0	465	504	0	0	
5	0	0	0	0	465	508	0	0	
6	0	0	0	0	465	505	0	0	
7	0	0	0	0	467	511	0	0	
8	0	0	0	0	467	508	0	0	
9	0	0	0	0	472	512	0	0	
10	0	0	0	0	472	513	0	0	
11	0	0	0	0	472	508	0	0	
12	0	0	0	0	480	513	0	0	
13	0	0	0	0	480	510	0	0	
14	0	0	0	0	487	510	0	0	
15	0	0	0	0	489	515	0	0	
0	0	0	0	0	496	508	0	0	
1	0	0	0	0	492	511	0	0	
2	0	0	0	0	487	511	0	0	
3	0	0	0	0	487	508	0	0	
4	0	0	0	0	483	511	0	0	
5	0	0	0	0	476	508	0	0	
6	0	0	0	0	472	508	0	0	
7	0	0	0	0	463	505	0	0	
8	0	0	0	0	460	512	0	0	
9	0	0	0	0	460	511	0	0	
10	0	0	0	0	462	510	0	0	
11	0	0	0	0	460	508	0	0	
12	0	0	0	0	462	510	0	0	
13	0	0	0	0	467	511	0	0	
14	0	0	0	0	472	512	0	0	
15	0	0	0	0	472	511	0	0	
0	0	0	0	0	476	512	0	0	
1	0	0	0	0	483	512	0	0	
2	0	0	0	0	487	511	0	0	
3	0	0	0	0	487	511	0	0	
4	0	0	0	0	481	511	0	0	
5	0	0	0	0	487	510	0	0	
6	0	0	0	0	487	510	0	0	
7	0	0	0	0	481	510	0	0	
8	0	0	0	0	480	508	0	0	
9	0	0	0	0	472	512	0	0	
10	0	0	0	0	467	505	0	0	
11	0	0	0	0	472	508	0	0	
12	0	0	0	0	465	508	0	0	
13	0	0	0	0	463	511	0	0	
14	0	0	0	0	463	510	0	0	
15	0	0	0	0	465	510	0	0	
0	0	0	0	0	467	510	0	0	
1	0	0	0	0	472	510	0	0	
2	0	0	0	0	476	511	0	0	
3	0	0	0	0	481	511	0	0	
4	0	0	0	0	487	512	0	0	
5	0	0	0	0	483	508	0	0	
6	0	0	0	0	483	510	0	0	
7	0	0	0	0	483	510	0	0	
8	0	0	0	0	483	510	0	0	
9	0	0	0	0	481	508	0	0	
10	0	0	0	0	481	508	0	0	
11	0	0	0	0	480	508	0	0	
12	0	0	0	0	476	512	0	0	
13	0	0	0	0	476	508	0	0	
14	0	0	0	0	472	508	0	0	
15	0	0	0	0	463	508	0	0	
0	0	0	0	0	463	508	0	0	
1	0	0	0	0	467	504	0	0	
2	0	0	0	0	463	508	0	0	
3	0	0	0	0	467	508	0	0	
4	0	0	0	0	472	511	0	0	
5	0	0	0	0	472	511	0	0	
6	0	0	0	0	472	511	0	0	
7	0	0	0	0	473	512	0	0	
8	0	0	0	0	480	512	0	0	
9	0	0	0	0	476	511	0	0	
10	0	0	0	0	467	511	0	0	
11	0	0	0	0	476	511	0	0	
12	0	0	0	0	472	510	0	0	
13	0	0	0	0	476	511	0	0	
14	0	0	0	0	480	508	0	0	
15	0	0	0	0	480	505	0	0	
0	0	0	0	0	476	504	0	0	
1	0	0	0	0	472	505	0	0	
2	0	0	0	0	472	508	0	0	
3	0	0	0	0	472	510	0	0	
4	0	0	0	0	472	511	0	0	
5	0	0	0	0	472	510	0	0	
6	0	0	0	0	472	505	0	0	
7	0	0	0	0	470	508	0	0	
8	0	0	0	0	472	510	0	0	
9	0	0	0	0	472	511	0	0	
10	0	0	0	0	467	511	0	0	
11	0	0	0	0	467	508	0	0	
12	0	0	0	0	463	508	0	0	
13	0	0	0	0	472	512	0	0	
14	0	0	0	0	480	508	0	0	
15	0	0	0	0	481	512	0	0	
0	0	0	0	0	483	512	0	0	
1	0	0	0	0	487	510	0	0	
2	0	0	0	0	487	508	0	0	
3	0	0	0	0	472	508	0	0	
4	0	0	0	0	467	508	0	0	
5	0	0	0	0	463	508	0	0	
6	0	0	0	0	460	510	0	0	
7	0	0	0	0	455	510	0	0	
8	0	0	0	0	455	513	0	0	
9	0	0	0	0	467	510	0	0	
10	0	0	0	0	462	508	0	0	
11	0	0	0	0	462	508	0	0	
12	0	0	0	0	465	510	0	0	
13	0	0	0	0	470	510	0	0	
14	0	0	0	0	476	512	0	0	
15	0	0	0	0	480	508	0	0	
0	0	0	0	0	483	512	0	0	
1	0	0	0	0	481	512	0	0	
2	0	0	0	0	481	511	0	0	
3	0	0	0	0	481	511	0	0	
4	0	0	0	0	481	510	0	0	
5	0	0	0	0	480	505	0	0	
6	0	0	0	0	481	508	0	0	
7	0	0	0	0	483	510	0	0	
8	0	0	0	0	487	510	0	0	
9	0	0	0	0	478	508	0	0	
10	0	0	0	0	472	504	0	0	
11	0	0	0	0	472	508	0	0	
12	0	0	0	0	467	505	0	0	
13	0	0	0	0	463	508	0	0	
14	0	0	0	0	463	510	0	0	
15	0	0	0	0	463	511	0	0	
0	0	0	0	0	472	511	0	0	
1	0	0	0	0	476	511	0	0	
2	0	0	0	0	476	512	0	0	
3	0	0	0	0	480	512	0	0	
4	0	0	0	0	483	511	0	0	
5	0	0	0	0	486	511	0	0	
6	0	0	0	0	486	512	0	0	
7	0	0	0	0	483	508	0	0	
8	0	0	0	0	480	510	0	0	
9	0	0	0	0	480	508	0	0	
10	0	0	0	0	483	510	0	0	
11	0	0	0	0	480	508	0	0	
12	0	0	0	0	480	511	0	0	
13	0	0	0	0	472	508	0	0	
14	0	0	0	0	472	508	0	0	
15	0	0	0	0	467	508	0	0	
0	0	0	0	0	467	504	0	0	
1	0	0	0	0	472	508	0	0	
2	0	0	0	0	467	510	0	0	
3	0	0	0	0	462	508	0	0	
4	0	0	0	0	462	510	0	0	
5	0	0	0	0	467	511	0	0	
6	0	0	0	0	472	508	0	0	
7	0	0	0	0	472	511	0	0	
8	0	0	0	0	480	511	0	0	
9	0	0	0	0	487	510	0	0	
10	0	0	0	0	487	511	0	0	
11	0	0	0	0	481	511	0	0	
12	0	0	0	0	480	512	0	0	
13	0	0	0	0	476	511	0	0	
14	0	0	0	0	476	511	0	0	
15	0	0	0	0	480	510	0	0	
0	0	0	0	0	480	510	0	0	
1	0	0	0	0	472	508	0	0	
2	0	0	0	0	467	508	0	0	
3	0	0	0	0	460	508	0	0	
4	0	0	0	0	462	510	0	0	
5	0	0	0	0	463	508	0	0	
6	0	0	0	0	462	508	0	0	
7	0	0	0	0	463	508	0	0	
8	0	0	0	0	467	512	0	0	
9	0	0	0	0	472	511	0	0	
10	0	0	0	0	472	511	0	0	
11	0	0	0	0	476	511	0	0	
12	0	0	0	0	487	512	0	0	
13	0	0	0	0	492	511	0	0	
14	0	0	0	0	494	511	0	0	
15	0	0	0	0	486	511	0	0	
0	0	0	0	0	480	512	0	0	
1	0	0	0	0	483	512	0	0	
2	0	0	0	0	480	511	0	0	
3	0	0	0	0	476	504	0	0	
4	0	0	0	0	486	504	0	0	
5	0	0	0	0	483	504	0	0	
6	0	0	0	0	473	504	0	0	
7	0	0	0	0	472	510	0	0	
8	0	0	0	0	470	511	0	0	
9	0	0	0	0	467	511	0	0	
10	0	0	0	0	472	511	0	0	
11	0	0	0	0	467	508	0	0	
12	0	0	0	0	472	511	0	0	
13	0	0	0	0	476	512	0	0	
14	0	0	0	0	480	513	0	0	
15	0	0	0	0	480	513	0	0	
0	0	0	0	0	472	510	0	0	
1	0	0	0	0	472	511	0	0	
2	0	0	0	0	476	510	0	0	
3	0	0	0	0	472	508	0	0	
4	0	0	0	0	476	511	0	0	
5	0	0	0	0	480	512	0	0	
6	0	0	0	0	483	511	0	0	
7	0	0	0	0	476	510	0	0	
8	0	0	0	0	472	504	0	0	
9	0	0	0	0	465	511	0	0	
10	0	0	0	0	463	504	0	0	
11	0	0	0	0	463	504	0	0	
12	0	0	0	0	467	510	0	0	
13	0	0	0	0	462	510	0	0	
14	0	0	0	0	455	511	0	0	
15	0	0	0	0	460	511	0	0	
0	0	0	0	0	462	511	0	0	
1	0	0	0	0	472	512	0	0	
2	0	0	0	0	480	512	0	0	
3	0	0	0	0	486	513	0	0	
4	0	0	0	0	486	511	0	0	
5	0	0	0	0	487	510	0	0	
6	0	0	0	0	483	511	0	0	
7	0	0	0	0	486	510	0	0	
8	0	0	0	0	486	515	0	0	
9	0	0	0	0	487	511	0	0	
10	0	0	0	0	494	511	0	0	
11	0	0	0	0	483	511	0	0	
12	0	0	0	0	478	504	0	0	
13	0	0	0	0	472	511	0	0	
14	0	0	0	0	463	508	0	0	
15	0	0	0	0	460	505	0	0	
0	0	0	0	0	460	508	0	0	
1	0	0	0	0	463	511	0	0	
2	0	0	0	0	463	511	0	0	
3	0	0	0	0	463	511	0	0	
4	0	0	0	0	463	508	0	0	
5	0	0	0	0	463	511	0	0	
6	0	0	0	0	465	511	0	0	
7	0	0	0	0	472	511	0	0	
8	0	0	0	0	480	512	0	0	
9	0	0	0	0	481	511	0	0	
10	0	0	0	0	480	508	0	0	
11	0	0	0	0	480	513	0	0	
12	0	0	0	0	487	510	0	0	
13	0	0	0	0	487	513	0	0	
14	0	0	0	0	483	511	0	0	
15	0	0	0	0	480	508	0	0	
0	0	0	0	0	472	504	0	0	
1	0	0	0	0	472	508	0	0	
2	0	0	0	0	467	504	0	0	
3	0	0	0	0	467	505	0	0	
4	0	0	0	0	472	505	0	0	
5	0	0	0	0	472	504	0	0	
6	0	0	0	0	467	510	0	0	
7	0	0	0	0	467	510	0	0	
8	0	0	0	0	463	511	0	0	
9	0	0	0	0	463	511	0	0	
10	0	0	0	0	467	511	0	0	
11	0	0	0	0	476	511	0	0	
12	0	0	0	0	480	512	0	0	
13	0	0	0	0	487	512	0	0	
14	0	0	0	0	494	511	0	0	
15	0	0	0	0	480	515	0	0	
0	0	0	0	0	480	511	0	0	
1	0	0	0	0	480	510	0	0	
2	0	0	0	0	480	510	0	0	
3	0	0	0	0	476	510	0	0	
4	0	0	0	0	476	508	0	0	
5	0	0	0	0	467	504	0	0	
6	0	0	0	0	463	504	0	0	
7	0	0	0	0	462	504	0	0	
8	0	0	0	0	460	504	0	0	
9	0	0	0	0	455	508	0	0	
10	0	0	0	0	462	511	0	0	
11	0	0	0	0	473	511	0	0	
12	0	0	0	0	480	511	0	0	
13	0	0	0	0	476	508	0	0	
14	0	0	0	0	472	511	0	0	
15	0	0	0	0	480	519	0	0	
0	0	0	0	0	480	511	0	0	
1	0	0	0	0	483	512	0	0	
2	0	0	0	0	487	512	0	0	
3	0	0	0	0	481	510	0	0	
4	0	0	0	0	483	508	0	0	
5	0	0	0	0	483	508	0	0	
6	0	0	0	0	487	508	0	0	
7	0	0	0	0	483	510	0	0	
8	0	0	0	0	480	508	0	0	
9	0	0	0	0	480	508	0	0	
10	0	0	0	0	472	505	0	0	
11	0	0	0	0	467	504	0	0	
12	0	0	0	0	463	508	0	0	
13	0	0	0	0	460	512	0	0	
14	0	0	0	0	455	511	0	0	
15	0	0	0	0	455	510	0	0	
0	0	0	0	0	460	512	0	0	
1	0	0	0	0	463	511	0	0	
2	0	0	0	0	472	510	0	0	
3	0	0	0	0	478	511	0	0	
4	0	0	0	0	480	508	0	0	
5	0	0	0	0	480	510	0	0	
6	0	0	0	0	483	508	0	0	
7	0	0	0	0	487	508	0	0	
8	0	0	0	0	483	515	0	0	
9	0	0	0	0	487	512	0	0	
10	0	0	0	0	486	508	0	0	
11	0	0	0	0	480	508	0	0	
12	0	0	0	0	472	508	0	0	
13	0	0	0	0	467	504	0	0	
14	0	0	0	0	472	504	0	0	
15	0	0	0	0	467	504	0	0	
0	0	0	0	0	467	508	0	0	
1	0	0	0	0	467	508	0	0	
2	0	0	0	0	472	508	0	0	
3	0	0	0	0	463	512	0	0	
4	0	0	0	0	465	512	0	0	
5	0	0	0	0	472	512	0	0	
6	0	0	0	0	476	511	0	0	
7	0	0	0	0	480	510	0	0	
8	0	0	0	0	483	512	0	0	
9	0	0	0	0	487	512	0	0	
10	0	0	0	0	487	510	0	0	
11	0	0	0	0	487	512	0	0	
12	0	0	0	0	487	511	0	0	
13	0	0	0	0	478	511	0	0	
14	0	0	0	0	476	510	0	0	
15	0	0	0	0	472	508	0	0	
0	0	0	0	0	472	504	0	0	
1	0	0	0	0	463	511	0	0	
2	0	0	0	0	455	508	0	0	
3	0	0	0	0	462	508	0	0	
4	0	0	0	0	467	508	0	0	
5	0	0	0	0	467	508	0	0	
6	0	0	0	0	463	508	0	0	
7	0	0	0	0	460	505	0	0	
8	0	0	0	0	462	508	0	0	
9	0	0	0	0	472	510	0	0	
10	0	0	0	0	487	510	0	0	
11	0	0	0	0	487	510	0	0	
12	0	0	0	0	487	512	0	0	
13	0	0	0	0	487	511	0	0	
14	0	0	0	0	487	511	0	0	
15	0	0	0	0	487	510	0	0	
0	0	0	0	0	483	510	0	0	
1	0	0	0	0	483	510	0	0	
2	0	0	0	0	480	504	0	0	
3	0	0	0	0	478	508	0	0	
4	0	0	0	0	476	508	0	0	
5	0	0	0	0	472	508	0	0	
6	0	0	0	0	472	508	0	0	
7	0	0	0	0	472	511	0	0	
8	0	0	0	0	463	511	0	0	
9	0	0	0	0	465	504	0	0	
10	0	0	0	0	463	512	0	0	
11	0	0	0	0	463	508	0	0	
12	0	0	0	0	472	512	0	0	
13	0	0	0	0	472	515	0	0	
14	0	0	0	0	487	510	0	0	
15	0	0	0	0	487	515	0	0	
0	0	0	0	0	487	515	0	0	
1	0	0	0	0	487	515	0	0	
2	0	0	0	0	487	515	0	0	
3	0	0	0	0	483	511	0	0	
4	0	0	0	0	487	511	0	0	
5	0	0	0	0	487	511	0	0	
6	0	0	0	0	486	510	0	0	
7	0	0	0	0	486	508	0	0	
8	0	0	0	0	487	505	0	0	
9	0	0	0	0	480	512	0	0	
10	0	0	0	0	472	510	0	0	
11	0	0	0	0	467	504	0	0	
12	0	0	0	0	463	505	0	0	
13	0	0	0	0	462	511	0	0	
14	0	0	0	0	463	508	0	0	
15	0	0	0	0	460	510	0	0	
0	0	0	0	0	463	508	0	0	
1	0	0	0	0	467	511	0	0	
2	0	0	0	0	472	512	0	0	
3	0	0	0	0	472	512	0	0	
4	0	0	0	0	476	511	0	0	
5	0	0	0	0	480	511	0	0	
6	0	0	0	0	480	510	0	0	
7	0	0	0	0	476	508	0	0	
8	0	0	0	0	480	508	0	0	
9	0	0	0	0	483	508	0	0	
10	0	0	0	0	481	504	0	0	
11	0	0	0	0	472	508	0	0	
12	0	0	0	0	472	504	0	0	
13	0	0	0	0	467	511	0	0	
14	0	0	0	0	463	505	0	0	
15	0	0	0	0	463	504	0	0	
0	0	0	0	0	463	508	0	0	
1	0	0	0	0	463	508	0	0	
2	0	0	0	0	462	508	0	0	
3	0	0	0	0	462	513	0	0	
4	0	0	0	0	463	511	0	0	
5	0	0	0	0	472	512	0	0	
6	0	0	0	0	472	511	0	0	
7	0	0	0	0	476	512	0	0	
8	0	0	0	0	483	511	0	0	
9	0	0	0	0	487	511	0	0	
10	0	0	0	0	487	511	0	0	
11	0	0	0	0	486	512	0	0	
12	0	0	0	0	480	510	0	0	
13	0	0	0	0	480	511	0	0	
14	0	0	0	0	480	508	0	0	
15	0	0	0	0	476	510	0	0	
0	0	0	0	0	473	508	0	0	
1	0	0	0	0	472	508	0	0	
2	0	0	0	0	463	504	0	0	
3	0	0	0	0	470	504	0	0	
4	0	0	0	0	467	504	0	0	
5	0	0	0	0	465	508	0	0	
6	0	0	0	0	467	512	0	0	
7	0	0	0	0	476	510	0	0	
8	0	0	0	0	472	511	0	0	
9	0	0	0	0	480	512	0	0	
10	0	0	0	0	480	511	0	0	
11	0	0	0	0	481	508	0	0	
12	0	0	0	0	487	512	0	0	
13	0	0	0	0	483	511	0	0	
14	0	0	0	0	486	512	0	0	
15	0	0	0	0	487	510	0	0	
0	0	0	0	0	483	510	0	0	
1	0	0	0	0	480	511	0	0	
2	0	0	0	0	478	504	0	0	
3	0	0	0	0	472	508	0	0	
4	0	0	0	0	478	510	0	0	
5	0	0	0	0	472	510	0	0	
6	0	0	0	0	472	512	0	0	
7	0	0	0	0	467	508	0	0	
8	0	0	0	0	463	508	0	0	
9	0	0	0	0	470	508	0	0	
10	0	0	0	0	465	508	0	0	
11	0	0	0	0	465	508	0	0	
12	0	0	0	0	472	511	0	0	
13	0	0	0	0	472	512	0	0	
14	0	0	0	0	472	510	0	0	
15	0	0	0	0	467	511	0	0	
0	0	0	0	0	472	511	0	0	
1	0	0	0	0	476	511	0	0	
2	0	0	0	0	480	510	0	0	
3	0	0	0	0	480	515	0	0	
4	0	0	0	0	483	512	0	0	
5	0	0	0	0	480	513	0	0	
6	0	0	0	0	478	511	0	0	
7	0	0	0	0	472	510	0	0	
8	0	0	0	0	472	511	0	0	
9	0	0	0	0	463	508	0	0	
10	0	0	0	0	463	508	0	0	
11	0	0	0	0	463	505	0	0	
12	0	0	0	0	462	504	0	0	
13	0	0	0	0	463	508	0	0	
14	0	0	0	0	463	510	0	0	
15	0	0	0	0	463	510	0	0	
0	0	0	0	0	463	510	0	0	
1	0	0	0	0	467	511	0	0	
2	0	0	0	0	472	511	0	0	
3	0	0	0	0	472	511	0	0	
4	0	0	0	0	476	512	0	0	
5	0	0	0	0	480	512	0	0	
6	0	0	0	0	480	515	0	0	
7	0	0	0	0	487	510	0	0	
8	0	0	0	0	487	515	0	0	
9	0	0	0	0	487	511	0	0	
10	0	0	0	0	487	508	0	0	
11	0	0	0	0	481	505	0	0	
12	0	0	0	0	480	508	0	0	
13	0	0	0	0	473	508	0	0	
14	0	0	0	0	472	504	0	0	
15	0	0	0	0	467	508	0	0	
0	0	0	0	0	463	508	0	0	
1	0	0	0	0	465	508	0	0	
2	0	0	0	0	467	508	0	0	
3	0	0	0	0	472	508	0	0	
4	0	0	0	0	476	510	0	0	
5	0	0	0	0	480	510	0	0	
6	0	0	0	0	480	508	0	0	
7	0	0	0	0	481	515	0	0	
8	0	0	0	0	481	510	0	0	
9	0	0	0	0	483	511	0	0	
10	0	0	0	0	486	510	0	0	
11	0	0	0	0	480	512	0	0	
12	0	0	0	0	480	510	0	0	
13	0	0	0	0	476	511	0	0	
14	0	0	0	0	480	510	0	0	
15	0	0	0	0	480	508	0	0	
0	0	0	0	0	473	505	0	0	
1	0	0	0	0	472	508	0	0	
2	0	0	0	0	467	508	0	0	
3	0	0	0	0	463	508	0	0	
4	0	0	0	0	460	508	0	0	
5	0	0	0	0	463	508	0	0	
6	0	0	0	0	467	505	0	0	
7	0	0	0	0	463	504	0	0	
8	0	0	0	0	463	508	0	0	
9	0	0	0	0	467	511	0	0	
10	0	0	0	0	473	515	0	0	
11	0	0	0	0	480	512	0	0	
12	0	0	0	0	487	511	0	0	
13	0	0	0	0	492	510	0	0	
14	0	0	0	0	487	511	0	0	
15	0	0	0	0	487	508	0	0	
0	0	0	0	0	487	513	0	0	
1	0	0	0	0	483	508	0	0	
2	0	0	0	0	480	504	0	0	
3	0	0	0	0	472	504	0	0	
4	0	0	0	0	463	508	0	0	
5	0	0	0	0	463	510	0	0	
6	0	0	0	0	465	508	0	0	
7	0	0	0	0	463	508	0	0	
8	0	0	0	0	457	504	0	0	
9	0	0	0	0	455	504	0	0	
10	0	0	0	0	462	512	0	0	
11	0	0	0	0	463	508	0	0	
12	0	0	0	0	463	508	0	0	
13	0	0	0	0	465	512	0	0	
14	0	0	0	0	467	511	0	0	
15	0	0	0	0	467	512	0	0	
0	0	0	0	0	476	512	0	0	
1	0	0	0	0	483	511	0	0	
2	0	0	0	0	487	510	0	0	
3	0	0	0	0	481	513	0	0	
4	0	0	0	0	480	512	0	0	
5	0	0	0	0	480	511	0	0	
6	0	0	0	0	480	504	0	0	
7	0	0	0	0	472	505	0	0	
8	0	0	0	0	472	508	0	0	
9	0	0	0	0	467	505	0	0	
10	0	0	0	0	463	504	0	0	
11	0	0	0	0	460	504	0	0	
12	0	0	0	0	463	508	0	0	
13	0	0	0	0	460	512	0	0	
14	0	0	0	0	462	510	0	0	
15	0	0	0	0	460	510	0	0	
0	0	0	0	0	467	511	0	0	
1	0	0	0	0	483	511	0	0	
2	0	0	0	0	487	511	0	0	
3	0	0	0	0	483	513	0	0	
4	0	0	0	0	483	512	0	0	
5	0	0	0	0	487	511	0	0	
6	0	0	0	0	483	512	0	0	
7	0	0	0	0	487	512	0	0	
8	0	0	0	0	486	510	0	0	
9	0	0	0	0	481	505	0	0	
10	0	0	0	0	480	504	0	0	
11	0	0	0	0	483	508	0	0	
12	0	0	0	0	487	505	0	0	
13	0	0	0	0	480	511	0	0	
14	0	0	0	0	480	510	0	0	
15	0	0	0	0	473	508	0	0	
0	0	0	0	0	467	511	0	0	
1	0	0	0	0	465	505	0	0	
2	0	0	0	0	472	511	0	0	
3	0	0	0	0	470	511	0	0	
4	0	0	0	0	472	511	0	0	
5	0	0	0	0	467	510	0	0	
6	0	0	0	0	465	512	0	0	
7	0	0	0	0	472	511	0	0	
8	0	0	0	0	480	512	0	0	
9	0	0	0	0	480	513	0	0	
10	0	0	0	0	480	511	0	0	
11	0	0	0	0	480	511	0	0	
12	0	0	0	0	481	512	0	0	
13	0	0	0	0	480	510	0	0	
14	0	0	0	0	480	511	0	0	
15	0	0	0	0	476	510	0	0	
0	0	0	0	0	476	510	0	0	
1	0	0	0	0	472	508	0	0	
2	0	0	0	0	472	505	0	0	
3	0	0	0	0	472	508	0	0	
4	0	0	0	0	463	508	0	0	
5	0	0	0	0	462	508	0	0	
6	0	0	0	0	463	508	0	0	
7	0	0	0	0	460	508	0	0	
8	0	0	0	0	472	511	0	0	
9	0	0	0	0	472	512	0	0	
10	0	0	0	0	472	512	0	0	
11	0	0	0	0	480	512	0	0	
12	0	0	0	0	480	512	0	0	
13	0	0	0	0	483	512	0	0	
14	0	0	0	0	483	512	0	0	
15	0	0	0	0	480	510	0	0	
0	0	0	0	0	480	510	0	0	
1	0	0	0	0	476	508	0	0	
2	0	0	0	0	480	508	0	0	
3	0	0	0	0	480	511	0	0	
4	0	0	0	0	480	510	0	0	
5	0	0	0	0	472	505	0	0	
6	0	0	0	0	472	505	0	0	
7	0	0	0	0	467	508	0	0	
8	0	0	0	0	463	508	0	0	
9	0	0	0	0	465	508	0	0	
10	0	0	0	0	467	511	0	0	
11	0	0	0	0	467	511	0	0	
12	0	0	0	0	472	511	0	0	
13	0	0	0	0	480	510	0	0	
14	0	0	0	0	480	515	0	0	
15	0	0	0	0	481	512	0	0	
0	0	0	0	0	481	512	0	0	
1	0	0	0	0	481	513	0	0	
2	0	0	0	0	480	512	0	0	
3	0	0	0	0	480	512	0	0	
4	0	0	0	0	480	511	0	0	
5	0	0	0	0	480	510	0	0	
6	0	0	0	0	480	510	0	0	
7	0	0	0	0	476	508	0	0	
8	0	0	0	0	472	504	0	0	
9	0	0	0	0	472	508	0	0	
10	0	0	0	0	467	510	0	0	
11	0	0	0	0	463	508	0	0	
12	0	0	0	0	467	508	0	0	
13	0	0	0	0	472	511	0	0	
14	0	0	0	0	463	508	0	0	
15	0	0	0	0	463	510	0	0	
0	0	0	0	0	472	508	0	0	
1	0	0	0	0	476	510	0	0	
2	0	0	0	0	478	511	0	0	
3	0	0	0	0	480	511	0	0	
4	0	0	0	0	481	511	0	0	
5	0	0	0	0	483	511	0	0	
6	0	0	0	0	486	511	0	0	
7	0	0	0	0	483	512	0	0	
8	0	0	0	0	480	510	0	0	
9	0	0	0	0	480	508	0	0	
10	0	0	0	0	480	510	0	0	
11	0	0	0	0	472	508	0	0	
12	0	0	0	0	473	511	0	0	
13	0	0	0	0	472	510	0	0	
14	0	0	0	0	467	504	0	0	
15	0	0	0	0	467	505	0	0	
0	0	0	0	0	467	505	0	0	
1	0	0	0	0	463	508	0	0	
2	0	0	0	0	463	510	0	0	
3	0	0	0	0	463	511	0	0	
4	0	0	0	0	463	511	0	0	
5	0	0	0	0	472	511	0	0	
6	0	0	0	0	473	511	0	0	
7	0	0	0	0	480	511	0	0	
8	0	0	0	0	480	511	0	0	
9	0	0	0	0	483	510	0	0	
10	0	0	0	0	481	511	0	0	
11	0	0	0	0	480	511	0	0	
12	0	0	0	0	483	511	0	0	
13	0	0	0	0	483	510	0	0	
14	0	0	0	0	483	508	0	0	
15	0	0	0	0	480	508	0	0	
0	0	0	0	0	476	508	0	0	
1	0	0	0	0	472	508	0	0	
2	0	0	0	0	465	508	0	0	
3	0	0	0	0	467	508	0	0	
4	0	0	0	0	463	510	0	0	
5	0	0	0	0	462	510	0	0	
6	0	0	0	0	462	510	0	0	
7	0	0	0	0	460	510	0	0	
8	0	0	0	0	462	508	0	0	
9	0	0	0	0	462	510	0	0	
10	0	0	0	0	463	512	0	0	
11	0	0	0	0	478	510	0	0	
12	0	0	0	0	487	513	0	0	
13	0	0	0	0	492	515	0	0	
14	0	0	0	0	496	513	0	0	
15	0	0	0	0	494	515	0	0	
0	0	0	0	0	494	512	0	0	
1	0	0	0	0	494	512	0	0	
2	0	0	0	0	483	512	0	0	
3	0	0	0	0	480	510	0	0	
4	0	0	0	0	472	511	0	0	
5	0	0	0	0	472	508	0	0	
6	0	0	0	0	465	508	0	0	
7	0	0	0	0	463	504	0	0	
8	0	0	0	0	455	511	0	0	
9	0	0	0	0	455	511	0	0	
10	0	0	0	0	460	510	0	0	
11	0	0	0	0	455	511	0	0	
12	0	0	0	0	463	508	0	0	
13	0	0	0	0	467	508	0	0	
14	0	0	0	0	476	510	0	0	
15	0	0	0	0	480	508	0	0	
0	0	0	0	0	480	508	0	0	
1	0	0	0	0	483	508	0	0	
2	0	0	0	0	483	510	0	0	
3	0	0	0	0	486	510	0	0	
4	0	0	0	0	483	508	0	0	
5	0	0	0	0	483	511	0	0	
6	0	0	0	0	483	510	0	0	
7	0	0	0	0	480	508	0	0	
8	0	0	0	0	480	508	0	0	
9	0	0	0	0	473	508	0	0	
10	0	0	0	0	472	505	0	0	
11	0	0	0	0	465	508	0	0	
12	0	0	0	0	472	511	0	0	
13	0	0	0	0	473	510	0	0	
14	0	0	0	0	463	510	0	0	
15	0	0	0	0	455	508	0	0	
0	0	0	0	0	463	508	0	0	
1	0	0	0	0	467	512	0	0	
2	0	0	0	0	472	511	0	0	
3	0	0	0	0	472	512	0	0	
4	0	0	0	0	472	510	0	0	
5	0	0	0	0	476	511	0	0	
6	0	0	0	0	480	511	0	0	
7	0	0	0	0	486	510	0	0	
8	0	0	0	0	483	508	0	0	
9	0	0	0	0	481	510	0	0	
10	0	0	0	0	483	511	0	0	
11	0	0	0	0	480	511	0	0	
12	0	0	0	0	472	508	0	0	
13	0	0	0	0	467	508	0	0	
14	0	0	0	0	463	508	0	0	
15	0	0	0	0	462	504	0	0	
0	0	0	0	0	460	504	0	0	
1	0	0	0	0	463	508	0	0	
2	0	0	0	0	467	513	0	0	
3	0	0	0	0	463	510	0	0	
4	0	0	0	0	467	508	0	0	
5	0	0	0	0	472	511	0	0	
6	0	0	0	0	476	511	0	0	
7	0	0	0	0	480	519	0	0	
8	0	0	0	0	483	515	0	0	
9	0	0	0	0	481	511	0	0	
10	0	0	0	0	480	513	0	0	
11	0	0	0	0	487	510	0	0	
12	0	0	0	0	483	512	0	0	
13	0	0	0	0	481	511	0	0	
14	0	0	0	0	480	511	0	0	
15	0	0	0	0	472	508	0	0	
0	0	0	0	0	465	508	0	0	
1	0	0	0	0	460	512	0	0	
2	0	0	0	0	465	510	0	0	
3	0	0	0	0	480	510	0	0	
4	0	0	0	0	476	508	0	0	
5	0	0	0	0	467	508	0	0	
6	0	0	0	0	463	510	0	0	
7	0	0	0	0	462	511	0	0	
8	0	0	0	0	467	508	0	0	
9	0	0	0	0	465	510	0	0	
10	0	0	0	0	463	511	0	0	
11	0	0	0	0	472	512	0	0	
12	0	0	0	0	481	510	0	0	
13	0	0	0	0	487	510	0	0	
14	0	0	0	0	492	512	0	0	
15	0	0	0	0	492	518	0	0	
0	0	0	0	0	492	510	0	0	
1	0	0	0	0	483	508	0	0	
2	0	0	0	0	483	508	0	0	
3	0	0	0	0	483	508	0	0	
4	0	0	0	0	487	504	0	0	
5	0	0	0	0	480	508	0	0	
6	0	0	0	0	480	505	0	0	
7	0	0	0	0	483	504	0	0	
8	0	0	0	0	472	505	0	0	
9	0	0	0	0	467	504	0	0	
10	0	0	0	0	463	508	0	0	
11	0	0	0	0	463	511	0	0	
12	0	0	0	0	472	510	0	0	
13	0	0	0	0	467	510	0	0	
14	0	0	0	0	472	510	0	0	
15	0	0	0	0	472	515	0	0	
0	0	0	0	0	472	510	0	0	
1	0	0	0	0	478	511	0	0	
2	0	0	0	0	481	511	0	0	
3	0	0	0	0	483	510	0	0	
4	0	0	0	0	487	511	0	0	
5	0	0	0	0	487	510	0	0	
6	0	0	0	0	487	505	0	0	
7	0	0	0	0	481	505	0	0	
8	0	0	0	0	483	504	0	0	
9	0	0	0	0	476	510	0	0	
10	0	0	0	0	472	508	0	0	
11	0	0	0	0	472	505	0	0	
12	0	0	0	0	462	508	0	0	
13	0	0	0	0	460	505	0	0	
14	0	0	0	0	460	511	0	0	
15	0	0	0	0	455	510	0	0	
0	0	0	0	0	463	508	0	0	
1	0	0	0	0	467	511	0	0	
2	0	0	0	0	476	508	0	0	
3	0	0	0	0	478	519	0	0	
4	0	0	0	0	480	512	0	0	
5	0	0	0	0	480	511	0	0	
6	0	0	0	0	480	510	0	0	
7	0	0	0	0	481	512	0	0	
8	0	0	0	0	481	510	0	0	
9	0	0	0	0	483	511	0	0	
10	0	0	0	0	483	508	0	0	
11	0	0	0	0	480	508	0	0	
12	0	0	0	0	481	505	0	0	
13	0	0	0	0	480	515	0	0	
14	0	0	0	0	476	510	0	0	
15	0	0	0	0	472	505	0	0	
0	0	0	0	0	463	508	0	0	
1	0	0	0	0	467	508	0	0	
2	0	0	0	0	472	508	0	0	
3	0	0	0	0	463	511	0	0	
4	0	0	0	0	463	512	0	0	
5	0	0	0	0	465	512	0	0	
6	0	0	0	0	467	510	0	0	
7	0	0	0	0	478	508	0	0	
8	0	0	0	0	483	508	0	0	
9	0	0	0	0	492	508	0	0	
10	0	0	0	0	496	513	0	0	
11	0	0	0	0	496	512	0	0	
12	0	0	0	0	487	511	0	0	
13	0	0	0	0	487	511	0	0	
14	0	0	0	0	489	505	0	0	
15	0	0	0	0	483	508	0	0	
0	0	0	0	0	478	504	0	0	
1	0	0	0	0	467	510	0	0	
2	0	0	0	0	455	510	0	0	
3	0	0	0	0	455	508	0	0	
4	0	0	0	0	455	511	0	0	
5	0	0	0	0	455	510	0	0	
6	0	0	0	0	460	510	0	0	
7	0	0	0	0	455	510	0	0	
8	0	0	0	0	462	512	0	0	
9	0	0	0	0	465	512	0	0	
10	0	0	0	0	467	511	0	0	
11	0	0	0	0	472	510	0	0	
12	0	0	0	0	476	511	0	0	
13	0	0	0	0	480	512	0	0	
14	0	0	0	0	480	513	0	0	
15	0	0	0	0	480	515	0	0	
0	0	0	0	0	476	511	0	0	
1	0	0	0	0	480	511	0	0	
2	0	0	0	0	476	508	0	0	
3	0	0	0	0	476	510	0	0	
4	0	0	0	0	480	504	0	0	
5	0	0	0	0	480	508	0	0	
6	0	0	0	0	473	504	0	0	
7	0	0	0	0	472	504	0	0	
8	0	0	0	0	467	510	0	0	
9	0	0	0	0	463	512	0	0	
10	0	0	0	0	463	505	0	0	
11	0	0	0	0	463	504	0	0	
12	0	0	0	0	467	508	0	0	
13	0	0	0	0	472	511	0	0	
14	0	0	0	0	476	512	0	0	
15	0	0	0	0	480	512	0	0	
0	0	0	0	0	487	512	0	0	
1	0	0	0	0	487	511	0	0	
2	0	0	0	0	487	512	0	0	
3	0	0	0	0	483	515	0	0	
4	0	0	0	0	481	513	0	0	
5	0	0	0	0	483	510	0	0	
6	0	0	0	0	480	511	0	0	
7	0	0	0	0	476	508	0	0	
8	0	0	0	0	472	508	0	0	
9	0	0	0	0	463	510	0	0	
10	0	0	0	0	463	508	0	0	
11	0	0	0	0	463	505	0	0	
12	0	0	0	0	463	504	0	0	
13	0	0	0	0	465	504	0	0	
14	0	0	0	0	462	515	0	0	
15	0	0	0	0	455	508	0	0	
0	0	0	0	0	465	508	0	0	
1	0	0	0	0	472	508	0	0	
2	0	0	0	0	472	515	0	0	
3	0	0	0	0	476	512	0	0	
4	0	0	0	0	480	511	0	0	
5	0	0	0	0	480	512	0	0	
6	0	0	0	0	481	512	0	0	
7	0	0	0	0	486	512	0	0	
8	0	0	0	0	483	508	0	0	
9	0	0	0	0	481	505	0	0	
10	0	0	0	0	481	504	0	0	
11	0	0	0	0	476	504	0	0	
12	0	0	0	0	472	504	0	0	
13	0	0	0	0	473	505	0	0	
14	0	0	0	0	476	508	0	0	
15	0	0	0	0	472	508	0	0	
0	0	0	0	0	465	508	0	0	
1	0	0	0	0	455	512	0	0	
2	0	0	0	0	455	510	0	0	
3	0	0	0	0	463	511	0	0	
4	0	0	0	0	467	512	0	0	
5	0	0	0	0	463	512	0	0	
6	0	0	0	0	463	512	0	0	
7	0	0	0	0	470	512	0	0	
8	0	0	0	0	472	512	0	0	
9	0	0	0	0	480	510	0	0	
10	0	0	0	0	481	511	0	0	
11	0	0	0	0	481	512	0	0	
12	0	0	0	0	481	510	0	0	
13	0	0	0	0	483	508	0	0	
14	0	0	0	0	486	508	0	0	
15	0	0	0	0	481	508	0	0	
0	0	0	0	0	480	504	0	0	
1	0	0	0	0	476	505	0	0	
2	0	0	0	0	472	510	0	0	
3	0	0	0	0	472	508	0	0	
4	0	0	0	0	472	511	0	0	
5	0	0	0	0	467	515	0	0	
6	0	0	0	0	472	512	0	0	
7	0	0	0	0	463	515	0	0	
8	0	0	0	0	455	511	0	0	
9	0	0	0	0	463	511	0	0	
10	0	0	0	0	472	511	0	0	
11	0	0	0	0	472	510	0	0	
12	0	0	0	0	480	512	0	0	
13	0	0	0	0	480	512	0	0	
14	0	0	0	0	480	510	0	0	
15	0	0	0	0	483	512	0	0	
0	0	0	0	0	483	510	0	0	
1	0	0	0	0	487	505	0	0	
2	0	0	0	0	483	504	0	0	
3	0	0	0	0	476	508	0	0	
4	0	0	0	0	472	504	0	0	
5	0	0	0	0	472	505	0	0	
6	0	0	0	0	480	504	0	0	
7	0	0	0	0	472	508	0	0	
8	0	0	0	0	472	508	0	0	
9	0	0	0	0	472	513	0	0	
10	0	0	0	0	476	508	0	0	
11	0	0	0	0	476	508	0	0	
12	0	0	0	0	476	510	0	0	
13	0	0	0	0	476	511	0	0	
14	0	0	0	0	480	510	0	0	
15	0	0	0	0	480	512	0	0	
0	0	0	0	0	476	511	0	0	
1	0	0	0	0	465	511	0	0	
2	0	0	0	0	467	512	0	0	
3	0	0	0	0	472	512	0	0	
4	0	0	0	0	476	512	0	0	
5	0	0	0	0	478	510	0	0	
6	0	0	0	0	481	512	0	0	
7	0	0	0	0	476	512	0	0	
8	0	0	0	0	467	504	0	0	
9	0	0	0	0	463	504	0	0	
10	0	0	0	0	463	504	0	0	
11	0	0	0	0	465	505	0	0	
12	0	0	0	0	463	508	0	0	
13	0	0	0	0	462	511	0	0	
14	0	0	0	0	462	508	0	0	
15	0	0	0	0	455	510	0	0	
0	0	0	0	0	463	510	0	0	
1	0	0	0	0	472	512	0	0	
2	0	0	0	0	478	513	0	0	
3	0	0	0	0	476	511	0	0	
4	0	0	0	0	481	512	0	0	
5	0	0	0	0	487	510	0	0	
6	0	0	0	0	487	511	0	0	
7	0	0	0	0	487	512	0	0	
8	0	0	0	0	487	511	0	0	
9	0	0	0	0	483	510	0	0	
10	0	0	0	0	483	508	0	0	
11	0	0	0	0	480	511	0	0	
12	0	0	0	0	480	508	0	0	
13	0	0	0	0	473	508	0	0	
14	0	0	0	0	472	505	0	0	
15	0	0	0	0	472	508	0	0	
0	0	0	0	0	467	510	0	0	
1	0	0	0	0	462	511	0	0	
2	0	0	0	0	462	508	0	0	
3	0	0	0	0	462	510	0	0	
4	0	0	0	0	463	512	0	0	
5	0	0	0	0	472	512	0	0	
6	0	0	0	0	472	511	0	0	
7	0	0	0	0	476	512	0	0	
8	0	0	0	0	480	511	0	0	
9	0	0	0	0	480	511	0	0	
10	0	0	0	0	478	513	0	0	
11	0	0	0	0	480	512	0	0	
12	0	0	0	0	483	512	0	0	
13	0	0	0	0	487	510	0	0	
14	0	0	0	0	483	508	0	0	
15	0	0	0	0	480	508	0	0	
0	0	0	0	0	480	505	0	0	
1	0	0	0	0	476	504	0	0	
2	0	0	0	0	476	504	0	0	
3	0	0	0	0	476	508	0	0	
4	0	0	0	0	467	508	0	0	
5	0	0	0	0	465	508	0	0	
6	0	0	0	0	463	511	0	0	
7	0	0	0	0	463	508	0	0	
8	0	0	0	0	472	510	0	0	
9	0	0	0	0	472	512	0	0	
10	0	0	0	0	472	515	0	0	
11	0	0	0	0	476	512	0	0	
12	0	0	0	0	483	511	0	0	
13	0	0	0	0	487	512	0	0	
14	0	0	0	0	480	512	0	0	
15	0	0	0	0	476	511	0	0	
0	0	0	0	0	476	510	0	0	
1	0	0	0	0	480	510	0	0	
2	0	0	0	0	480	504	0	0	
3	0	0	0	0	480	508	0	0	
4	0	0	0	0	487	508	0	0	
5	0	0	0	0	487	508	0	0	
6	0	0	0	0	476	508	0	0	
7	0	0	0	0	472	505	0	0	
8	0	0	0	0	472	504	0	0	
9	0	0	0	0	463	511	0	0	
10	0	0	0	0	463	511	0	0	
11	0	0	0	0	463	512	0	0	
12	0	0	0	0	463	512	0	0	
13	0	0	0	0	465	511	0	0	
14	0	0	0	0	472	512	0	0	
15	0	0	0	0	476	513	0	0	
0	0	0	0	0	480	513	0	0	
1	0	0	0	0	487	512	0	0	
2	0	0	0	0	487	512	0	0	
3	0	0	0	0	483	511	0	0	
4	0	0	0	0	487	510	0	0	
5	0	0	0	0	486	511	0	0	
6	0	0	0	0	487	508	0	0	
7	0	0	0	0	483	508	0	0	
8	0	0	0	0	480	508	0	0	
9	0	0	0	0	478	508	0	0	
10	0	0	0	0	472	508	0	0	
11	0	0	0	0	463	510	0	0	
12	0	0	0	0	455	511	0	0	
13	0	0	0	0	455	505	0	0	
14	0	0	0	0	455	512	0	0	
15	0	0	0	0	460	510	0	0	
0	0	0	0	0	463	512	0	0	
1	0	0	0	0	467	510	0	0	
2	0	0	0	0	470	512	0	0	
3	0	0	0	0	472	508	0	0	
4	0	0	0	0	476	508	0	0	
5	0	0	0	0	480	510	0	0	
6	0	0	0	0	481	512	0	0	
7	0	0	0	0	480	510	0	0	
8	0	0	0	0	480	508	0	0	
9	0	0	0	0	483	508	0	0	
10	0	0	0	0	486	504	0	0	
11	0	0	0	0	478	508	0	0	
12	0	0	0	0	470	508	0	0	
13	0	0	0	0	465	504	0	0	
14	0	0	0	0	467	508	0	0	
15	0	0	0	0	467	508	0	0	
0	0	0	0	0	472	510	0	0	
1	0	0	0	0	463	512	0	0	
2	0	0	0	0	467	510	0	0	
3	0	0	0	0	472	511	0	0	
4	0	0	0	0	480	511	0	0	
5	0	0	0	0	480	510	0	0	
6	0	0	0	0	480	512	0	0	
7	0	0	0	0	483	511	0	0	
8	0	0	0	0	483	511	0	0	
9	0	0	0	0	483	512	0	0	
10	0	0	0	0	483	511	0	0	
11	0	0	0	0	480	511	0	0	
12	0	0	0	0	480	508	0	0	
13	0	0	0	0	476	508	0	0	
14	0	0	0	0	478	510	0	0	
15	0	0	0	0	472	508	0	0	
0	0	0	0	0	472	504	0	0	
1	0	0	0	0	465	508	0	0	
2	0	0	0	0	463	505	0	0	
3	0	0	0	0	463	504	0	0	
4	0	0	0	0	463	504	0	0	
5	0	0	0	0	462	508	0	0	
6	0	0	0	0	455	510	0	0	
7	0	0	0	0	455	510	0	0	
8	0	0	0	0	455	508	0	0	
9	0	0	0	0	455	511	0	0	
10	0	0	0	0	462	512	0	0	
11	0	0	0	0	473	512	0	0	
12	0	0	0	0	487	512	0	0	
13	0	0	0	0	492	512	0	0	
14	0	0	0	0	492	510	0	0	
15	0	0	0	0	483	511	0	0	
0	0	0	0	0	487	512	0	0	
1	0	0	0	0	483	510	0	0	
2	0	0	0	0	483	510	0	0	
3	0	0	0	0	476	508	0	0	
4	0	0	0	0	472	505	0	0	
5	0	0	0	0	476	508	0	0	
6	0	0	0	0	480	505	0	0	
7	0	0	0	0	476	505	0	0	
8	0	0	0	0	472	508	0	0	
9	0	0	0	0	472	510	0	0	
10	0	0	0	0	472	510	0	0	
11	0	0	0	0	472	511	0	0	
12	0	0	0	0	463	510	0	0	
13	0	0	0	0	460	508	0	0	
14	0	0	0	0	462	512	0	0	
15	0	0	0	0	465	510	0	0	
0	0	0	0	0	476	513	0	0	
1	0	0	0	0	480	512	0	0	
2	0	0	0	0	487	512	0	0	
3	0	0	0	0	487	519	0	0	
4	0	0	0	0	487	512	0	0	
5	0	0	0	0	492	512	0	0	
6	0	0	0	0	486	511	0	0	
7	0	0	0	0	481	508	0	0	
8	0	0	0	0	476	512	0	0	
9	0	0	0	0	472	511	0	0	
10	0	0	0	0	480	511	0	0	
11	0	0	0	0	472	510	0	0	
12	0	0	0	0	463	510	0	0	
13	0	0	0	0	463	512	0	0	
14	0	0	0	0	463	508	0	0	
15	0	0	0	0	463	510	0	0	
0	0	0	0	0	467	510	0	0	
1	0	0	0	0	472	510	0	0	
2	0	0	0	0	476	511	0	0	
3	0	0	0	0	480	511	0	0	
4	0	0	0	0	483	513	0	0	
5	0	0	0	0	483	512	0	0	
6	0	0	0	0	481	508	0	0	
7	0	0	0	0	481	504	0	0	
8	0	0	0	0	483	508	0	0	
9	0	0	0	0	483	510	0	0	
10	0	0	0	0	487	508	0	0	
11	0	0	0	0	480	510	0	0	
12	0	0	0	0	480	508	0	0	
13	0	0	0	0	472	508	0	0	
14	0	0	0	0	463	504	0	0	
15	0	0	0	0	463	504	0	0	
0	0	0	0	0	463	504	0	0	
1	0	0	0	0	463	511	0	0	
2	0	0	0	0	463	510	0	0	
3	0	0	0	0	463	508	0	0	
4	0	0	0	0	472	512	0	0	
5	0	0	0	0	472	512	0	0	
6	0	0	0	0	473	511	0	0	
7	0	0	0	0	480	511	0	0	
8	0	0	0	0	481	511	0	0	
9	0	0	0	0	487	510	0	0	
10	0	0	0	0	487	510	0	0	
11	0	0	0	0	481	511	0	0	
12	0	0	0	0	480	510	0	0	
13	0	0	0	0	476	510	0	0	
14	0	0	0	0	480	511	0	0	
15	0	0	0	0	472	512	0	0	
0	0	0	0	0	463	511	0	0	
1	0	0	0	0	460	508	0	0	
2	0	0	0	0	463	508	0	0	
3	0	0	0	0	467	508	0	0	
4	0	0	0	0	472	508	0	0	
5	0	0	0	0	472	505	0	0	
6	0	0	0	0	460	511	0	0	
7	0	0	0	0	463	511	0	0	
8	0	0	0	0	463	510	0	0	
9	0	0	0	0	467	512	0	0	
10	0	0	0	0	467	511	0	0	
11	0	0	0	0	472	510	0	0	
12	0	0	0	0	476	510	0	0	
13	0	0	0	0	481	508	0	0	
14	0	0	0	0	487	511	0	0	
15	0	0	0	0	487	510	0	0	
0	0	0	0	0	487	508	0	0	
1	0	0	0	0	492	512	0	0	
2	0	0	0	0	483	511	0	0	
3	0	0	0	0	483	508	0	0	
4	0	0	0	0	480	508	0	0	
5	0	0	0	0	472	508	0	0	
6	0	0	0	0	465	505	0	0	
7	0	0	0	0	465	504	0	0	
8	0	0	0	0	463	508	0	0	
9	0	0	0	0	467	512	0	0	
10	0	0	0	0	460	511	0	0	
11	0	0	0	0	455	510	0	0	
12	0	0	0	0	462	508	0	0	
13	0	0	0	0	463	508	0	0	
14	0	0	0	0	472	510	0	0	
15	0	0	0	0	487	511	0	0	
0	0	0	0	0	487	512	0	0	
1	0	0	0	0	486	512	0	0	
2	0	0	0	0	483	511	0	0	
3	0	0	0	0	483	512	0	0	
4	0	0	0	0	487	511	0	0	
5	0	0	0	0	486	510	0	0	
6	0	0	0	0	478	508	0	0	
7	0	0	0	0	467	508	0	0	
8	0	0	0	0	467	504	0	0	
9	0	0	0	0	467	504	0	0	
10	0	0	0	0	467	508	0	0	
11	0	0	0	0	467	504	0	0	
12	0	0	0	0	465	504	0	0	
13	0	0	0	0	463	511	0	0	
14	0	0	0	0	463	511	0	0	
15	0	0	0	0	460	510	0	0	
0	0	0	0	0	463	505	0	0	
1	0	0	0	0	472	511	0	0	
2	0	0	0	0	476	508	0	0	
3	0	0	0	0	476	518	0	0	
4	0	0	0	0	476	512	0	0	
5	0	0	0	0	480	511	0	0	
6	0	0	0	0	480	510	0	0	
7	0	0	0	0	483	512	0	0	
8	0	0	0	0	492	512	0	0	
9	0	0	0	0	496	510	0	0	
10	0	0	0	0	492	508	0	0	
11	0	0	0	0	486	508	0	0	
12	0	0	0	0	481	504	0	0	
13	0	0	0	0	473	510	0	0	
14	0	0	0	0	472	504	0	0	
15	0	0	0	0	472	508	0	0	
0	0	0	0	0	462	508	0	0	
1	0	0	0	0	455	510	0	0	
2	0	0	0	0	455	508	0	0	
3	0	0	0	0	455	508	0	0	
4	0	0	0	0	462	511	0	0	
5	0	0	0	0	463	511	0	0	
6	0	0	0	0	472	512	0	0	
7	0	0	0	0	476	510	0	0	
8	0	0	0	0	480	511	0	0	
9	0	0	0	0	481	512	0	0	
10	0	0	0	0	480	511	0	0	
11	0	0	0	0	483	508	0	0	
12	0	0	0	0	487	515	0	0	
13	0	0	0	0	487	512	0	0	
14	0	0	0	0	480	512	0	0	
15	0	0	0	0	476	508	0	0	
0	0	0	0	0	473	505	0	0	
1	0	0	0	0	472	510	0	0	
2	0	0	0	0	472	508	0	0	
3	0	0	0	0	467	505	0	0	
4	0	0	0	0	463	508	0	0	
5	0	0	0	0	463	508	0	0	
6	0	0	0	0	463	508	0	0	
7	0	0	0	0	463	505	0	0	
8	0	0	0	0	463	511	0	0	
9	0	0	0	0	472	511	0	0	
10	0	0	0	0	467	515	0	0	
11	0	0	0	0	472	508	0	0	
12	0	0	0	0	480	511	0	0	
13	0	0	0	0	486	512	0	0	
14	0	0	0	0	483	512	0	0	
15	0	0	0	0	483	511	0	0	
0	0	0	0	0	487	510	0	0	
1	0	0	0	0	487	510	0	0	
2	0	0	0	0	483	508	0	0	
3	0	0	0	0	487	505	0	0	
4	0	0	0	0	480	511	0	0	
5	0	0	0	0	472	508	0	0	
6	0	0	0	0	472	504	0	0	
7	0	0	0	0	467	510	0	0	
8	0	0	0	0	467	511	0	0	
9	0	0	0	0	463	508	0	0	
10	0	0	0	0	462	508	0	0	
11	0	0	0	0	455	508	0	0	
12	0	0	0	0	463	511	0	0	
13	0	0	0	0	472	512	0	0	
14	0	0	0	0	472	519	0	0	
15	0	0	0	0	480	513	0	0	
0	0	0	0	0	480	511	0	0	
1	0	0	0	0	483	512	0	0	
2	0	0	0	0	481	512	0	0	
3	0	0	0	0	480	508	0	0	
4	0	0	0	0	483	508	0	0	
5	0	0	0	0	481	510	0	0	
6	0	0	0	0	480	508	0	0	
7	0	0	0	0	480	508	0	0	
8	0	0	0	0	476	508	0	0	
9	0	0	0	0	472	508	0	0	
10	0	0	0	0	463	508	0	0	
11	0	0	0	0	467	505	0	0	
12	0	0	0	0	463	504	0	0	
13	0	0	0	0	463	508	0	0	
14	0	0	0	0	463	508	0	0	
15	0	0	0	0	463	508	0	0	
0	0	0	0	0	465	510	0	0	
1	0	0	0	0	467	508	0	0	
2	0	0	0	0	476	515	0	0	
3	0	0	0	0	480	511	0	0	
4	0	0	0	0	481	515	0	0	
5	0	0	0	0	486	515	0	0	
6	0	0	0	0	487	512	0	0	
7	0	0	0	0	483	511	0	0	
8	0	0	0	0	478	510	0	0	
9	0	0	0	0	472	511	0	0	
10	0	0	0	0	473	510	0	0	
11	0	0	0	0	476	508	0	0	
12	0	0	0	0	472	508	0	0	
13	0	0	0	0	473	510	0	0	
14	0	0	0	0	472	508	0	0	
15	0	0	0	0	472	508	0	0	
0	0	0	0	0	463	508	0	0	
1	0	0	0	0	455	504	0	0	
2	0	0	0	0	462	510	0	0	
3	0	0	0	0	462	511	0	0	
4	0	0	0	0	467	511	0	0	
5	0	0	0	0	478	512	0	0	
6	0	0	0	0	480	511	0	0	
7	0	0	0	0	478	512	0	0	
8	0	0	0	0	480	510	0	0	
9	0	0	0	0	481	511	0	0	
10	0	0	0	0	483	511	0	0	
11	0	0	0	0	486	508	0	0	
12	0	0	0	0	487	510	0	0	
13	0	0	0	0	492	512	0	0	
14	0	0	0	0	483	510	0	0	
15	0	0	0	0	480	511	0	0	
0	0	0	0	0	473	510	0	0	
1	0	0	0	0	472	508	0	0	
2	0	0	0	0	472	505	0	0	
3	0	0	0	0	472	504	0	0	
4	0	0	0	0	467	508	0	0	
5	0	0	0	0	463	510	0	0	
6	0	0	0	0	463	511	0	0	
7	0	0	0	0	463	511	0	0	
8	0	0	0	0	465	510	0	0	
9	0	0	0	0	463	512	0	0	
10	0	0	0	0	467	512	0	0	
11	0	0	0	0	473	510	0	0	
12	0	0	0	0	480	510	0	0	
13	0	0	0	0	487	512	0	0	
14	0	0	0	0	487	511	0	0	
15	0	0	0	0	487	510	0	0	
0	0	0	0	0	481	513	0	0	
1	0	0	0	0	481	511	0	0	
2	0	0	0	0	487	511	0	0	
3	0	0	0	0	483	512	0	0	
4	0	0	0	0	487	508	0	0	
5	0	0	0	0	480	515	0	0	
6	0	0	0	0	472	510	0	0	
7	0	0	0	0	472	511	0	0	
8	0	0	0	0	462	511	0	0	
9	0	0	0	0	463	511	0	0	
10	0	0	0	0	463	508	0	0	
11	0	0	0	0	455	508	0	0	
12	0	0	0	0	455	508	0	0	
13	0	0	0	0	455	510	0	0	
14	0	0	0	0	467	508	0	0	
15	0	0	0	0	473	515	0	0	
0	0	0	0	0	480	513	0	0	
1	0	0	0	0	483	511	0	0	
2	0	0	0	0	473	511	0	0	
3	0	0	0	0	472	504	0	0	
4	0	0	0	0	476	510	0	0	
5	0	0	0	0	476	511	0	0	
6	0	0	0	0	476	508	0	0	
7	0	0	0	0	472	508	0	0	
8	0	0	0	0	476	505	0	0	
9	0	0	0	0	478	508	0	0	
10	0	0	0	0	472	504	0	0	
11	0	0	0	0	473	504	0	0	
12	0	0	0	0	472	504	0	0	
13	0	0	0	0	463	508	0	0	
14	0	0	0	0	455	510	0	0	
15	0	0	0	0	455	512	0	0	
0	0	0	0	0	455	510	0	0	
1	0	0	0	0	455	512	0	0	
2	0	0	0	0	472	511	0	0	
3	0	0	0	0	476	512	0	0	
4	0	0	0	0	478	512	0	0	
5	0	0	0	0	480	510	0	0	
6	0	0	0	0	480	510	0	0	
7	0	0	0	0	483	510	0	0	
8	0	0	0	0	487	510	0	0	
9	0	0	0	0	494	510	0	0	
10	0	0	0	0	487	508	0	0	
11	0	0	0	0	481	508	0	0	
12	0	0	0	0	481	508	0	0	
13	0	0	0	0	472	508	0	0	
14	0	0	0	0	472	505	0	0	
15	0	0	0	0	472	508	0	0	
0	0	0	0	0	467	510	0	0	
1	0	0	0	0	472	508	0	0	
2	0	0	0	0	472	508	0	0	
3	0	0	0	0	476	511	0	0	
4	0	0	0	0	472	511	0	0	
5	0	0	0	0	472	511	0	0	
6	0	0	0	0	472	511	0	0	
7	0	0	0	0	480	510	0	0	
8	0	0	0	0	480	513	0	0	
9	0	0	0	0	483	511	0	0	
10	0	0	0	0	489	511	0	0	
11	0	0	0	0	481	518	0	0	
12	0	0	0	0	481	513	0	0	
13	0	0	0	0	483	511	0	0	
14	0	0	0	0	483	508	0	0	
15	0	0	0	0	487	510	0	0	
0	0	0	0	0	480	510	0	0	
1	0	0	0	0	472	511	0	0	
2	0	0	0	0	467	508	0	0	
3	0	0	0	0	472	508	0	0	
4	0	0	0	0	472	508	0	0	
5	0	0	0	0	467	512	0	0	
6	0	0	0	0	467	511	0	0	
7	0	0	0	0	472	511	0	0	
8	0	0	0	0	472	508	0	0	
9	0	0	0	0	472	508	0	0	
10	0	0	0	0	472	511	0	0	
11	0	0	0	0	476	511	0	0	
12	0	0	0	0	476	510	0	0	
13	0	0	0	0	480	510	0	0	
14	0	0	0	0	483	511	0	0	
15	0	0	0	0	481	515	0	0	
0	0	0	0	0	487	511	0	0	
1	0	0	0	0	483	510	0	0	
2	0	0	0	0	480	508	0	0	
3	0	0	0	0	480	510	0	0	
4	0	0	0	0	481	508	0	0	
5	0	0	0	0	476	508	0	0	
6	0	0	0	0	476	510	0	0	
7	0	0	0	0	465	510	0	0	
8	0	0	0	0	462	508	0	0	
9	0	0	0	0	463	504	0	0	
10	0	0	0	0	463	510	0	0	
11	0	0	0	0	463	510	0	0	
12	0	0	0	0	472	508	0	0	
13	0	0	0	0	476	510	0	0	
14	0	0	0	0	480	510	0	0	
15	0	0	0	0	481	510	0	0	
0	0	0	0	0	483	512	0	0	
1	0	0	0	0	481	515	0	0	
2	0	0	0	0	472	513	0	0	
3	0	0	0	0	480	511	0	0	
4	0	0	0	0	481	511	0	0	
5	0	0	0	0	483	508	0	0	
6	0	0	0	0	481	504	0	0	
7	0	0	0	0	480	508	0	0	
8	0	0	0	0	476	511	0	0	
9	0	0	0	0	476	508	0	0	
10	0	0	0	0	473	504	0	0	
11	0	0	0	0	472	508	0	0	
12	0	0	0	0	465	508	0	0	
13	0	0	0	0	467	508	0	0	
14	0	0	0	0	465	508	0	0	
15	0	0	0	0	463	510	0	0	
0	0	0	0	0	463	508	0	0	
1	0	0	0	0	462	510	0	0	
2	0	0	0	0	463	510	0	0	
3	0	0	0	0	472	512	0	0	
4	0	0	0	0	476	513	0	0	
5	0	0	0	0	478	512	0	0	
6	0	0	0	0	473	511	0	0	
7	0	0	0	0	483	511	0	0	
8	0	0	0	0	496	511	0	0	
9	0	0	0	0	487	510	0	0	
10	0	0	0	0	480	508	0	0	
11	0	0	0	0	478	510	0	0	
12	0	0	0	0	472	508	0	0	
13	0	0	0	0	472	510	0	0	
14	0	0	0	0	472	508	0	0	
15	0	0	0	0	467	504	0	0	
0	0	0	0	0	463	510	0	0	
1	0	0	0	0	455	513	0	0	
2	0	0	0	0	455	510	0	0	
3	0	0	0	0	460	508	0	0	
4	0	0	0	0	462	510	0	0	
5	0	0	0	0	460	512	0	0	
6	0	0	0	0	460	511	0	0	
7	0	0	0	0	455	512	0	0	
8	0	0	0	0	455	513	0	0	
9	0	0	0	0	472	511	0	0	
10	0	0	0	0	487	511	0	0	
11	0	0	0	0	496	512	0	0	
12	0	0	0	0	499	511	0	0	
13	0	0	0	0	504	511	0	0	
14	0	0	0	0	504	510	0	0	
15	0	0	0	0	494	510	0	0	
0	0	0	0	0	483	508	0	0	
1	0	0	0	0	480	508	0	0	
2	0	0	0	0	472	510	0	0	
3	0	0	0	0	472	505	0	0	
4	0	0	0	0	472	508	0	0	
5	0	0	0	0	467	508	0	0	
6	0	0	0	0	463	504	0	0	
7	0	0	0	0	463	508	0	0	
8	0	0	0	0	473	510	0	0	
9	0	0	0	0	480	512	0	0	
10	0	0	0	0	472	519	0	0	
11	0	0	0	0	480	512	0	0	
12	0	0	0	0	481	511	0	0	
13	0	0	0	0	483	510	0	0	
14	0	0	0	0	483	510	0	0	
15	0	0	0	0	483	511	0	0	
0	0	0	0	0	483	510	0	0	
1	0	0	0	0	483	511	0	0	
2	0	0	0	0	480	510	0	0	
3	0	0	0	0	472	508	0	0	
4	0	0	0	0	472	508	0	0	
5	0	0	0	0	467	510	0	0	
6	0	0	0	0	472	511	0	0	
7	0	0	0	0	465	508	0	0	
8	0	0	0	0	467	508	0	0	
9	0	0	0	0	463	512	0	0	
10	0	0	0	0	465	508	0	0	
11	0	0	0	0	465	512	0	0	
12	0	0	0	0	463	512	0	0	
13	0	0	0	0	472	510	0	0	
14	0	0	0	0	472	518	0	0	
15	0	0	0	0	473	512	0	0	
0	0	0	0	0	480	515	0	0	
1	0	0	0	0	480	510	0	0	
2	0	0	0	0	483	511	0	0	
3	0	0	0	0	481	515	0	0	
4	0	0	0	0	483	511	0	0	
5	0	0	0	0	481	508	0	0	
6	0	0	0	0	481	504	0	0	
7	0	0	0	0	480	508	0	0	
8	0	0	0	0	480	508	0	0	
9	0	0	0	0	472	508	0	0	
10	0	0	0	0	472	508	0	0	
11	0	0	0	0	472	504	0	0	
12	0	0	0	0	467	504	0	0	
13	0	0	0	0	467	505	0	0	
14	0	0	0	0	465	508	0	0	
15	0	0	0	0	465	508	0	0	
0	0	0	0	0	465	508	0	0	
1	0	0	0	0	472	510	0	0	
2	0	0	0	0	472	513	0	0	
3	0	0	0	0	476	511	0	0	
4	0	0	0	0	480	515	0	0	
5	0	0	0	0	481	512	0	0	
6	0	0	0	0	481	508	0	0	
7	0	0	0	0	487	504	0	0	
8	0	0	0	0	487	510	0	0	
9	0	0	0	0	481	508	0	0	
10	0	0	0	0	476	508	0	0	
11	0	0	0	0	472	508	0	0	
12	0	0	0	0	467	510	0	0	
13	0	0	0	0	463	508	0	0	
14	0	0	0	0	460	508	0	0	
15	0	0	0	0	463	510	0	0	
0	0	0	0	0	472	510	0	0	
1	0	0	0	0	463	508	0	0	
2	0	0	0	0	463	510	0	0	
3	0	0	0	0	465	511	0	0	
4	0	0	0	0	472	508	0	0	
5	0	0	0	0	463	511	0	0	
6	0	0	0	0	465	515	0	0	
7	0	0	0	0	463	510	0	0	
8	0	0	0	0	463	511	0	0	
9	0	0	0	0	465	510	0	0	
10	0	0	0	0	472	511	0	0	
11	0	0	0	0	476	511	0	0	
12	0	0	0	0	473	511	0	0	
13	0	0	0	0	480	512	0	0	
14	0	0	0	0	483	508	0	0	
15	0	0	0	0	483	508	0	0	
0	0	0	0	0	480	510	0	0	
1	0	0	0	0	480	505	0	0	
2	0	0	0	0	476	508	0	0	
3	0	0	0	0	473	508	0	0	
4	0	0	0	0	467	504	0	0	
5	0	0	0	0	467	508	0	0	
6	0	0	0	0	463	508	0	0	
7	0	0	0	0	462	508	0	0	
8	0	0	0	0	463	510	0	0	
9	0	0	0	0	472	508	0	0	
10	0	0	0	0	472	513	0	0	
11	0	0	0	0	472	512	0	0	
12	0	0	0	0	476	510	0	0	
13	0	0	0	0	480	512	0	0	
14	0	0	0	0	481	511	0	0	
15	0	0	0	0	483	512	0	0	
0	0	0	0	0	487	510	0	0	
1	0	0	0	0	486	508	0	0	
2	0	0	0	0	483	512	0	0	
3	0	0	0	0	467	512	0	0	
4	0	0	0	0	463	511	0	0	
5	0	0	0	0	455	508	0	0	
6	0	0	0	0	455	505	0	0	
7	0	0	0	0	460	508	0	0	
8	0	0	0	0	472	508	0	0	
9	0	0	0	0	472	510	0	0	
10	0	0	0	0	463	508	0	0	
11	0	0	0	0	455	505	0	0	
12	0	0	0	0	455	511	0	0	
13	0	0	0	0	467	510	0	0	
14	0	0	0	0	467	519	0	0	
15	0	0	0	0	476	511	0	0	
0	0	0	0	0	486	511	0	0	
1	0	0	0	0	489	513	0	0	
2	0	0	0	0	487	512	0	0	
3	0	0	0	0	492	510	0	0	
4	0	0	0	0	494	511	0	0	
5	0	0	0	0	496	511	0	0	
6	0	0	0	0	496	508	0	0	
7	0	0	0	0	487	508	0	0	
8	0	0	0	0	480	508	0	0	
9	0	0	0	0	476	508	0	0	
10	0	0	0	0	467	508	0	0	
11	0	0	0	0	463	508	0	0	
12	0	0	0	0	463	504	0	0	
13	0	0	0	0	467	508	0	0	
14	0	0	0	0	472	508	0	0	
15	0	0	0	0	472	510	0	0	
0	0	0	0	0	476	512	0	0	
1	0	0	0	0	472	512	0	0	
2	0	0	0	0	476	511	0	0	
3	0	0	0	0	480	511	0	0	
4	0	0	0	0	483	513	0	0	
5	0	0	0	0	483	508	0	0	
6	0	0	0	0	492	511	0	0	
7	0	0	0	0	494	512	0	0	
8	0	0	0	0	494	511	0	0	
9	0	0	0	0	487	511	0	0	
10	0	0	0	0	476	510	0	0	
11	0	0	0	0	476	508	0	0	
12	0	0	0	0	478	508	0	0	
13	0	0	0	0	472	505	0	0	
14	0	0	0	0	472	508	0	0	
15	0	0	0	0	472	508	0	0	
0	0	0	0	0	472	505	0	0	
1	0	0	0	0	473	510	0	0	
2	0	0	0	0	467	510	0	0	
3	0	0	0	0	465	510	0	0	
4	0	0	0	0	472	512	0	0	
5	0	0	0	0	467	513	0	0	
6	0	0	0	0	465	511	0	0	
7	0	0	0	0	467	515	0	0	
8	0	0	0	0	476	513	0	0	
9	0	0	0	0	481	511	0	0	
10	0	0	0	0	483	511	0	0	
11	0	0	0	0	492	510	0	0	
12	0	0	0	0	494	510	0	0	
13	0	0	0	0	496	510	0	0	
14	0	0	0	0	492	505	0	0	
15	0	0	0	0	486	508	0	0	
0	0	0	0	0	478	508	0	0	
1	0	0	0	0	472	508	0	0	
2	0	0	0	0	467	508	0	0	
3	0	0	0	0	467	508	0	0	
4	0	0	0	0	460	510	0	0	
5	0	0	0	0	463	508	0	0	
6	0	0	0	0	462	515	0	0	
7	0	0	0	0	462	511	0	0	
8	0	0	0	0	463	511	0	0	
9	0	0	0	0	467	512	0	0	
10	0	0	0	0	472	504	0	0	
11	0	0	0	0	476	512	0	0	
12	0	0	0	0	480	511	0	0	
13	0	0	0	0	483	511	0	0	
14	0	0	0	0	483	510	0	0	
15	0	0	0	0	483	510	0	0	
0	0	0	0	0	480	511	0	0	
1	0	0	0	0	480	510	0	0	
2	0	0	0	0	480	508	0	0	
3	0	0	0	0	481	510	0	0	
4	0	0	0	0	476	510	0	0	
5	0	0	0	0	472	508	0	0	
6	0	0	0	0	465	508	0	0	
7	0	0	0	0	463	505	0	0	
8	0	0	0	0	463	508	0	0	
9	0	0	0	0	465	513	0	0	
10	0	0	0	0	472	508	0	0	
11	0	0	0	0	473	512	0	0	
12	0	0	0	0	467	508	0	0	
13	0	0	0	0	463	512	0	0	
14	0	0	0	0	472	512	0	0	
15	0	0	0	0	473	511	0	0	
0	0	0	0	0	473	511	0	0	
1	0	0	0	0	472	510	0	0	
2	0	0	0	0	472	508	0	0	
3	0	0	0	0	473	510	0	0	
4	0	0	0	0	476	510	0	0	
5	0	0	0	0	481	511	0	0	
6	0	0	0	0	487	511	0	0	
7	0	0	0	0	483	508	0	0	
8	0	0	0	0	480	508	0	0	
9	0	0	0	0	476	508	0	0	
10	0	0	0	0	472	512	0	0	
11	0	0	0	0	467	508	0	0	
12	0	0	0	0	472	508	0	0	
13	0	0	0	0	463	512	0	0	
14	0	0	0	0	463	505	0	0	
15	0	0	0	0	467	510	0	0	
0	0	0	0	0	470	510	0	0	
1	0	0	0	0	478	512	0	0	
2	0	0	0	0	480	513	0	0	
3	0	0	0	0	480	513	0	0	
4	0	0	0	0	480	511	0	0	
5	0	0	0	0	480	510	0	0	
6	0	0	0	0	480	510	0	0	
7	0	0	0	0	476	511	0	0	
8	0	0	0	0	472	511	0	0	
9	0	0	0	0	480	511	0	0	
10	0	0	0	0	487	512	0	0	
11	0	0	0	0	472	510	0	0	
12	0	0	0	0	467	508	0	0	
13	0	0	0	0	472	505	0	0	
14	0	0	0	0	472	508	0	0	
15	0	0	0	0	472	510	0	0	
0	0	0	0	0	472	508	0	0	
1	0	0	0	0	460	510	0	0	
2	0	0	0	0	455	510	0	0	
3	0	0	0	0	455	508	0	0	
4	0	0	0	0	455	508	0	0	
5	0	0	0	0	455	511	0	0	
6	0	0	0	0	460	513	0	0	
7	0	0	0	0	472	512	0	0	
8	0	0	0	0	480	513	0	0	
9	0	0	0	0	487	512	0	0	
10	0	0	0	0	487	512	0	0	
11	0	0	0	0	480	512	0	0	
12	0	0	0	0	476	508	0	0	
13	0	0	0	0	480	504	0	0	
14	0	0	0	0	481	510	0	0	
15	0	0	0	0	481	504	0	0	
0	0	0	0	0	480	504	0	0	
1	0	0	0	0	472	504	0	0	
2	0	0	0	0	472	510	0	0	
3	0	0	0	0	472	508	0	0	
4	0	0	0	0	472	508	0	0	
5	0	0	0	0	467	504	0	0	
6	0	0	0	0	463	512	0	0	
7	0	0	0	0	462	510	0	0	
8	0	0	0	0	463	508	0	0	
9	0	0	0	0	463	508	0	0	
10	0	0	0	0	470	510	0	0	
11	0	0	0	0	480	512	0	0	
12	0	0	0	0	487	515	0	0	
13	0	0	0	0	496	512	0	0	
14	0	0	0	0	496	513	0	0	
15	0	0	0	0	496	512	0	0	
0	0	0	0	0	496	511	0	0	
1	0	0	0	0	492	510	0	0	
2	0	0	0	0	487	510	0	0	
3	0	0	0	0	480	508	0	0	
4	0	0	0	0	472	505	0	0	
5	0	0	0	0	465	511	0	0	
6	0	0	0	0	465	511	0	0	
7	0	0	0	0	472	508	0	0	
8	0	0	0	0	472	508	0	0	
9	0	0	0	0	465	508	0	0	
10	0	0	0	0	463	511	0	0	
11	0	0	0	0	463	508	0	0	
12	0	0	0	0	467	508	0	0	
13	0	0	0	0	472	510	0	0	
14	0	0	0	0	473	511	0	0	
15	0	0	0	0	476	512	0	0	
0	0	0	0	0	480	511	0	0	
1	0	0	0	0	480	510	0	0	
2	0	0	0	0	480	511	0	0	
3	0	0	0	0	480	510	0	0	
4	0	0	0	0	483	510	0	0	
5	0	0	0	0	487	512	0	0	
6	0	0	0	0	480	508	0	0	
7	0	0	0	0	480	508	0	0	
8	0	0	0	0	472	512	0	0	
9	0	0	0	0	467	505	0	0	
10	0	0	0	0	463	508	0	0	
11	0	0	0	0	463	508	0	0	
12	0	0	0	0	463	508	0	0	
13	0	0	0	0	463	508	0	0	
14	0	0	0	0	463	508	0	0	
15	0	0	0	0	465	511	0	0	
0	0	0	0	0	463	511	0	0	
1	0	0	0	0	463	510	0	0	
2	0	0	0	0	472	510	0	0	
3	0	0	0	0	472	510	0	0	
4	0	0	0	0	472	511	0	0	
5	0	0	0	0	476	511	0	0	
6	0	0	0	0	480	511	0	0	
7	0	0	0	0	483	511	0	0	
8	0	0	0	0	480	513	0	0	
9	0	0	0	0	480	511	0	0	
10	0	0	0	0	480	510	0	0	
11	0	0	0	0	472	512	0	0	
12	0	0	0	0	472	510	0	0	
13	0	0	0	0	473	508	0	0	
14	0	0	0	0	472	508	0	0	
15	0	0	0	0	472	505	0	0	
0	0	0	0	0	467	504	0	0	
1	0	0	0	0	463	508	0	0	
2	0	0	0	0	463	508	0	0	
3	0	0	0	0	463	508	0	0	
4	0	0	0	0	463	512	0	0	
5	0	0	0	0	463	513	0	0	
6	0	0	0	0	463	511	0	0	
7	0	0	0	0	476	513	0	0	
8	0	0	0	0	480	512	0	0	
9	0	0	0	0	480	511	0	0	
10	0	0	0	0	487	512	0	0	
11	0	0	0	0	487	511	0	0	
12	0	0	0	0	487	512	0	0	
13	0	0	0	0	487	511	0	0	
14	0	0	0	0	487	508	0	0	
15	0	0	0	0	483	508	0	0	
0	0	0	0	0	480	512	0	0	
1	0	0	0	0	480	504	0	0	
2	0	0	0	0	472	508	0	0	
3	0	0	0	0	460	504	0	0	
4	0	0	0	0	460	508	0	0	
5	0	0	0	0	460	511	0	0	
6	0	0	0	0	455	512	0	0	
7	0	0	0	0	455	508	0	0	
8	0	0	0	0	455	508	0	0	
9	0	0	0	0	455	504	0	0	
10	0	0	0	0	460	511	0	0	
11	0	0	0	0	472	511	0	0	
12	0	0	0	0	487	512	0	0	
13	0	0	0	0	487	511	0	0	
14	0	0	0	0	487	510	0	0	
15	0	0	0	0	487	510	0	0	
0	0	0	0	0	487	510	0	0	
1	0	0	0	0	487	508	0	0	
2	0	0	0	0	494	508	0	0	
3	0	0	0	0	489	508	0	0	
4	0	0	0	0	486	508	0	0	
5	0	0	0	0	478	508	0	0	
6	0	0	0	0	472	508	0	0	
7	0	0	0	0	472	508	0	0	
8	0	0	0	0	467	510	0	0	
9	0	0	0	0	472	511	0	0	
10	0	0	0	0	472	510	0	0	
11	0	0	0	0	463	511	0	0	
12	0	0	0	0	463	510	0	0	
13	0	0	0	0	463	512	0	0	
14	0	0	0	0	463	511	0	0	
15	0	0	0	0	472	512	0	0	
0	0	0	0	0	483	515	0	0	
1	0	0	0	0	483	512	0	0	
2	0	0	0	0	481	510	0	0	
3	0	0	0	0	487	510	0	0	
4	0	0	0	0	487	511	0	0	
5	0	0	0	0	487	511	0	0	
6	0	0	0	0	483	508	0	0	
7	0	0	0	0	480	508	0	0	
8	0	0	0	0	476	508	0	0	
9	0	0	0	0	472	508	0	0	
10	0	0	0	0	463	508	0	0	
11	0	0	0	0	463	508	0	0	
12	0	0	0	0	463	508	0	0	
13	0	0	0	0	465	508	0	0	
14	0	0	0	0	463	508	0	0	
15	0	0	0	0	463	510	0	0	
0	0	0	0	0	463	510	0	0	
1	0	0	0	0	462	510	0	0	
2	0	0	0	0	460	508	0	0	
3	0	0	0	0	467	508	0	0	
4	0	0	0	0	476	508	0	0	
5	0	0	0	0	481	510	0	0	
6	0	0	0	0	487	510	0	0	
7	0	0	0	0	494	511	0	0	
8	0	0	0	0	487	511	0	0	
9	0	0	0	0	487	511	0	0	
10	0	0	0	0	480	510	0	0	
11	0	0	0	0	483	508	0	0	
12	0	0	0	0	486	510	0	0	
13	0	0	0	0	480	508	0	0	
14	0	0	0	0	472	510	0	0	
15	0	0	0	0	467	508	0	0	
0	0	0	0	0	463	510	0	0	
1	0	0	0	0	463	510	0	0	
2	0	0	0	0	463	515	0	0	
3	0	0	0	0	463	511	0	0	
4	0	0	0	0	467	510	0	0	
5	0	0	0	0	463	513	0	0	
6	0	0	0	0	472	511	0	0	
7	0	0	0	0	476	515	0	0	
8	0	0	0	0	480	511	0	0	
9	0	0	0	0	480	512	0	0	
10	0	0	0	0	483	515	0	0	
11	0	0	0	0	487	508	0	0	
12	0	0	0	0	486	512	0	0	
13	0	0	0	0	487	511	0	0	
14	0	0	0	0	487	511	0	0	
15	0	0	0	0	481	511	0	0	
0	0	0	0	0	480	505	0	0	
1	0	0	0	0	472	504	0	0	
2	0	0	0	0	467	504	0	0	
3	0	0	0	0	463	504	0	0	
4	0	0	0	0	463	510	0	0	
5	0	0	0	0	465	508	0	0	
6	0	0	0	0	463	508	0	0	
7	0	0	0	0	465	511	0	0	
8	0	0	0	0	472	512	0	0	
9	0	0	0	0	472	513	0	0	
10	0	0	0	0	480	511	0	0	
11	0	0	0	0	480	511	0	0	
12	0	0	0	0	478	511	0	0	
13	0	0	0	0	483	511	0	0	
14	0	0	0	0	487	511	0	0	
15	0	0	0	0	486	511	0	0	
0	0	0	0	0	483	510	0	0	
1	0	0	0	0	483	508	0	0	
2	0	0	0	0	480	511	0	0	
3	0	0	0	0	472	512	0	0	
4	0	0	0	0	467	510	0	0	
5	0	0	0	0	460	508	0	0	
6	0	0	0	0	455	510	0	0	
7	0	0	0	0	455	508	0	0	
8	0	0	0	0	455	511	0	0	
9	0	0	0	0	460	508	0	0	
10	0	0	0	0	460	505	0	0	
11	0	0	0	0	462	512	0	0	
12	0	0	0	0	462	511	0	0	
13	0	0	0	0	460	512	0	0	
14	0	0	0	0	463	515	0	0	
15	0	0	0	0	480	511	0	0	
0	0	0	0	0	487	512	0	0	
1	0	0	0	0	481	511	0	0	
2	0	0	0	0	487	510	0	0	
3	0	0	0	0	486	510	0	0	
4	0	0	0	0	483	510	0	0	
5	0	0	0	0	487	511	0	0	
6	0	0	0	0	487	510	0	0	
7	0	0	0	0	483	508	0	0	
8	0	0	0	0	480	508	0	0	
9	0	0	0	0	472	504	0	0	
10	0	0	0	0	472	504	0	0	
11	0	0	0	0	472	504	0	0	
12	0	0	0	0	463	508	0	0	
13	0	0	0	0	463	510	0	0	
14	0	0	0	0	463	508	0	0	
15	0	0	0	0	472	515	0	0	
0	0	0	0	0	476	511	0	0	
1	0	0	0	0	480	512	0	0	
2	0	0	0	0	480	512	0	0	
3	0	0	0	0	480	511	0	0	
4	0	0	0	0	481	511	0	0	
5	0	0	0	0	481	511	0	0	
6	0	0	0	0	480	511	0	0	
7	0	0	0	0	481	511	0	0	
8	0	0	0	0	483	510	0	0	
9	0	0	0	0	486	512	0	0	
10	0	0	0	0	486	508	0	0	
11	0	0	0	0	483	510	0	0	
12	0	0	0	0	483	511	0	0	
13	0	0	0	0	478	508	0	0	
14	0	0	0	0	472	504	0	0	
15	0	0	0	0	463	504	0	0	
0	0	0	0	0	467	508	0	0	
1	0	0	0	0	472	511	0	0	
2	0	0	0	0	478	510	0	0	
3	0	0	0	0	472	508	0	0	
4	0	0	0	0	463	508	0	0	
5	0	0	0	0	463	510	0	0	
6	0	0	0	0	467	510	0	0	
7	0	0	0	0	463	511	0	0	
8	0	0	0	0	465	511	0	0	
9	0	0	0	0	472	511	0	0	
10	0	0	0	0	476	508	0	0	
11	0	0	0	0	480	511	0	0	
12	0	0	0	0	483	510	0	0	
13	0	0	0	0	483	510	0	0	
14	0	0	0	0	480	508	0	0	
15	0	0	0	0	480	510	0	0	
0	0	0	0	0	478	504	0	0	
1	0	0	0	0	476	504	0	0	
2	0	0	0	0	472	504	0	0	
3	0	0	0	0	472	504	0	0	
4	0	0	0	0	463	508	0	0	
5	0	0	0	0	463	508	0	0	
6	0	0	0	0	463	510	0	0	
7	0	0	0	0	460	511	0	0	
8	0	0	0	0	463	511	0	0	
9	0	0	0	0	470	511	0	0	
10	0	0	0	0	472	512	0	0	
11	0	0	0	0	476	513	0	0	
12	0	0	0	0	480	512	0	0	
13	0	0	0	0	483	512	0	0	
14	0	0	0	0	483	519	0	0	
15	0	0	0	0	487	511	0	0	
0	0	0	0	0	486	512	0	0	
1	0	0	0	0	483	511	0	0	
2	0	0	0	0	483	512	0	0	
3	0	0	0	0	480	512	0	0	
4	0	0	0	0	480	508	0	0	
5	0	0	0	0	472	511	0	0	
6	0	0	0	0	472	508	0	0	
7	0	0	0	0	467	511	0	0	
8	0	0	0	0	460	510	0	0	
9	0	0	0	0	462	504	0	0	
10	0	0	0	0	463	508	0	0	
11	0	0	0	0	463	513	0	0	
12	0	0	0	0	463	511	0	0	
13	0	0	0	0	472	508	0	0	
14	0	0	0	0	476	510	0	0	
15	0	0	0	0	478	512	0	0	
0	0	0	0	0	480	511	0	0	
1	0	0	0	0	481	508	0	0	
2	0	0	0	0	483	508	0	0	
3	0	0	0	0	483	508	0	0	
4	0	0	0	0	483	511	0	0	
5	0	0	0	0	483	504	0	0	
6	0	0	0	0	480	505	0	0	
7	0	0	0	0	476	508	0	0	
8	0	0	0	0	476	508	0	0	
9	0	0	0	0	476	504	0	0	
10	0	0	0	0	473	511	0	0	
11	0	0	0	0	467	508	0	0	
12	0	0	0	0	467	505	0	0	
13	0	0	0	0	463	512	0	0	
14	0	0	0	0	463	508	0	0	
15	0	0	0	0	463	510	0	0	
0	0	0	0	0	465	508	0	0	
1	0	0	0	0	463	510	0	0	
2	0	0	0	0	463	511	0	0	
3	0	0	0	0	467	513	0	0	
4	0	0	0	0	467	512	0	0	
5	0	0	0	0	476	511	0	0	
6	0	0	0	0	480	508	0	0	
7	0	0	0	0	480	510	0	0	
8	0	0	0	0	483	510	0	0	
9	0	0	0	0	487	508	0	0	
10	0	0	0	0	481	504	0	0	
11	0	0	0	0	480	504	0	0	
12	0	0	0	0	472	513	0	0	
13	0	0	0	0	472	508	0	0	
14	0	0	0	0	476	511	0	0	
15	0	0	0	0	463	510	0	0	
0	0	0	0	0	455	508	0	0	
1	0	0	0	0	460	508	0	0	
2	0	0	0	0	463	511	0	0	
3	0	0	0	0	465	512	0	0	
4	0	0	0	0	472	510	0	0	
5	0	0	0	0	476	510	0	0	
6	0	0	0	0	480	510	0	0	
7	0	0	0	0	481	511	0	0	
8	0	0	0	0	487	512	0	0	
9	0	0	0	0	487	510	0	0	
10	0	0	0	0	480	511	0	0	
11	0	0	0	0	480	511	0	0	
12	0	0	0	0	487	512	0	0	
13	0	0	0	0	496	513	0	0	
14	0	0	0	0	486	508	0	0	
15	0	0	0	0	480	508	0	0	
0	0	0	0	0	476	505	0	0	
1	0	0	0	0	472	508	0	0	
2	0	0	0	0	467	508	0	0	
3	0	0	0	0	467	511	0	0	
4	0	0	0	0	467	511	0	0	
5	0	0	0	0	472	510	0	0	
6	0	0	0	0	467	510	0	0	
7	0	0	0	0	463	511	0	0	
8	0	0	0	0	472	508	0	0	
9	0	0	0	0	472	510	0	0	
10	0	0	0	0	473	512	0	0	
11	0	0	0	0	478	511	0	0	
12	0	0	0	0	480	511	0	0	
13	0	0	0	0	481	512	0	0	
14	0	0	0	0	483	511	0	0	
15	0	0	0	0	480	515	0	0	
0	0	0	0	0	483	513	0	0	
1	0	0	0	0	483	510	0	0	
2	0	0	0	0	480	504	0	0	
3	0	0	0	0	480	508	0	0	
4	0	0	0	0	480	508	0	0	
5	0	0	0	0	480	504	0	0	
6	0	0	0	0	476	511	0	0	
7	0	0	0	0	465	508	0	0	
8	0	0	0	0	463	508	0	0	
9	0	0	0	0	463	508	0	0	
10	0	0	0	0	463	510	0	0	
11	0	0	0	0	462	508	0	0	
12	0	0	0	0	463	510	0	0	
13	0	0	0	0	472	511	0	0	
14	0	0	0	0	472	511	0	0	
15	0	0	0	0	473	511	0	0	
0	0	0	0	0	480	515	0	0	
1	0	0	0	0	480	511	0	0	
2	0	0	0	0	480	511	0	0	
3	0	0	0	0	483	511	0	0	
4	0	0	0	0	483	510	0	0	
5	0	0	0	0	483	508	0	0	
6	0	0	0	0	483	504	0	0	
7	0	0	0	0	480	508	0	0	
8	0	0	0	0	480	508	0	0	
9	0	0	0	0	476	505	0	0	
10	0	0	0	0	472	512	0	0	
11	0	0	0	0	467	508	0	0	
12	0	0	0	0	463	508	0	0	
13	0	0	0	0	463	504	0	0	
14	0	0	0	0	465	511	0	0	
15	0	0	0	0	462	508	0	0	
0	0	0	0	0	467	510	0	0	
1	0	0	0	0	467	513	0	0	
2	0	0	0	0	470	510	0	0	
3	0	0	0	0	480	510	0	0	
4	0	0	0	0	481	510	0	0	
5	0	0	0	0	487	510	0	0	
6	0	0	0	0	492	511	0	0	
7	0	0	0	0	487	511	0	0	
8	0	0	0	0	483	508	0	0	
9	0	0	0	0	487	508	0	0	
10	0	0	0	0	480	504	0	0	
11	0	0	0	0	480	510	0	0	
12	0	0	0	0	476	510	0	0	
13	0	0	0	0	472	508	0	0	
14	0	0	0	0	472	508	0	0	
15	0	0	0	0	476	511	0	0	
0	0	0	0	0	467	511	0	0	
1	0	0	0	0	472	504	0	0	
2	0	0	0	0	463	512	0	0	
3	0	0	0	0	463	510	0	0	
4	0	0	0	0	465	510	0	0	
5	0	0	0	0	463	510	0	0	
6	0	0	0	0	463	510	0	0	
7	0	0	0	0	467	511	0	0	
8	0	0	0	0	467	512	0	0	
9	0	0	0	0	480	511	0	0	
10	0	0	0	0	486	512	0	0	
11	0	0	0	0	487	510	0	0	
12	0	0	0	0	487	510	0	0	
13	0	0	0	0	483	512	0	0	
14	0	0	0	0	480	508	0	0	
15	0	0	0	0	476	508	0	0	
0	0	0	0	0	476	510	0	0	
1	0	0	0	0	472	504	0	0	
2	0	0	0	0	465	508	0	0	
3	0	0	0	0	463	504	0	0	
4	0	0	0	0	463	508	0	0	
5	0	0	0	0	465	508	0	0	
6	0	0	0	0	472	510	0	0	
7	0	0	0	0	472	513	0	0	
8	0	0	0	0	465	511	0	0	
9	0	0	0	0	472	511	0	0	
10	0	0	0	0	476	510	0	0	
11	0	0	0	0	480	512	0	0	
12	0	0	0	0	483	510	0	0	
13	0	0	0	0	483	511	0	0	
14	0	0	0	0	483	508	0	0	
15	0	0	0	0	483	511	0	0	
0	0	0	0	0	472	512	0	0	
1	0	0	0	0	480	515	0	0	
2	0	0	0	0	480	510	0	0	
3	0	0	0	0	478	508	0	0	
4	0	0	0	0	480	508	0	0	
5	0	0	0	0	472	508	0	0	
6	0	0	0	0	467	504	0	0	
7	0	0	0	0	472	511	0	0	
8	0	0	0	0	467	508	0	0	
9	0	0	0	0	465	504	0	0	
10	0	0	0	0	472	508	0	0	
11	0	0	0	0	463	504	0	0	
12	0	0	0	0	467	510	0	0	
13	0	0	0	0	472	510	0	0	
14	0	0	0	0	472	512	0	0	
15	0	0	0	0	472	512	0	0	
0	0	0	0	0	472	511	0	0	
1	0	0	0	0	472	510	0	0	
2	0	0	0	0	480	508	0	0	
3	0	0	0	0	483	508	0	0	
4	0	0	0	0	487	511	0	0	
5	0	0	0	0	492	511	0	0	
6	0	0	0	0	492	512	0	0	
7	0	0	0	0	483	512	0	0	
8	0	0	0	0	481	508	0	0	
9	0	0	0	0	472	513	0	0	
10	0	0	0	0	465	510	0	0	
11	0	0	0	0	463	508	0	0	
12	0	0	0	0	463	510	0	0	
13	0	0	0	0	462	508	0	0	
14	0	0	0	0	462	508	0	0	
15	0	0	0	0	463	508	0	0	
0	0	0	0	0	463	510	0	0	
1	0	0	0	0	472	508	0	0	
2	0	0	0	0	476	511	0	0	
3	0	0	0	0	480	511	0	0	
4	0	0	0	0	483	510	0	0	
5	0	0	0	0	487	510	0	0	
6	0	0	0	0	486	512	0	0	
7	0	0	0	0	481	511	0	0	
8	0	0	0	0	480	508	0	0	
9	0	0	0	0	481	511	0	0	
10	0	0	0	0	481	508	0	0	
11	0	0	0	0	478	508	0	0	
12	0	0	0	0	476	508	0	0	
13	0	0	0	0	472	508	0	0	
14	0	0	0	0	465	504	0	0	
15	0	0	0	0	463	504	0	0	
0	0	0	0	0	462	505	0	0	
1	0	0	0	0	462	508	0	0	
2	0	0	0	0	460	510	0	0	
3	0	0	0	0	460	510	0	0	
4	0	0	0	0	463	511	0	0	
5	0	0	0	0	467	511	0	0	
6	0	0	0	0	472	513	0	0	
7	0	0	0	0	476	511	0	0	
8	0	0	0	0	480	511	0	0	
9	0	0	0	0	481	511	0	0	
10	0	0	0	0	483	511	0	0	
11	0	0	0	0	481	511	0	0	
12	0	0	0	0	480	511	0	0	
13	0	0	0	0	481	512	0	0	
14	0	0	0	0	480	508	0	0	
15	0	0	0	0	476	508	0	0	
0	0	0	0	0	476	505	0	0	
1	0	0	0	0	472	510	0	0	
2	0	0	0	0	467	508	0	0	
3	0	0	0	0	467	508	0	0	
4	0	0	0	0	467	510	0	0	
5	0	0	0	0	467	510	0	0	
6	0	0	0	0	465	510	0	0	
7	0	0	0	0	467	511	0	0	
8	0	0	0	0	472	511	0	0	
9	0	0	0	0	480	511	0	0	
10	0	0	0	0	480	512	0	0	
11	0	0	0	0	476	511	0	0	
12	0	0	0	0	480	511	0	0	
13	0	0	0	0	480	511	0	0	
14	0	0	0	0	476	511	0	0	
15	0	0	0	0	476	510	0	0	
0	0	0	0	0	476	511	0	0	
1	0	0	0	0	472	510	0	0	
2	0	0	0	0	476	510	0	0	
3	0	0	0	0	476	510	0	0	
4	0	0	0	0	472	508	0	0	
5	0	0	0	0	467	504	0	0	
6	0	0	0	0	472	511	0	0	
7	0	0	0	0	472	508	0	0	
8	0	0	0	0	467	508	0	0	
9	0	0	0	0	462	508	0	0	
10	0	0	0	0	462	508	0	0	
11	0	0	0	0	462	511	0	0	
12	0	0	0	0	465	508	0	0	
13	0	0	0	0	467	511	0	0	
14	0	0	0	0	472	515	0	0	
15	0	0	0	0	476	511	0	0	
0	0	0	0	0	480	515	0	0	
1	0	0	0	0	487	512	0	0	
2	0	0	0	0	492	511	0	0	
3	0	0	0	0	492	519	0	0	
4	0	0	0	0	494	511	0	0	
5	0	0	0	0	489	512	0	0	
6	0	0	0	0	487	508	0	0	
7	0	0	0	0	487	510	0	0	
8	0	0	0	0	480	513	0	0	
9	0	0	0	0	478	504	0	0	
10	0	0	0	0	476	508	0	0	
11	0	0	0	0	478	510	0	0	
12	0	0	0	0	472	512	0	0	
13	0	0	0	0	472	508	0	0	
14	0	0	0	0	463	505	0	0	
15	0	0	0	0	455	508	0	0	
0	0	0	0	0	455	510	0	0	
1	0	0	0	0	463	511	0	0	
2	0	0	0	0	465	511	0	0	
3	0	0	0	0	476	508	0	0	
4	0	0	0	0	486	508	0	0	
5	0	0	0	0	481	508	0	0	
6	0	0	0	0	483	510	0	0	
7	0	0	0	0	487	508	0	0	
8	0	0	0	0	483	508	0	0	
9	0	0	0	0	487	508	0	0	
10	0	0	0	0	486	511	0	0	
11	0	0	0	0	481	511	0	0	
12	0	0	0	0	483	508	0	0	
13	0	0	0	0	476	511	0	0	
14	0	0	0	0	472	504	0	0	
15	0	0	0	0	472	508	0	0	
0	0	0	0	0	480	511	0	0	
1	0	0	0	0	472	505	0	0	
2	0	0	0	0	463	508	0	0	
3	0	0	0	0	463	510	0	0	
4	0	0	0	0	460	510	0	0	
5	0	0	0	0	455	508	0	0	
6	0	0	0	0	463	511	0	0	
7	0	0	0	0	467	512	0	0	
8	0	0	0	0	463	512	0	0	
9	0	0	0	0	472	511	0	0	
10	0	0	0	0	486	512	0	0	
11	0	0	0	0	487	511	0	0	
12	0	0	0	0	483	511	0	0	
13	0	0	0	0	480	512	0	0	
14	0	0	0	0	480	512	0	0	
15	0	0	0	0	480	510	0	0	
0	0	0	0	0	476	511	0	0	
1	0	0	0	0	472	508	0	0	
2	0	0	0	0	472	504	0	0	
3	0	0	0	0	463	508	0	0	
4	0	0	0	0	465	508	0	0	
5	0	0	0	0	463	504	0	0	
6	0	0	0	0	463	504	0	0	
7	0	0	0	0	465	504	0	0	
8	0	0	0	0	467	508	0	0	
9	0	0	0	0	467	510	0	0	
10	0	0	0	0	472	511	0	0	
11	0	0	0	0	476	510	0	0	
12	0	0	0	0	480	508	0	0	
13	0	0	0	0	486	510	0	0	
14	0	0	0	0	492	511	0	0	
15	0	0	0	0	492	515	0	0	
0	0	0	0	0	494	508	0	0	
1	0	0	0	0	492	512	0	0	
2	0	0	0	0	487	511	0	0	
3	0	0	0	0	481	508	0	0	
4	0	0	0	0	480	510	0	0	
5	0	0	0	0	467	510	0	0	
6	0	0	0	0	455	510	0	0	
7	0	0	0	0	455	508	0	0	
8	0	0	0	0	460	510	0	0	
9	0	0	0	0	463	511	0	0	
10	0	0	0	0	467	508	0	0	
11	0	0	0	0	467	508	0	0	
12	0	0	0	0	463	510	0	0	
13	0	0	0	0	460	510	0	0	
14	0	0	0	0	463	510	0	0	
15	0	0	0	0	472	510	0	0	
0	0	0	0	0	476	511	0	0	
1	0	0	0	0	478	511	0	0	
2	0	0	0	0	480	511	0	0	
3	0	0	0	0	480	513	0	0	
4	0	0	0	0	481	510	0	0	
5	0	0	0	0	483	512	0	0	
6	0	0	0	0	480	508	0	0	
7	0	0	0	0	476	505	0	0	
8	0	0	0	0	472	508	0	0	
9	0	0	0	0	467	508	0	0	
10	0	0	0	0	463	508	0	0	
11	0	0	0	0	467	508	0	0	
12	0	0	0	0	463	510	0	0	
13	0	0	0	0	463	508	0	0	
14	0	0	0	0	465	508	0	0	
15	0	0	0	0	463	511	0	0	
0	0	0	0	0	467	510	0	0	
1	0	0	0	0	472	511	0	0	
2	0	0	0	0	472	511	0	0	
3	0	0	0	0	476	512	0	0	
4	0	0	0	0	472	511	0	0	
5	0	0	0	0	472	510	0	0	
6	0	0	0	0	472	508	0	0	
7	0	0	0	0	478	508	0	0	
8	0	0	0	0	480	512	0	0	
9	0	0	0	0	480	511	0	0	
10	0	0	0	0	472	510	0	0	
11	0	0	0	0	472	508	0	0	
12	0	0	0	0	472	504	0	0	
13	0	0	0	0	467	505	0	0	
14	0	0	0	0	463	504	0	0	
15	0	0	0	0	465	508	0	0	
0	0	0	0	0	472	508	0	0	
1	0	0	0	0	472	510	0	0	
2	0	0	0	0	460	508	0	0	
3	0	0	0	0	465	512	0	0	
4	0	0	0	0	480	512	0	0	
5	0	0	0	0	480	512	0	0	
6	0	0	0	0	480	508	0	0	
7	0	0	0	0	480	512	0	0	
8	0	0	0	0	483	518	0	0	
9	0	0	0	0	487	512	0	0	
10	0	0	0	0	492	511	0	0	
11	0	0	0	0	492	512	0	0	
12	0	0	0	0	487	510	0	0	
13	0	0	0	0	481	508	0	0	
14	0	0	0	0	480	508	0	0	
15	0	0	0	0	480	510	0	0	
0	0	0	0	0	480	508	0	0	
1	0	0	0	0	480	508	0	0	
2	0	0	0	0	476	508	0	0	
3	0	0	0	0	472	508	0	0	
4	0	0	0	0	465	504	0	0	
5	0	0	0	0	463	504	0	0	
6	0	0	0	0	460	508	0	0	
7	0	0	0	0	460	512	0	0	
8	0	0	0	0	462	512	0	0	
9	0	0	0	0	472	513	0	0	
10	0	0	0	0	472	515	0	0	
11	0	0	0	0	472	510	0	0	
12	0	0	0	0	472	511	0	0	
13	0	0	0	0	476	512	0	0	
14	0	0	0	0	478	511	0	0	
15	0	0	0	0	480	510	0	0	
0	0	0	0	0	483	508	0	0	
1	0	0	0	0	486	511	0	0	
2	0	0	0	0	487	508	0	0	
3	0	0	0	0	487	504	0	0	
4	0	0	0	0	486	508	0	0	
5	0	0	0	0	483	508	0	0	
6	0	0	0	0	476	508	0	0	
7	0	0	0	0	472	505	0	0	
8	0	0	0	0	465	504	0	0	
9	0	0	0	0	463	504	0	0	
10	0	0	0	0	460	513	0	0	
11	0	0	0	0	455	510	0	0	
12	0	0	0	0	463	511	0	0	
13	0	0	0	0	467	512	0	0	
14	0	0	0	0	476	512	0	0	
15	0	0	0	0	480	512	0	0	
0	0	0	0	0	486	512	0	0	
1	0	0	0	0	487	512	0	0	
2	0	0	0	0	478	511	0	0	
3	0	0	0	0	478	512	0	0	
4	0	0	0	0	480	512	0	0	
5	0	0	0	0	481	510	0	0	
6	0	0	0	0	480	510	0	0	
7	0	0	0	0	476	508	0	0	
8	0	0	0	0	472	504	0	0	
9	0	0	0	0	465	504	0	0	
10	0	0	0	0	465	508	0	0	
11	0	0	0	0	473	511	0	0	
12	0	0	0	0	472	513	0	0	
13	0	0	0	0	463	510	0	0	
14	0	0	0	0	462	508	0	0	
15	0	0	0	0	463	513	0	0	
0	0	0	0	0	467	510	0	0	
1	0	0	0	0	472	510	0	0	
2	0	0	0	0	473	508	0	0	
3	0	0	0	0	480	512	0	0	
4	0	0	0	0	480	511	0	0	
5	0	0	0	0	487	508	0	0	
6	0	0	0	0	487	512	0	0	
7	0	0	0	0	492	512	0	0	
8	0	0	0	0	487	511	0	0	
9	0	0	0	0	492	511	0	0	
10	0	0	0	0	492	508	0	0	
11	0	0	0	0	483	505	0	0	
12	0	0	0	0	480	504	0	0	
13	0	0	0	0	476	508	0	0	
14	0	0	0	0	472	510	0	0	
15	0	0	0	0	467	511	0	0	
0	0	0	0	0	462	512	0	0	
1	0	0	0	0	462	508	0	0	
2	0	0	0	0	460	515	0	0	
3	0	0	0	0	465	510	0	0	
4	0	0	0	0	473	508	0	0	
5	0	0	0	0	478	511	0	0	
6	0	0	0	0	480	511	0	0	
7	0	0	0	0	480	513	0	0	
8	0	0	0	0	481	510	0	0	
9	0	0	0	0	487	508	0	0	
10	0	0	0	0	486	511	0	0	
11	0	0	0	0	487	510	0	0	
12	0	0	0	0	483	515	0	0	
13	0	0	0	0	481	511	0	0	
14	0	0	0	0	487	508	0	0	
15	0	0	0	0	483	508	0	0	
0	0	0	0	0	481	508	0	0	
1	0	0	0	0	472	508	0	0	
2	0	0	0	0	472	505	0	0	
3	0	0	0	0	472	504	0	0	
4	0	0	0	0	460	505	0	0	
5	0	0	0	0	472	504	0	0	
6	0	0	0	0	467	511	0	0	
7	0	0	0	0	462	508	0	0	
8	0	0	0	0	472	508	0	0	
9	0	0	0	0	472	512	0	0	
10	0	0	0	0	463	513	0	0	
11	0	0	0	0	467	512	0	0	
12	0	0	0	0	476	512	0	0	
13	0	0	0	0	480	511	0	0	
14	0	0	0	0	476	512	0	0	
15	0	0	0	0	476	508	0	0	
0	0	0	0	0	481	511	0	0	
1	0	0	0	0	483	513	0	0	
2	0	0	0	0	480	511	0	0	
3	0	0	0	0	478	510	0	0	
4	0	0	0	0	476	510	0	0	
5	0	0	0	0	472	508	0	0	
6	0	0	0	0	465	504	0	0	
7	0	0	0	0	472	504	0	0	
8	0	0	0	0	472	504	0	0	
9	0	0	0	0	465	510	0	0	
10	0	0	0	0	473	510	0	0	
11	0	0	0	0	472	511	0	0	
12	0	0	0	0	472	508	0	0	
13	0	0	0	0	472	512	0	0	
14	0	0	0	0	472	511	0	0	
15	0	0	0	0	480	512	0	0	
0	0	0	0	0	486	511	0	0	
1	0	0	0	0	481	511	0	0	
2	0	0	0	0	486	513	0	0	
3	0	0	0	0	487	512	0	0	
4	0	0	0	0	480	511	0	0	
5	0	0	0	0	480	508	0	0	
6	0	0	0	0	480	508	0	0	
7	0	0	0	0	476	510	0	0	
8	0	0	0	0	472	510	0	0	
9	0	0	0	0	476	508	0	0	
10	0	0	0	0	472	508	0	0	
11	0	0	0	0	467	504	0	0	
12	0	0	0	0	472	504	0	0	
13	0	0	0	0	467	512	0	0	
14	0	0	0	0	467	510	0	0	
15	0	0	0	0	465	508	0	0	
0	0	0	0	0	463	510	0	0	
1	0	0	0	0	463	511	0	0	
2	0	0	0	0	476	511	0	0	
3	0	0	0	0	480	515	0	0	
4	0	0	0	0	483	515	0	0	
5	0	0	0	0	487	512	0	0	
6	0	0	0	0	483	511	0	0	
7	0	0	0	0	487	510	0	0	
8	0	0	0	0	486	510	0	0	
9	0	0	0	0	483	510	0	0	
10	0	0	0	0	480	505	0	0	
11	0	0	0	0	476	508	0	0	
12	0	0	0	0	476	504	0	0	
13	0	0	0	0	467	511	0	0	
14	0	0	0	0	463	508	0	0	
15	0	0	0	0	465	504	0	0	
0	0	0	0	0	465	510	0	0	
1	0	0	0	0	463	508	0	0	
2	0	0	0	0	463	510	0	0	
3	0	0	0	0	463	508	0	0	
4	0	0	0	0	463	508	0	0	
5	0	0	0	0	465	510	0	0	
6	0	0	0	0	472	508	0	0	
7	0	0	0	0	472	512	0	0	
8	0	0	0	0	476	511	0	0	
9	0	0	0	0	481	511	0	0	
10	0	0	0	0	483	511	0	0	
11	0	0	0	0	483	512	0	0	
12	0	0	0	0	481	511	0	0	
13	0	0	0	0	481	511	0	0	
14	0	0	0	0	483	508	0	0	
15	0	0	0	0	480	505	0	0	
0	0	0	0	0	480	505	0	0	
1	0	0	0	0	472	512	0	0	
2	0	0	0	0	467	508	0	0	
3	0	0	0	0	472	505	0	0	
4	0	0	0	0	472	511	0	0	
5	0	0	0	0	462	508	0	0	
6	0	0	0	0	455	510	0	0	
7	0	0	0	0	463	513	0	0	
8	0	0	0	0	463	512	0	0	
9	0	0	0	0	463	512	0	0	
10	0	0	0	0	472	518	0	0	
11	0	0	0	0	480	513	0	0	
12	0	0	0	0	476	515	0	0	
13	0	0	0	0	472	513	0	0	
14	0	0	0	0	470	512	0	0	
15	0	0	0	0	476	512	0	0	
0	0	0	0	0	480	511	0	0	
1	0	0	0	0	480	512	0	0	
2	0	0	0	0	480	512	0	0	
3	0	0	0	0	473	512	0	0	
4	0	0	0	0	472	508	0	0	
5	0	0	0	0	467	510	0	0	
6	0	0	0	0	463	508	0	0	
7	0	0	0	0	463	504	0	0	
8	0	0	0	0	462	504	0	0	
9	0	0	0	0	455	508	0	0	
10	0	0	0	0	455	508	0	0	
11	0	0	0	0	460	505	0	0	
12	0	0	0	0	465	505	0	0	
13	0	0	0	0	472	508	0	0	
14	0	0	0	0	476	512	0	0	
15	0	0	0	0	481	511	0	0	
0	0	0	0	0	486	511	0	0	
1	0	0	0	0	492	510	0	0	
2	0	0	0	0	492	510	0	0	
3	0	0	0	0	487	508	0	0	
4	0	0	0	0	487	508	0	0	
5	0	0	0	0	486	510	0	0	
6	0	0	0	0	487	508	0	0	
7	0	0	0	0	481	508	0	0	
8	0	0	0	0	480	504	0	0	
9	0	0	0	0	480	510	0	0	
10	0	0	0	0	472	508	0	0	
11	0	0	0	0	472	505	0	0	
12	0	0	0	0	465	508	0	0	
13	0	0	0	0	455	504	0	0	
14	0	0	0	0	440	510	0	0	
15	0	0	0	0	448	510	0	0	
0	0	0	0	0	463	508	0	0	
1	0	0	0	0	467	508	0	0	
2	0	0	0	0	476	511	0	0	
3	0	0	0	0	483	512	0	0	
4	0	0	0	0	492	512	0	0	
5	0	0	0	0	483	512	0	0	
6	0	0	0	0	483	511	0	0	
7	0	0	0	0	483	511	0	0	
8	0	0	0	0	481	511	0	0	
9	0	0	0	0	487	510	0	0	
10	0	0	0	0	496	510	0	0	
11	0	0	0	0	496	504	0	0	
12	0	0	0	0	487	504	0	0	
13	0	0	0	0	480	504	0	0	
14	0	0	0	0	472	510	0	0	
15	0	0	0	0	465	508	0	0	
0	0	0	0	0	465	508	0	0	
1	0	0	0	0	463	508	0	0	
2	0	0	0	0	455	504	0	0	
3	0	0	0	0	462	508	0	0	
4	0	0	0	0	463	508	0	0	
5	0	0	0	0	463	510	0	0	
6	0	0	0	0	463	510	0	0	
7	0	0	0	0	467	511	0	0	
8	0	0	0	0	473	512	0	0	
9	0	0	0	0	478	510	0	0	
10	0	0	0	0	480	511	0	0	
11	0	0	0	0	480	510	0	0	
12	0	0	0	0	480	510	0	0	
13	0	0	0	0	480	510	0	0	
14	0	0	0	0	483	508	0	0	
15	0	0	0	0	486	510	0	0	
0	0	0	0	0	480	511	0	0	
1	0	0	0	0	480	508	0	0	
2	0	0	0	0	472	511	0	0	
3	0	0	0	0	463	508	0	0	
4	0	0	0	0	463	508	0	0	
5	0	0	0	0	455	511	0	0	
6	0	0	0	0	455	510	0	0	
7	0	0	0	0	455	511	0	0	
8	0	0	0	0	455	508	0	0	
9	0	0	0	0	463	512	0	0	
10	0	0	0	0	465	515	0	0	
11	0	0	0	0	476	513	0	0	
12	0	0	0	0	487	519	0	0	
13	0	0	0	0	486	513	0	0	
14	0	0	0	0	487	511	0	0	
15	0	0	0	0	480	518	0	0	
0	0	0	0	0	480	512	0	0	
1	0	0	0	0	483	513	0	0	
2	0	0	0	0	483	508	0	0	
3	0	0	0	0	487	508	0	0	
4	0	0	0	0	481	513	0	0	
5	0	0	0	0	480	508	0	0	
6	0	0	0	0	481	511	0	0	
7	0	0	0	0	478	508	0	0	
8	0	0	0	0	476	505	0	0	
9	0	0	0	0	467	513	0	0	
10	0	0	0	0	463	511	0	0	
11	0	0	0	0	455	513	0	0	
12	0	0	0	0	455	511	0	0	
13	0	0	0	0	463	511	0	0	
14	0	0	0	0	467	513	0	0	
15	0	0	0	0	476	512	0	0	
0	0	0	0	0	483	510	0	0	
1	0	0	0	0	492	510	0	0	
2	0	0	0	0	494	508	0	0	
3	0	0	0	0	496	510	0	0	
4	0	0	0	0	492	508	0	0	
5	0	0	0	0	492	510	0	0	
6	0	0	0	0	481	508	0	0	
7	0	0	0	0	473	505	0	0	
8	0	0	0	0	478	505	0	0	
9	0	0	0	0	472	504	0	0	
10	0	0	0	0	472	511	0	0	
11	0	0	0	0	467	508	0	0	
12	0	0	0	0	467	508	0	0	
13	0	0	0	0	460	513	0	0	
14	0	0	0	0	460	508	0	0	
15	0	0	0	0	457	505	0	0	
0	0	0	0	0	463	511	0	0	
1	0	0	0	0	467	511	0	0	
2	0	0	0	0	476	511	0	0	
3	0	0	0	0	483	511	0	0	
4	0	0	0	0	487	512	0	0	
5	0	0	0	0	487	510	0	0	
6	0	0	0	0	483	511	0	0	
7	0	0	0	0	483	508	0	0	
8	0	0	0	0	483	508	0	0	
9	0	0	0	0	478	504	0	0	
10	0	0	0	0	473	504	0	0	
11	0	0	0	0	473	508	0	0	
12	0	0	0	0	472	512	0	0	
13	0	0	0	0	467	508	0	0	
14	0	0	0	0	472	512	0	0	
15	0	0	0	0	467	508	0	0	
0	0	0	0	0	467	508	0	0	
1	0	0	0	0	476	510	0	0	
2	0	0	0	0	473	504	0	0	
3	0	0	0	0	472	511	0	0	
4	0	0	0	0	472	508	0	0	
5	0	0	0	0	472	508	0	0	
6	0	0	0	0	476	513	0	0	
7	0	0	0	0	473	512	0	0	
8	0	0	0	0	467	513	0	0	
9	0	0	0	0	472	511	0	0	
10	0	0	0	0	483	511	0	0	
11	0	0	0	0	481	508	0	0	
12	0	0	0	0	481	508	0	0	
13	0	0	0	0	487	508	0	0	
14	0	0	0	0	487	508	0	0	
15	0	0	0	0	483	508	0	0	
0	0	0	0	0	480	512	0	0	
1	0	0	0	0	480	508	0	0	
2	0	0	0	0	478	511	0	0	
3	0	0	0	0	476	508	0	0	
4	0	0	0	0	476	504	0	0	
5	0	0	0	0	472	505	0	0	
6	0	0	0	0	465	508	0	0	
7	0	0	0	0	463	510	0	0	
8	0	0	0	0	455	508	0	0	
9	0	0	0	0	460	511	0	0	
10	0	0	0	0	463	511	0	0	
11	0	0	0	0	467	512	0	0	
12	0	0	0	0	472	512	0	0	
13	0	0	0	0	473	510	0	0	
14	0	0	0	0	478	510	0	0	
15	0	0	0	0	476	510	0	0	
0	0	0	0	0	476	508	0	0	
1	0	0	0	0	481	513	0	0	
2	0	0	0	0	480	511	0	0	
3	0	0	0	0	481	511	0	0	
4	0	0	0	0	480	515	0	0	
5	0	0	0	0	478	510	0	0	
6	0	0	0	0	480	510	0	0	
7	0	0	0	0	472	508	0	0	
8	0	0	0	0	463	508	0	0	
9	0	0	0	0	463	508	0	0	
10	0	0	0	0	465	504	0	0	
11	0	0	0	0	465	505	0	0	
12	0	0	0	0	467	508	0	0	
13	0	0	0	0	463	510	0	0	
14	0	0	0	0	467	511	0	0	
15	0	0	0	0	472	510	0	0	
0	0	0	0	0	480	510	0	0	
1	0	0	0	0	480	511	0	0	
2	0	0	0	0	483	510	0	0	
3	0	0	0	0	492	510	0	0	
4	0	0	0	0	492	519	0	0	
5	0	0	0	0	487	511	0	0	
6	0	0	0	0	481	511	0	0	
7	0	0	0	0	472	511	0	0	
8	0	0	0	0	473	510	0	0	
9	0	0	0	0	472	508	0	0	
10	0	0	0	0	467	504	0	0	
11	0	0	0	0	463	504	0	0	
12	0	0	0	0	463	505	0	0	
13	0	0	0	0	465	510	0	0	
14	0	0	0	0	463	508	0	0	
15	0	0	0	0	463	508	0	0	
0	0	0	0	0	463	510	0	0	
1	0	0	0	0	467	512	0	0	
2	0	0	0	0	472	511	0	0	
3	0	0	0	0	472	510	0	0	
4	0	0	0	0	476	513	0	0	
5	0	0	0	0	483	515	0	0	
6	0	0	0	0	486	512	0	0	
7	0	0	0	0	487	505	0	0	
8	0	0	0	0	487	513	0	0	
9	0	0	0	0	487	510	0	0	
10	0	0	0	0	483	508	0	0	
11	0	0	0	0	480	510	0	0	
12	0	0	0	0	480	504	0	0	
13	0	0	0	0	476	505	0	0	
14	0	0	0	0	472	508	0	0	
15	0	0	0	0	472	504	0	0	
0	0	0	0	0	467	510	0	0	
1	0	0	0	0	465	508	0	0	
2	0	0	0	0	463	508	0	0	
3	0	0	0	0	465	511	0	0	
4	0	0	0	0	467	511	0	0	
5	0	0	0	0	472	508	0	0	
6	0	0	0	0	478	510	0	0	
7	0	0	0	0	480	511	0	0	
8	0	0	0	0	483	512	0	0	
9	0	0	0	0	480	511	0	0	
10	0	0	0	0	480	511	0	0	
11	0	0	0	0	483	511	0	0	
12	0	0	0	0	480	510	0	0	
13	0	0	0	0	481	511	0	0	
14	0	0	0	0	481	508	0	0	
15	0	0	0	0	480	508	0	0	
0	0	0	0	0	480	504	0	0	
1	0	0	0	0	476	508	0	0	
2	0	0	0	0	472	508	0	0	
3	0	0	0	0	467	504	0	0	
4	0	0	0	0	463	508	0	0	
5	0	0	0	0	460	508	0	0	
6	0	0	0	0	462	510	0	0	
7	0	0	0	0	463	511	0	0	
8	0	0	0	0	455	512	0	0	
9	0	0	0	0	463	512	0	0	
10	0	0	0	0	467	512	0	0	
11	0	0	0	0	478	511	0	0	
12	0	0	0	0	480	511	0	0	
13	0	0	0	0	486	511	0	0	
14	0	0	0	0	487	510	0	0	
15	0	0	0	0	483	505	0	0	
0	0	0	0	0	480	511	0	0	
1	0	0	0	0	483	513	0	0	
2	0	0	0	0	483	511	0	0	
3	0	0	0	0	481	508	0	0	
4	0	0	0	0	478	508	0	0	
5	0	0	0	0	472	505	0	0	
6	0	0	0	0	467	508	0	0	
7	0	0	0	0	465	510	0	0	
8	0	0	0	0	463	512	0	0	
9	0	0	0	0	463	508	0	0	
10	0	0	0	0	463	510	0	0	
11	0	0	0	0	467	510	0	0	
12	0	0	0	0	467	510	0	0	
13	0	0	0	0	467	510	0	0	
14	0	0	0	0	463	510	0	0	
15	0	0	0	0	462	511	0	0	
0	0	0	0	0	460	511	0	0	
1	0	0	0	0	467	511	0	0	
2	0	0	0	0	481	512	0	0	
3	0	0	0	0	483	510	0	0	
4	0	0	0	0	481	511	0	0	
5	0	0	0	0	481	508	0	0	
6	0	0	0	0	483	510	0	0	
7	0	0	0	0	480	511	0	0	
8	0	0	0	0	483	505	0	0	
9	0	0	0	0	481	512	0	0	
10	0	0	0	0	483	508	0	0	
11	0	0	0	0	480	508	0	0	
12	0	0	0	0	476	510	0	0	
13	0	0	0	0	480	508	0	0	
14	0	0	0	0	472	510	0	0	
15	0	0	0	0	472	508	0	0	
0	0	0	0	0	472	508	0	0	
1	0	0	0	0	467	510	0	0	
2	0	0	0	0	472	510	0	0	
3	0	0	0	0	480	512	0	0	
4	0	0	0	0	481	512	0	0	
5	0	0	0	0	487	510	0	0	
6	0	0	0	0	492	508	0	0	
7	0	0	0	0	494	508	0	0	
8	0	0	0	0	487	513	0	0	
9	0	0	0	0	483	511	0	0	
10	0	0	0	0	483	510	0	0	
11	0	0	0	0	472	511	0	0	
12	0	0	0	0	472	504	0	0	
13	0	0	0	0	472	508	0	0	
14	0	0	0	0	465	504	0	0	
15	0	0	0	0	472	508	0	0	
0	0	0	0	0	467	510	0	0	
1	0	0	0	0	463	508	0	0	
2	0	0	0	0	462	510	0	0	
3	0	0	0	0	465	511	0	0	
4	0	0	0	0	467	511	0	0	
5	0	0	0	0	472	510	0	0	
6	0	0	0	0	472	510	0	0	
7	0	0	0	0	472	511	0	0	
8	0	0	0	0	478	510	0	0	
9	0	0	0	0	480	510	0	0	
10	0	0	0	0	483	511	0	0	
11	0	0	0	0	481	519	0	0	
12	0	0	0	0	483	512	0	0	
13	0	0	0	0	483	513	0	0	
14	0	0	0	0	480	510	0	0	
15	0	0	0	0	476	508	0	0	
0	0	0	0	0	478	508	0	0	
1	0	0	0	0	476	510	0	0	
2	0	0	0	0	472	505	0	0	
3	0	0	0	0	472	508	0	0	
4	0	0	0	0	465	508	0	0	
5	0	0	0	0	467	510	0	0	
6	0	0	0	0	463	510	0	0	
7	0	0	0	0	463	511	0	0	
8	0	0	0	0	467	511	0	0	
9	0	0	0	0	476	511	0	0	
10	0	0	0	0	476	515	0	0	
11	0	0	0	0	480	511	0	0	
12	0	0	0	0	480	511	0	0	
13	0	0	0	0	481	512	0	0	
14	0	0	0	0	487	510	0	0	
15	0	0	0	0	487	511	0	0	
0	0	0	0	0	480	512	0	0	
1	0	0	0	0	476	512	0	0	
2	0	0	0	0	480	511	0	0	
3	0	0	0	0	480	512	0	0	
4	0	0	0	0	480	508	0	0	
5	0	0	0	0	472	508	0	0	
6	0	0	0	0	467	504	0	0	
7	0	0	0	0	472	508	0	0	
8	0	0	0	0	480	508	0	0	
9	0	0	0	0	472	508	0	0	
10	0	0	0	0	463	510	0	0	
11	0	0	0	0	463	508	0	0	
12	0	0	0	0	467	511	0	0	
13	0	0	0	0	463	512	0	0	
14	0	0	0	0	472	512	0	0	
15	0	0	0	0	472	512	0	0	
0	0	0	0	0	472	510	0	0	
1	0	0	0	0	480	511	0	0	
2	0	0	0	0	483	513	0	0	
3	0	0	0	0	487	508	0	0	
4	0	0	0	0	483	512	0	0	
5	0	0	0	0	480	511	0	0	
6	0	0	0	0	476	510	0	0	
7	0	0	0	0	476	508	0	0	
8	0	0	0	0	472	508	0	0	
9	0	0	0	0	472	504	0	0	
10	0	0	0	0	476	505	0	0	
11	0	0	0	0	473	505	0	0	
12	0	0	0	0	478	504	0	0	
13	0	0	0	0	481	505	0	0	
14	0	0	0	0	472	510	0	0	
15	0	0	0	0	463	511	0	0	
0	0	0	0	0	463	510	0	0	
1	0	0	0	0	455	512	0	0	
2	0	0	0	0	460	510	0	0	
3	0	0	0	0	463	513	0	0	
4	0	0	0	0	465	510	0	0	
5	0	0	0	0	472	510	0	0	
6	0	0	0	0	480	511	0	0	
7	0	0	0	0	483	508	0	0	
8	0	0	0	0	480	515	0	0	
9	0	0	0	0	480	511	0	0	
10	0	0	0	0	481	510	0	0	
11	0	0	0	0	476	508	0	0	
12	0	0	0	0	463	508	0	0	
13	0	0	0	0	463	508	0	0	
14	0	0	0	0	472	510	0	0	
15	0	0	0	0	472	508	0	0	
0	0	0	0	0	465	508	0	0	
1	0	0	0	0	472	504	0	0	
2	0	0	0	0	478	510	0	0	
3	0	0	0	0	473	511	0	0	
4	0	0	0	0	472	511	0	0	
5	0	0	0	0	467	511	0	0	
6	0	0	0	0	467	510	0	0	
7	0	0	0	0	481	512	0	0	
8	0	0	0	0	494	512	0	0	
9	0	0	0	0	496	510	0	0	
10	0	0	0	0	499	511	0	0	
11	0	0	0	0	499	511	0	0	
12	0	0	0	0	492	511	0	0	
13	0	0	0	0	487	508	0	0	
14	0	0	0	0	483	505	0	0	
15	0	0	0	0	480	508	0	0	
0	0	0	0	0	476	508	0	0	
1	0	0	0	0	472	510	0	0	
2	0	0	0	0	467	508	0	0	
3	0	0	0	0	465	508	0	0	
4	0	0	0	0	463	508	0	0	
5	0	0	0	0	463	508	0	0	
6	0	0	0	0	463	510	0	0	
7	0	0	0	0	462	510	0	0	
8	0	0	0	0	463	510	0	0	
9	0	0	0	0	463	511	0	0	
10	0	0	0	0	467	511	0	0	
11	0	0	0	0	470	511	0	0	
12	0	0	0	0	476	508	0	0	
13	0	0	0	0	481	511	0	0	
14	0	0	0	0	481	511	0	0	
15	0	0	0	0	481	511	0	0	
0	0	0	0	0	480	512	0	0	
1	0	0	0	0	480	511	0	0	
2	0	0	0	0	480	510	0	0	
3	0	0	0	0	476	508	0	0	
4	0	0	0	0	473	508	0	0	
5	0	0	0	0	476	508	0	0	
6	0	0	0	0	476	510	0	0	
7	0	0	0	0	472	508	0	0	
8	0	0	0	0	463	508	0	0	
9	0	0	0	0	467	508	0	0	
10	0	0	0	0	463	510	0	0	
11	0	0	0	0	467	512	0	0	
12	0	0	0	0	467	511	0	0	
13	0	0	0	0	472	512	0	0	
14	0	0	0	0	467	515	0	0	
15	0	0	0	0	472	512	0	0	
0	0	0	0	0	480	515	0	0	
1	0	0	0	0	480	513	0	0	
2	0	0	0	0	483	512	0	0	
3	0	0	0	0	480	518	0	0	
4	0	0	0	0	481	511	0	0	
5	0	0	0	0	483	508	0	0	
6	0	0	0	0	480	508	0	0	
7	0	0	0	0	483	508	0	0	
8	0	0	0	0	487	512	0	0	
9	0	0	0	0	476	508	0	0	
10	0	0	0	0	467	513	0	0	
11	0	0	0	0	460	511	0	0	
12	0	0	0	0	463	510	0	0	
13	0	0	0	0	460	515	0	0	
14	0	0	0	0	462	511	0	0	
15	0	0	0	0	467	513	0	0	
0	0	0	0	0	472	508	0	0	
1	0	0	0	0	472	511	0	0	
2	0	0	0	0	480	510	0	0	
3	0	0	0	0	480	508	0	0	
4	0	0	0	0	483	510	0	0	
5	0	0	0	0	483	510	0	0	
6	0	0	0	0	487	510	0	0	
7	0	0	0	0	487	511	0	0	
8	0	0	0	0	492	505	0	0	
9	0	0	0	0	487	508	0	0	
10	0	0	0	0	483	508	0	0	
11	0	0	0	0	480	508	0	0	
12	0	0	0	0	472	504	0	0	
13	0	0	0	0	467	505	0	0	
14	0	0	0	0	465	508	0	0	
15	0	0	0	0	467	510	0	0	
0	0	0	0	0	463	510	0	0	
1	0	0	0	0	476	508	0	0	
2	0	0	0	0	476	515	0	0	
3	0	0	0	0	467	511	0	0	
4	0	0	0	0	473	511	0	0	
5	0	0	0	0	476	511	0	0	
6	0	0	0	0	473	511	0	0	
7	0	0	0	0	472	513	0	0	
8	0	0	0	0	472	511	0	0	
9	0	0	0	0	476	508	0	0	
10	0	0	0	0	480	511	0	0	
11	0	0	0	0	481	505	0	0	
12	0	0	0	0	480	513	0	0	
13	0	0	0	0	486	511	0	0	
14	0	0	0	0	492	508	0	0	
15	0	0	0	0	487	511	0	0	
0	0	0	0	0	487	508	0	0	
1	0	0	0	0	483	508	0	0	
2	0	0	0	0	473	504	0	0	
3	0	0	0	0	463	504	0	0	
4	0	0	0	0	462	508	0	0	
5	0	0	0	0	463	513	0	0	
6	0	0	0	0	455	508	0	0	
7	0	0	0	0	454	508	0	0	
8	0	0	0	0	463	511	0	0	
9	0	0	0	0	472	511	0	0	
10	0	0	0	0	473	512	0	0	
11	0	0	0	0	480	512	0	0	
12	0	0	0	0	483	511	0	0	
13	0	0	0	0	492	512	0	0	
14	0	0	0	0	497	510	0	0	
15	0	0	0	0	492	518	0	0	
0	0	0	0	0	481	512	0	0	
1	0	0	0	0	480	511	0	0	
2	0	0	0	0	473	508	0	0	
3	0	0	0	0	472	510	0	0	
4	0	0	0	0	472	504	0	0	
5	0	0	0	0	463	510	0	0	
6	0	0	0	0	467	508	0	0	
7	0	0	0	0	467	504	0	0	
8	0	0	0	0	467	508	0	0	
9	0	0	0	0	467	508	0	0	
10	0	0	0	0	472	508	0	0	
11	0	0	0	0	470	508	0	0	
12	0	0	0	0	472	510	0	0	
13	0	0	0	0	472	512	0	0	
14	0	0	0	0	472	512	0	0	
15	0	0	0	0	472	512	0	0	
0	0	0	0	0	480	512	0	0	
1	0	0	0	0	487	511	0	0	
2	0	0	0	0	483	505	0	0	
3	0	0	0	0	483	504	0	0	
4	0	0	0	0	483	513	0	0	
5	0	0	0	0	486	510	0	0	
6	0	0	0	0	487	510	0	0	
7	0	0	0	0	487	511	0	0	
8	0	0	0	0	487	504	0	0	
9	0	0	0	0	481	508	0	0	
10	0	0	0	0	472	504	0	0	
11	0	0	0	0	467	508	0	0	
12	0	0	0	0	463	510	0	0	
13	0	0	0	0	462	508	0	0	
14	0	0	0	0	462	508	0	0	
15	0	0	0	0	465	508	0	0	
0	0	0	0	0	472	508	0	0	
1	0	0	0	0	473	512	0	0	
2	0	0	0	0	480	511	0	0	
3	0	0	0	0	476	511	0	0	
4	0	0	0	0	476	511	0	0	
5	0	0	0	0	472	508	0	0	
6	0	0	0	0	478	510	0	0	
7	0	0	0	0	480	518	0	0	
8	0	0	0	0	487	512	0	0	
9	0	0	0	0	492	511	0	0	
10	0	0	0	0	487	508	0	0	
11	0	0	0	0	483	508	0	0	
12	0	0	0	0	480	504	0	0	
13	0	0	0	0	472	511	0	0	
14	0	0	0	0	467	508	0	0	
15	0	0	0	0	467	510	0	0	
0	0	0	0	0	462	510	0	0	
1	0	0	0	0	460	508	0	0	
2	0	0	0	0	455	504	0	0	
3	0	0	0	0	455	508	0	0	
4	0	0	0	0	462	512	0	0	
5	0	0	0	0	467	512	0	0	
6	0	0	0	0	467	511	0	0	
7	0	0	0	0	476	512	0	0	
8	0	0	0	0	480	512	0	0	
9	0	0	0	0	483	511	0	0	
10	0	0	0	0	480	510	0	0	
11	0	0	0	0	476	510	0	0	
12	0	0	0	0	480	512	0	0	
13	0	0	0	0	481	510	0	0	
14	0	0	0	0	480	504	0	0	
15	0	0	0	0	483	508	0	0	
0	0	0	0	0	480	515	0	0	
1	0	0	0	0	480	511	0	0	
2	0	0	0	0	476	504	0	0	
3	0	0	0	0	476	510	0	0	
4	0	0	0	0	472	511	0	0	
5	0	0	0	0	463	510	0	0	
6	0	0	0	0	463	508	0	0	
7	0	0	0	0	465	508	0	0	
8	0	0	0	0	463	510	0	0	
9	0	0	0	0	460	510	0	0	
10	0	0	0	0	463	511	0	0	
11	0	0	0	0	467	511	0	0	
12	0	0	0	0	480	510	0	0	
13	0	0	0	0	483	508	0	0	
14	0	0	0	0	487	511	0	0	
15	0	0	0	0	481	510	0	0	
0	0	0	0	0	480	511	0	0	
1	0	0	0	0	481	511	0	0	
2	0	0	0	0	487	512	0	0	
3	0	0	0	0	486	512	0	0	
4	0	0	0	0	480	505	0	0	
5	0	0	0	0	463	504	0	0	
6	0	0	0	0	463	512	0	0	
7	0	0	0	0	463	510	0	0	
8	0	0	0	0	455	508	0	0	
9	0	0	0	0	451	508	0	0	
10	0	0	0	0	455	510	0	0	
11	0	0	0	0	455	510	0	0	
12	0	0	0	0	463	510	0	0	
13	0	0	0	0	472	508	0	0	
14	0	0	0	0	472	508	0	0	
15	0	0	0	0	473	510	0	0	
0	0	0	0	0	480	511	0	0	
1	0	0	0	0	481	511	0	0	
2	0	0	0	0	483	512	0	0	
3	0	0	0	0	486	515	0	0	
4	0	0	0	0	486	512	0	0	
5	0	0	0	0	483	510	0	0	
6	0	0	0	0	487	510	0	0	
7	0	0	0	0	487	510	0	0	
8	0	0	0	0	483	510	0	0	
9	0	0	0	0	473	508	0	0	
10	0	0	0	0	472	508	0	0	
11	0	0	0	0	472	504	0	0	
12	0	0	0	0	472	510	0	0	
13	0	0	0	0	467	515	0	0	
14	0	0	0	0	467	512	0	0	
15	0	0	0	0	467	511	0	0	
0	0	0	0	0	467	510	0	0	
1	0	0	0	0	465	510	0	0	
2	0	0	0	0	472	510	0	0	
3	0	0	0	0	472	515	0	0	
4	0	0	0	0	476	512	0	0	
5	0	0	0	0	480	510	0	0	
6	0	0	0	0	483	510	0	0	
7	0	0	0	0	487	508	0	0	
8	0	0	0	0	487	508	0	0	
9	0	0	0	0	492	511	0	0	
10	0	0	0	0	483	505	0	0	
11	0	0	0	0	476	504	0	0	
12	0	0	0	0	478	504	0	0	
13	0	0	0	0	472	512	0	0	
14	0	0	0	0	467	504	0	0	
15	0	0	0	0	465	504	0	0	
0	0	0	0	0	455	511	0	0	
1	0	0	0	0	454	508	0	0	
2	0	0	0	0	455	510	0	0	
3	0	0	0	0	463	510	0	0	
4	0	0	0	0	465	511	0	0	
5	0	0	0	0	472	512	0	0	
6	0	0	0	0	465	515	0	0	
7	0	0	0	0	472	513	0	0	
8	0	0	0	0	480	512	0	0	
9	0	0	0	0	480	512	0	0	
10	0	0	0	0	480	511	0	0	
11	0	0	0	0	480	512	0	0	
12	0	0	0	0	483	511	0	0	
13	0	0	0	0	481	510	0	0	
14	0	0	0	0	487	511	0	0	
15	0	0	0	0	483	511	0	0	
0	0	0	0	0	480	505	0	0	
1	0	0	0	0	476	508	0	0	
2	0	0	0	0	472	508	0	0	
3	0	0	0	0	472	505	0	0	
4	0	0	0	0	467	508	0	0	
5	0	0	0	0	472	510	0	0	
6	0	0	0	0	465	508	0	0	
7	0	0	0	0	463	510	0	0	
8	0	0	0	0	472	512	0	0	
9	0	0	0	0	476	511	0	0	
10	0	0	0	0	480	510	0	0	
11	0	0	0	0	486	510	0	0	
12	0	0	0	0	487	511	0	0	
13	0	0	0	0	487	508	0	0	
14	0	0	0	0	487	511	0	0	
15	0	0	0	0	480	511	0	0	
0	0	0	0	0	473	510	0	0	
1	0	0	0	0	476	510	0	0	
2	0	0	0	0	483	508	0	0	
3	0	0	0	0	480	508	0	0	
4	0	0	0	0	480	504	0	0	
5	0	0	0	0	476	504	0	0	
6	0	0	0	0	472	504	0	0	
7	0	0	0	0	472	504	0	0	
8	0	0	0	0	467	505	0	0	
9	0	0	0	0	463	510	0	0	
10	0	0	0	0	462	508	0	0	
11	0	0	0	0	460	508	0	0	
12	0	0	0	0	460	508	0	0	
13	0	0	0	0	463	510	0	0	
14	0	0	0	0	463	515	0	0	
15	0	0	0	0	465	512	0	0	
0	0	0	0	0	472	512	0	0	
1	0	0	0	0	478	513	0	0	
2	0	0	0	0	472	515	0	0	
3	0	0	0	0	480	513	0	0	
4	0	0	0	0	487	513	0	0	
5	0	0	0	0	489	511	0	0	
6	0	0	0	0	487	508	0	0	
7	0	0	0	0	492	504	0	0	
8	0	0	0	0	487	504	0	0	
9	0	0	0	0	478	504	0	0	
10	0	0	0	0	462	508	0	0	
11	0	0	0	0	455	504	0	0	
12	0	0	0	0	455	505	0	0	
13	0	0	0	0	462	508	0	0	
14	0	0	0	0	463	504	0	0	
15	0	0	0	0	465	505	0	0	
0	0	0	0	0	472	512	0	0	
1	0	0	0	0	476	512	0	0	
2	0	0	0	0	487	510	0	0	
3	0	0	0	0	487	519	0	0	
4	0	0	0	0	487	512	0	0	
5	0	0	0	0	487	510	0	0	
6	0	0	0	0	476	512	0	0	
7	0	0	0	0	463	508	0	0	
8	0	0	0	0	460	510	0	0	
9	0	0	0	0	472	510	0	0	
10	0	0	0	0	481	511	0	0	
11	0	0	0	0	480	508	0	0	
12	0	0	0	0	480	508	0	0	
13	0	0	0	0	480	508	0	0	
14	0	0	0	0	472	508	0	0	
15	0	0	0	0	463	508	0	0	
0	0	0	0	0	462	504	0	0	
1	0	0	0	0	463	504	0	0	
2	0	0	0	0	467	504	0	0	
3	0	0	0	0	472	508	0	0	
4	0	0	0	0	472	504	0	0	
5	0	0	0	0	472	511	0	0	
6	0	0	0	0	480	511	0	0	
7	0	0	0	0	486	511	0	0	
8	0	0	0	0	486	511	0	0	
9	0	0	0	0	487	511	0	0	
10	0	0	0	0	489	512	0	0	
11	0	0	0	0	494	510	0	0	
12	0	0	0	0	486	508	0	0	
13	0	0	0	0	483	510	0	0	
14	0	0	0	0	487	505	0	0	
15	0	0	0	0	486	510	0	0	
0	0	0	0	0	483	510	0	0	
1	0	0	0	0	480	511	0	0	
2	0	0	0	0	472	508	0	0	
3	0	0	0	0	462	504	0	0	
4	0	0	0	0	451	505	0	0	
5	0	0	0	0	449	508	0	0	
6	0	0	0	0	455	508	0	0	
7	0	0	0	0	462	511	0	0	
8	0	0	0	0	463	511	0	0	
9	0	0	0	0	472	512	0	0	
10	0	0	0	0	480	512	0	0	
11	0	0	0	0	480	511	0	0	
12	0	0	0	0	487	515	0	0	
13	0	0	0	0	487	513	0	0	
14	0	0	0	0	487	512	0	0	
15	0	0	0	0	483	519	0	0	
0	0	0	0	0	487	512	0	0	
1	0	0	0	0	487	515	0	0	
2	0	0	0	0	483	511	0	0	
3	0	0	0	0	487	510	0	0	
4	0	0	0	0	478	512	0	0	
5	0	0	0	0	472	508	0	0	
6	0	0	0	0	467	505	0	0	
7	0	0	0	0	467	508	0	0	
8	0	0	0	0	463	505	0	0	
9	0	0	0	0	463	508	0	0	
10	0	0	0	0	463	504	0	0	
11	0	0	0	0	463	508	0	0	
12	0	0	0	0	472	508	0	0	
13	0	0	0	0	472	510	0	0	
14	0	0	0	0	473	511	0	0	
15	0	0	0	0	480	511	0	0	
0	0	0	0	0	481	511	0	0	
1	0	0	0	0	481	510	0	0	
2	0	0	0	0	480	511	0	0	
3	0	0	0	0	483	511	0	0	
4	0	0	0	0	483	511	0	0	
5	0	0	0	0	481	513	0	0	
6	0	0	0	0	483	510	0	0	
7	0	0	0	0	481	504	0	0	
8	0	0	0	0	483	508	0	0	
9	0	0	0	0	480	511	0	0	
10	0	0	0	0	480	508	0	0	
11	0	0	0	0	480	505	0	0	
12	0	0	0	0	476	504	0	0	
13	0	0	0	0	473	508	0	0	
14	0	0	0	0	472	508	0	0	
15	0	0	0	0	463	508	0	0	
0	0	0	0	0	455	510	0	0	
1	0	0	0	0	448	512	0	0	
2	0	0	0	0	448	512	0	0	
3	0	0	0	0	460	513	0	0	
4	0	0	0	0	472	512	0	0	
5	0	0	0	0	480	511	0	0	
6	0	0	0	0	480	510	0	0	
7	0	0	0	0	480	508	0	0	
8	0	0	0	0	480	508	0	0	
9	0	0	0	0	480	511	0	0	
10	0	0	0	0	483	508	0	0	
11	0	0	0	0	487	510	0	0	
12	0	0	0	0	480	511	0	0	
13	0	0	0	0	472	511	0	0	
14	0	0	0	0	472	515	0	0	
15	0	0	0	0	472	510	0	0	
0	0	0	0	0	470	508	0	0	
1	0	0	0	0	463	508	0	0	
2	0	0	0	0	465	510	0	0	
3	0	0	0	0	467	511	0	0	
4	0	0	0	0	463	510	0	0	
5	0	0	0	0	463	511	0	0	
6	0	0	0	0	467	510	0	0	
7	0	0	0	0	467	512	0	0	
8	0	0	0	0	472	512	0	0	
9	0	0	0	0	480	512	0	0	
10	0	0	0	0	487	512	0	0	
11	0	0	0	0	487	510	0	0	
12	0	0	0	0	494	508	0	0	
13	0	0	0	0	494	508	0	0	
14	0	0	0	0	496	508	0	0	
15	0	0	0	0	487	508	0	0	
0	0	0	0	0	476	508	0	0	
1	0	0	0	0	467	511	0	0	
2	0	0	0	0	467	508	0	0	
3	0	0	0	0	467	511	0	0	
4	0	0	0	0	463	508	0	0	
5	0	0	0	0	463	504	0	0	
6	0	0	0	0	455	512	0	0	
7	0	0	0	0	451	508	0	0	
8	0	0	0	0	451	512	0	0	
9	0	0	0	0	462	515	0	0	
10	0	0	0	0	476	511	0	0	
11	0	0	0	0	472	519	0	0	
12	0	0	0	0	472	511	0	0	
13	0	0	0	0	480	513	0	0	
14	0	0	0	0	481	512	0	0	
15	0	0	0	0	492	508	0	0	
0	0	0	0	0	487	515	0	0	
1	0	0	0	0	476	508	0	0	
2	0	0	0	0	476	508	0	0	
3	0	0	0	0	480	508	0	0	
4	0	0	0	0	478	512	0	0	
5	0	0	0	0	478	508	0	0	
6	0	0	0	0	472	508	0	0	
7	0	0	0	0	476	508	0	0	
8	0	0	0	0	465	508	0	0	
9	0	0	0	0	463	504	0	0	
10	0	0	0	0	463	504	0	0	
11	0	0	0	0	463	508	0	0	
12	0	0	0	0	462	508	0	0	
13	0	0	0	0	463	508	0	0	
14	0	0	0	0	472	508	0	0	
15	0	0	0	0	476	512	0	0	
0	0	0	0	0	480	511	0	0	
1	0	0	0	0	481	510	0	0	
2	0	0	0	0	487	511	0	0	
3	0	0	0	0	483	515	0	0	
4	0	0	0	0	481	508	0	0	
5	0	0	0	0	473	510	0	0	
6	0	0	0	0	472	510	0	0	
7	0	0	0	0	465	505	0	0	
8	0	0	0	0	472	504	0	0	
9	0	0	0	0	472	510	0	0	
10	0	0	0	0	472	508	0	0	
11	0	0	0	0	463	508	0	0	
12	0	0	0	0	463	511	0	0	
13	0	0	0	0	467	511	0	0	
14	0	0	0	0	467	510	0	0	
15	0	0	0	0	465	508	0	0	
0	0	0	0	0	467	505	0	0	
1	0	0	0	0	472	508	0	0	
2	0	0	0	0	472	510	0	0	
3	0	0	0	0	476	511	0	0	
4	0	0	0	0	480	511	0	0	
5	0	0	0	0	481	510	0	0	
6	0	0	0	0	487	510	0	0	
7	0	0	0	0	481	513	0	0	
8	0	0	0	0	483	511	0	0	
9	0	0	0	0	487	512	0	0	
10	0	0	0	0	483	508	0	0	
11	0	0	0	0	480	508	0	0	
12	0	0	0	0	478	508	0	0	
13	0	0	0	0	476	504	0	0	
14	0	0	0	0	472	504	0	0	
15	0	0	0	0	476	508	0	0	
0	0	0	0	0	472	504	0	0	
1	0	0	0	0	465	508	0	0	
2	0	0	0	0	462	511	0	0	
3	0	0	0	0	463	510	0	0	
4	0	0	0	0	472	510	0	0	
5	0	0	0	0	472	512	0	0	
6	0	0	0	0	472	510	0	0	
7	0	0	0	0	476	511	0	0	
8	0	0	0	0	483	515	0	0	
9	0	0	0	0	487	512	0	0	
10	0	0	0	0	487	512	0	0	
11	0	0	0	0	483	515	0	0	
12	0	0	0	0	483	510	0	0	
13	0	0	0	0	480	508	0	0	
14	0	0	0	0	478	508	0	0	
15	0	0	0	0	472	510	0	0	
0	0	0	0	0	470	508	0	0	
1	0	0	0	0	463	508	0	0	
2	0	0	0	0	462	504	0	0	
3	0	0	0	0	463	504	0	0	
4	0	0	0	0	460	505	0	0	
5	0	0	0	0	455	504	0	0	
6	0	0	0	0	451	508	0	0	
7	0	0	0	0	451	508	0	0	
8	0	0	0	0	465	510	0	0	
9	0	0	0	0	472	511	0	0	
10	0	0	0	0	472	508	0	0	
11	0	0	0	0	472	515	0	0	
12	0	0	0	0	478	512	0	0	
13	0	0	0	0	483	511	0	0	
14	0	0	0	0	483	510	0	0	
15	0	0	0	0	480	508	0	0	
0	0	0	0	0	487	511	0	0	
1	0	0	0	0	504	511	0	0	
2	0	0	0	0	499	504	0	0	
3	0	0	0	0	496	504	0	0	
4	0	0	0	0	492	504	0	0	
5	0	0	0	0	483	504	0	0	
6	0	0	0	0	476	508	0	0	
7	0	0	0	0	472	504	0	0	
8	0	0	0	0	455	504	0	0	
9	0	0	0	0	448	508	0	0	
10	0	0	0	0	455	508	0	0	
11	0	0	0	0	463	508	0	0	
12	0	0	0	0	463	510	0	0	
13	0	0	0	0	465	512	0	0	
14	0	0	0	0	476	510	0	0	
15	0	0	0	0	476	518	0	0	
0	0	0	0	0	480	511	0	0	
1	0	0	0	0	480	508	0	0	
2	0	0	0	0	480	512	0	0	
3	0	0	0	0	481	512	0	0	
4	0	0	0	0	486	511	0	0	
5	0	0	0	0	480	512	0	0	
6	0	0	0	0	483	511	0	0	
7	0	0	0	0	480	510	0	0	
8	0	0	0	0	480	508	0	0	
9	0	0	0	0	478	508	0	0	
10	0	0	0	0	480	508	0	0	
11	0	0	0	0	473	508	0	0	
12	0	0	0	0	472	508	0	0	
13	0	0	0	0	472	508	0	0	
14	0	0	0	0	472	510	0	0	
15	0	0	0	0	467	512	0	0	
0	0	0	0	0	463	510	0	0	
1	0	0	0	0	472	512	0	0	
2	0	0	0	0	472	513	0	0	
3	0	0	0	0	476	512	0	0	
4	0	0	0	0	476	511	0	0	
5	0	0	0	0	480	511	0	0	
6	0	0	0	0	480	511	0	0	
7	0	0	0	0	486	511	0	0	
8	0	0	0	0	481	510	0	0	
9	0	0	0	0	483	510	0	0	
10	0	0	0	0	483	508	0	0	
11	0	0	0	0	480	508	0	0	
12	0	0	0	0	480	508	0	0	
13	0	0	0	0	478	508	0	0	
14	0	0	0	0	473	508	0	0	
15	0	0	0	0	472	508	0	0	
0	0	0	0	0	472	508	0	0	
1	0	0	0	0	463	512	0	0	
2	0	0	0	0	463	508	0	0	
3	0	0	0	0	463	513	0	0	
4	0	0	0	0	463	512	0	0	
5	0	0	0	0	467	510	0	0	
6	0	0	0	0	472	511	0	0	
7	0	0	0	0	480	511	0	0	
8	0	0	0	0	480	512	0	0	
9	0	0	0	0	481	511	0	0	
10	0	0	0	0	483	510	0	0	
11	0	0	0	0	481	510	0	0	
12	0	0	0	0	487	511	0	0	
13	0	0	0	0	486	510	0	0	
14	0	0	0	0	483	508	0	0	
15	0	0	0	0	480	508	0	0	
0	0	0	0	0	473	510	0	0	
1	0	0	0	0	472	510	0	0	
2	0	0	0	0	467	510	0	0	
3	0	0	0	0	467	511	0	0	
4	0	0	0	0	467	510	0	0	
5	0	0	0	0	467	504	0	0	
6	0	0	0	0	463	512	0	0	
7	0	0	0	0	467	510	0	0	
8	0	0	0	0	472	508	0	0	
9	0	0	0	0	472	511	0	0	
10	0	0	0	0	472	511	0	0	
11	0	0	0	0	476	512	0	0	
12	0	0	0	0	480	512	0	0	
13	0	0	0	0	480	511	0	0	
14	0	0	0	0	480	511	0	0	
15	0	0	0	0	483	510	0	0	
0	0	0	0	0	487	510	0	0	
1	0	0	0	0	487	511	0	0	
2	0	0	0	0	480	510	0	0	
3	0	0	0	0	472	510	0	0	
4	0	0	0	0	478	504	0	0	
5	0	0	0	0	476	511	0	0	
6	0	0	0	0	472	508	0	0	
7	0	0	0	0	470	510	0	0	
8	0	0	0	0	463	508	0	0	
9	0	0	0	0	467	510	0	0	
10	0	0	0	0	455	510	0	0	
11	0	0	0	0	454	512	0	0	
12	0	0	0	0	463	511	0	0	
13	0	0	0	0	467	515	0	0	
14	0	0	0	0	472	511	0	0	
15	0	0	0	0	478	510	0	0	
0	0	0	0	0	480	510	0	0	
1	0	0	0	0	487	511	0	0	
2	0	0	0	0	487	510	0	0	
3	0	0	0	0	487	510	0	0	
4	0	0	0	0	487	510	0	0	
5	0	0	0	0	487	510	0	0	
6	0	0	0	0	492	505	0	0	
7	0	0	0	0	492	508	0	0	
8	0	0	0	0	480	512	0	0	
9	0	0	0	0	463	510	0	0	
10	0	0	0	0	462	511	0	0	
11	0	0	0	0	451	511	0	0	
12	0	0	0	0	448	504	0	0	
13	0	0	0	0	448	508	0	0	
14	0	0	0	0	460	510	0	0	
15	0	0	0	0	462	511	0	0	
0	0	0	0	0	463	508	0	0	
1	0	0	0	0	472	513	0	0	
2	0	0	0	0	476	510	0	0	
3	0	0	0	0	480	508	0	0	
4	0	0	0	0	486	511	0	0	
5	0	0	0	0	486	508	0	0	
6	0	0	0	0	480	510	0	0	
7	0	0	0	0	480	508	0	0	
8	0	0	0	0	486	508	0	0	
9	0	0	0	0	492	512	0	0	
10	0	0	0	0	487	510	0	0	
11	0	0	0	0	483	508	0	0	
12	0	0	0	0	480	513	0	0	
13	0	0	0	0	480	508	0	0	
14	0	0	0	0	476	505	0	0	
15	0	0	0	0	478	508	0	0	
0	0	0	0	0	476	508	0	0	
1	0	0	0	0	472	508	0	0	
2	0	0	0	0	467	511	0	0	
3	0	0	0	0	465	512	0	0	
4	0	0	0	0	451	512	0	0	
5	0	0	0	0	444	510	0	0	
6	0	0	0	0	451	510	0	0	
7	0	0	0	0	465	511	0	0	
8	0	0	0	0	480	511	0	0	
9	0	0	0	0	487	511	0	0	
10	0	0	0	0	492	512	0	0	
11	0	0	0	0	492	508	0	0	
12	0	0	0	0	483	513	0	0	
13	0	0	0	0	480	511	0	0	
14	0	0	0	0	481	512	0	0	
15	0	0	0	0	480	512	0	0	
0	0	0	0	0	472	510	0	0	
1	0	0	0	0	467	505	0	0	
2	0	0	0	0	463	508	0	0	
3	0	0	0	0	467	505	0	0	
4	0	0	0	0	463	508	0	0	
5	0	0	0	0	463	510	0	0	
6	0	0	0	0	472	508	0	0	
7	0	0	0	0	476	508	0	0	
8	0	0	0	0	478	508	0	0	
9	0	0	0	0	478	511	0	0	
10	0	0	0	0	480	511	0	0	
11	0	0	0	0	483	511	0	0	
12	0	0	0	0	481	511	0	0	
13	0	0	0	0	480	513	0	0	
14	0	0	0	0	481	515	0	0	
15	0	0	0	0	480	510	0	0	
0	0	0	0	0	476	511	0	0	
1	0	0	0	0	476	511	0	0	
2	0	0	0	0	480	508	0	0	
3	0	0	0	0	483	508	0	0	
4	0	0	0	0	480	512	0	0	
5	0	0	0	0	476	504	0	0	
6	0	0	0	0	472	505	0	0	
7	0	0	0	0	472	505	0	0	
8	0	0	0	0	463	504	0	0	
9	0	0	0	0	463	510	0	0	
10	0	0	0	0	467	508	0	0	
11	0	0	0	0	463	510	0	0	
12	0	0	0	0	463	510	0	0	
13	0	0	0	0	465	510	0	0	
14	0	0	0	0	472	510	0	0	
15	0	0	0	0	472	518	0	0	
0	0	0	0	0	476	512	0	0	
1	0	0	0	0	480	511	0	0	
2	0	0	0	0	481	511	0	0	
3	0	0	0	0	487	510	0	0	
4	0	0	0	0	489	513	0	0	
5	0	0	0	0	487	515	0	0	
6	0	0	0	0	483	511	0	0	
7	0	0	0	0	480	510	0	0	
8	0	0	0	0	480	508	0	0	
9	0	0	0	0	478	508	0	0	
10	0	0	0	0	472	508	0	0	
11	0	0	0	0	463	504	0	0	
12	0	0	0	0	463	504	0	0	
13	0	0	0	0	463	504	0	0	
14	0	0	0	0	463	505	0	0	
15	0	0	0	0	467	510	0	0	
0	0	0	0	0	463	511	0	0	
1	0	0	0	0	472	512	0	0	
2	0	0	0	0	472	513	0	0	
3	0	0	0	0	467	513	0	0	
4	0	0	0	0	472	511	0	0	
5	0	0	0	0	480	511	0	0	
6	0	0	0	0	483	510	0	0	
7	0	0	0	0	480	511	0	0	
8	0	0	0	0	483	511	0	0	
9	0	0	0	0	487	512	0	0	
10	0	0	0	0	492	505	0	0	
11	0	0	0	0	487	508	0	0	
12	0	0	0	0	483	504	0	0	
13	0	0	0	0	483	512	0	0	
14	0	0	0	0	472	510	0	0	
15	0	0	0	0	467	504	0	0	
0	0	0	0	0	472	510	0	0	
1	0	0	0	0	460	508	0	0	
2	0	0	0	0	460	508	0	0	
3	0	0	0	0	462	511	0	0	
4	0	0	0	0	463	511	0	0	
5	0	0	0	0	463	515	0	0	
6	0	0	0	0	467	511	0	0	
7	0	0	0	0	476	511	0	0	
8	0	0	0	0	480	519	0	0	
9	0	0	0	0	480	512	0	0	
10	0	0	0	0	480	512	0	0	
11	0	0	0	0	480	511	0	0	
12	0	0	0	0	481	508	0	0	
13	0	0	0	0	480	511	0	0	
14	0	0	0	0	483	508	0	0	
15	0	0	0	0	487	508	0	0	
0	0	0	0	0	480	510	0	0	
1	0	0	0	0	472	508	0	0	
2	0	0	0	0	472	504	0	0	
3	0	0	0	0	472	504	0	0	
4	0	0	0	0	472	505	0	0	
5	0	0	0	0	472	510	0	0	
6	0	0	0	0	472	508	0	0	
7	0	0	0	0	472	510	0	0	
8	0	0	0	0	472	508	0	0	
9	0	0	0	0	467	508	0	0	
10	0	0	0	0	467	511	0	0	
11	0	0	0	0	472	511	0	0	
12	0	0	0	0	480	511	0	0	
13	0	0	0	0	483	513	0	0	
14	0	0	0	0	481	511	0	0	
15	0	0	0	0	483	511	0	0	
0	0	0	0	0	480	508	0	0	
1	0	0	0	0	480	510	0	0	
2	0	0	0	0	487	508	0	0	
3	0	0	0	0	480	508	0	0	
4	0	0	0	0	472	508	0	0	
5	0	0	0	0	467	504	0	0	
6	0	0	0	0	467	508	0	0	
7	0	0	0	0	465	508	0	0	
8	0	0	0	0	463	510	0	0	
9	0	0	0	0	467	510	0	0	
10	0	0	0	0	465	508	0	0	
11	0	0	0	0	465	510	0	0	
12	0	0	0	0	472	510	0	0	
13	0	0	0	0	467	512	0	0	
14	0	0	0	0	467	511	0	0	
15	0	0	0	0	472	512	0	0	
0	0	0	0	0	480	513	0	0	
1	0	0	0	0	480	511	0	0	
2	0	0	0	0	480	510	0	0	
3	0	0	0	0	480	511	0	0	
4	0	0	0	0	487	511	0	0	
5	0	0	0	0	487	511	0	0	
6	0	0	0	0	492	508	0	0	
7	0	0	0	0	487	510	0	0	
8	0	0	0	0	481	508	0	0	
9	0	0	0	0	480	508	0	0	
10	0	0	0	0	472	508	0	0	
11	0	0	0	0	467	505	0	0	
12	0	0	0	0	460	508	0	0	
13	0	0	0	0	460	508	0	0	
14	0	0	0	0	455	511	0	0	
15	0	0	0	0	462	510	0	0	
0	0	0	0	0	465	508	0	0	
1	0	0	0	0	463	511	0	0	
2	0	0	0	0	472	512	0	0	
3	0	0	0	0	483	512	0	0	
4	0	0	0	0	480	511	0	0	
5	0	0	0	0	487	513	0	0	
6	0	0	0	0	489	513	0	0	
7	0	0	0	0	499	508	0	0	
8	0	0	0	0	496	515	0	0	
9	0	0	0	0	496	511	0	0	
10	0	0	0	0	487	512	0	0	
11	0	0	0	0	480	513	0	0	
12	0	0	0	0	480	510	0	0	
13	0	0	0	0	472	515	0	0	
14	0	0	0	0	460	511	0	0	
15	0	0	0	0	455	511	0	0	
0	0	0	0	0	448	512	0	0	
1	0	0	0	0	455	508	0	0	
2	0	0	0	0	455	512	0	0	
3	0	0	0	0	460	512	0	0	
4	0	0	0	0	467	512	0	0	
5	0	0	0	0	465	513	0	0	
6	0	0	0	0	473	510	0	0	
7	0	0	0	0	476	510	0	0	
8	0	0	0	0	480	510	0	0	
9	0	0	0	0	483	510	0	0	
10	0	0	0	0	483	511	0	0	
11	0	0	0	0	480	510	0	0	
12	0	0	0	0	478	510	0	0	
13	0	0	0	0	480	510	0	0	
14	0	0	0	0	483	510	0	0	
15	0	0	0	0	480	512	0	0	
0	0	0	0	0	476	510	0	0	
1	0	0	0	0	473	504	0	0	
2	0	0	0	0	472	510	0	0	
3	0	0	0	0	472	508	0	0	
4	0	0	0	0	467	505	0	0	
5	0	0	0	0	472	504	0	0	
6	0	0	0	0	472	511	0	0	
7	0	0	0	0	480	508	0	0	
8	0	0	0	0	481	508	0	0	
9	0	0	0	0	472	512	0	0	
10	0	0	0	0	476	511	0	0	
11	0	0	0	0	478	511	0	0	
12	0	0	0	0	476	511	0	0	
13	0	0	0	0	472	511	0	0	
14	0	0	0	0	472	510	0	0	
15	0	0	0	0	480	511	0	0	
0	0	0	0	0	487	511	0	0	
1	0	0	0	0	494	512	0	0	
2	0	0	0	0	487	508	0	0	
3	0	0	0	0	480	508	0	0	
4	0	0	0	0	480	510	0	0	
5	0	0	0	0	480	508	0	0	
6	0	0	0	0	478	510	0	0	
7	0	0	0	0	472	511	0	0	
8	0	0	0	0	460	508	0	0	
9	0	0	0	0	455	505	0	0	
10	0	0	0	0	460	508	0	0	
11	0	0	0	0	455	510	0	0	
12	0	0	0	0	455	508	0	0	
13	0	0	0	0	462	510	0	0	
14	0	0	0	0	467	512	0	0	
15	0	0	0	0	472	511	0	0	
0	0	0	0	0	476	510	0	0	
1	0	0	0	0	478	508	0	0	
2	0	0	0	0	480	508	0	0	
3	0	0	0	0	483	508	0	0	
4	0	0	0	0	481	508	0	0	
5	0	0	0	0	480	505	0	0	
6	0	0	0	0	480	511	0	0	
7	0	0	0	0	480	511	0	0	
8	0	0	0	0	480	508	0	0	
9	0	0	0	0	472	513	0	0	
10	0	0	0	0	472	508	0	0	
11	0	0	0	0	472	508	0	0	
12	0	0	0	0	467	508	0	0	
13	0	0	0	0	465	504	0	0	
14	0	0	0	0	465	508	0	0	
15	0	0	0	0	465	510	0	0	
0	0	0	0	0	460	510	0	0	
1	0	0	0	0	472	511	0	0	
2	0	0	0	0	480	511	0	0	
3	0	0	0	0	480	511	0	0	
4	0	0	0	0	480	511	0	0	
5	0	0	0	0	480	511	0	0	
6	0	0	0	0	480	512	0	0	
7	0	0	0	0	476	510	0	0	
8	0	0	0	0	472	508	0	0	
9	0	0	0	0	476	510	0	0	
10	0	0	0	0	480	508	0	0	
11	0	0	0	0	480	504	0	0	
12	0	0	0	0	483	504	0	0	
13	0	0	0	0	480	511	0	0	
14	0	0	0	0	476	510	0	0	
15	0	0	0	0	476	505	0	0	
0	0	0	0	0	472	508	0	0	
1	0	0	0	0	463	510	0	0	
2	0	0	0	0	462	508	0	0	
3	0	0	0	0	455	510	0	0	
4	0	0	0	0	460	510	0	0	
5	0	0	0	0	463	511	0	0	
6	0	0	0	0	472	510	0	0	
7	0	0	0	0	472	511	0	0	
8	0	0	0	0	480	511	0	0	
9	0	0	0	0	487	511	0	0	
10	0	0	0	0	487	510	0	0	
11	0	0	0	0	481	513	0	0	
12	0	0	0	0	483	512	0	0	
13	0	0	0	0	487	513	0	0	
14	0	0	0	0	483	510	0	0	
15	0	0	0	0	480	508	0	0	
0	0	0	0	0	472	504	0	0	
1	0	0	0	0	472	505	0	0	
2	0	0	0	0	472	508	0	0	
3	0	0	0	0	463	508	0	0	
4	0	0	0	0	455	508	0	0	
5	0	0	0	0	455	508	0	0	
6	0	0	0	0	455	508	0	0	
7	0	0	0	0	455	508	0	0	
8	0	0	0	0	460	508	0	0	
9	0	0	0	0	460	510	0	0	
10	0	0	0	0	467	511	0	0	
11	0	0	0	0	472	511	0	0	
12	0	0	0	0	480	510	0	0	
13	0	0	0	0	487	513	0	0	
14	0	0	0	0	483	513	0	0	
15	0	0	0	0	487	511	0	0	
0	0	0	0	0	483	515	0	0	
1	0	0	0	0	483	510	0	0	
2	0	0	0	0	481	510	0	0	
3	0	0	0	0	480	508	0	0	
4	0	0	0	0	473	510	0	0	
5	0	0	0	0	472	508	0	0	
6	0	0	0	0	467	508	0	0	
7	0	0	0	0	467	504	0	0	
8	0	0	0	0	467	504	0	0	
9	0	0	0	0	472	508	0	0	
10	0	0	0	0	472	504	0	0	
11	0	0	0	0	472	504	0	0	
12	0	0	0	0	463	508	0	0	
13	0	0	0	0	463	512	0	0	
14	0	0	0	0	472	511	0	0	
15	0	0	0	0	467	515	0	0	
0	0	0	0	0	472	512	0	0	
1	0	0	0	0	486	513	0	0	
2	0	0	0	0	480	513	0	0	
3	0	0	0	0	480	511	0	0	
4	0	0	0	0	486	510	0	0	
5	0	0	0	0	492	508	0	0	
6	0	0	0	0	496	508	0	0	
7	0	0	0	0	487	511	0	0	
8	0	0	0	0	480	511	0	0	
9	0	0	0	0	480	511	0	0	
10	0	0	0	0	480	512	0	0	
11	0	0	0	0	480	505	0	0	
12	0	0	0	0	472	508	0	0	
13	0	0	0	0	463	508	0	0	
14	0	0	0	0	462	508	0	0	
15	0	0	0	0	462	508	0	0	
0	0	0	0	0	460	508	0	0	
1	0	0	0	0	467	511	0	0	
2	0	0	0	0	472	515	0	0	
3	0	0	0	0	476	512	0	0	
4	0	0	0	0	481	515	0	0	
5	0	0	0	0	487	513	0	0	
6	0	0	0	0	487	508	0	0	
7	0	0	0	0	487	508	0	0	
8	0	0	0	0	487	510	0	0	
9	0	0	0	0	487	510	0	0	
10	0	0	0	0	487	508	0	0	
11	0	0	0	0	483	504	0	0	
12	0	0	0	0	480	508	0	0	
13	0	0	0	0	472	508	0	0	
14	0	0	0	0	472	508	0	0	
15	0	0	0	0	472	504	0	0	
0	0	0	0	0	467	508	0	0	
1	0	0	0	0	463	508	0	0	
2	0	0	0	0	463	508	0	0	
3	0	0	0	0	463	508	0	0	
4	0	0	0	0	462	508	0	0	
5	0	0	0	0	465	511	0	0	
6	0	0	0	0	472	512	0	0	
7	0	0	0	0	472	511	0	0	
8	0	0	0	0	476	510	0	0	
9	0	0	0	0	478	510	0	0	
10	0	0	0	0	480	508	0	0	
11	0	0	0	0	480	510	0	0	
12	0	0	0	0	481	511	0	0	
13	0	0	0	0	481	512	0	0	
14	0	0	0	0	481	511	0	0	
15	0	0	0	0	480	510	0	0	
0	0	0	0	0	480	508	0	0	
1	0	0	0	0	472	508	0	0	
2	0	0	0	0	465	508	0	0	
3	0	0	0	0	467	510	0	0	
4	0	0	0	0	472	508	0	0	
5	0	0	0	0	467	510	0	0	
6	0	0	0	0	465	512	0	0	
7	0	0	0	0	463	511	0	0	
8	0	0	0	0	472	508	0	0	
9	0	0	0	0	472	510	0	0	
10	0	0	0	0	476	512	0	0	
11	0	0	0	0	476	513	0	0	
12	0	0	0	0	476	512	0	0	
13	0	0	0	0	481	511	0	0	
14	0	0	0	0	487	511	0	0	
15	0	0	0	0	487	508	0	0	
0	0	0	0	0	483	513	0	0	
1	0	0	0	0	486	512	0	0	
2	0	0	0	0	487	511	0	0	
3	0	0	0	0	480	512	0	0	
4	0	0	0	0	480	510	0	0	
5	0	0	0	0	476	515	0	0	
6	0	0	0	0	467	510	0	0	
7	0	0	0	0	467	508	0	0	
8	0	0	0	0	472	511	0	0	
9	0	0	0	0	472	504	0	0	
10	0	0	0	0	472	508	0	0	
11	0	0	0	0	465	508	0	0	
12	0	0	0	0	465	511	0	0	
13	0	0	0	0	467	511	0	0	
14	0	0	0	0	472	505	0	0	
15	0	0	0	0	472	518	0	0	
0	0	0	0	0	472	510	0	0	
1	0	0	0	0	480	510	0	0	
2	0	0	0	0	480	511	0	0	
3	0	0	0	0	483	508	0	0	
4	0	0	0	0	483	511	0	0	
5	0	0	0	0	481	515	0	0	
6	0	0	0	0	480	511	0	0	
7	0	0	0	0	480	508	0	0	
8	0	0	0	0	467	508	0	0	
9	0	0	0	0	467	508	0	0	
10	0	0	0	0	465	508	0	0	
11	0	0	0	0	480	508	0	0	
12	0	0	0	0	472	504	0	0	
13	0	0	0	0	463	504	0	0	
14	0	0	0	0	463	504	0	0	
15	0	0	0	0	467	511	0	0	
0	0	0	0	0	472	510	0	0	
1	0	0	0	0	472	511	0	0	
2	0	0	0	0	483	511	0	0	
3	0	0	0	0	487	512	0	0	
4	0	0	0	0	487	511	0	0	
5	0	0	0	0	487	510	0	0	
6	0	0	0	0	492	511	0	0	
7	0	0	0	0	487	510	0	0	
8	0	0	0	0	487	510	0	0	
9	0	0	0	0	483	511	0	0	
10	0	0	0	0	483	511	0	0	
11	0	0	0	0	480	510	0	0	
12	0	0	0	0	476	508	0	0	
13	0	0	0	0	472	508	0	0	
14	0	0	0	0	472	505	0	0	
15	0	0	0	0	467	504	0	0	
0	0	0	0	0	463	508	0	0	
1	0	0	0	0	455	508	0	0	
2	0	0	0	0	455	508	0	0	
3	0	0	0	0	460	511	0	0	
4	0	0	0	0	460	511	0	0	
5	0	0	0	0	463	508	0	0	
6	0	0	0	0	467	508	0	0	
7	0	0	0	0	480	512	0	0	
8	0	0	0	0	480	511	0	0	
9	0	0	0	0	480	512	0	0	
10	0	0	0	0	480	512	0	0	
11	0	0	0	0	480	512	0	0	
12	0	0	0	0	483	511	0	0	
13	0	0	0	0	487	511	0	0	
14	0	0	0	0	487	508	0	0	
15	0	0	0	0	487	510	0	0	
0	0	0	0	0	486	504	0	0	
1	0	0	0	0	483	504	0	0	
2	0	0	0	0	480	505	0	0	
3	0	0	0	0	476	504	0	0	
4	0	0	0	0	463	508	0	0	
5	0	0	0	0	467	508	0	0	
6	0	0	0	0	472	510	0	0	
7	0	0	0	0	463	510	0	0	
8	0	0	0	0	462	512	0	0	
9	0	0	0	0	455	512	0	0	
10	0	0	0	0	460	508	0	0	
11	0	0	0	0	465	518	0	0	
12	0	0	0	0	462	511	0	0	
13	0	0	0	0	460	511	0	0	
14	0	0	0	0	463	511	0	0	
15	0	0	0	0	473	511	0	0	
0	0	0	0	0	473	510	0	0	
1	0	0	0	0	472	508	0	0	
2	0	0	0	0	483	508	0	0	
3	0	0	0	0	483	508	0	0	
4	0	0	0	0	481	510	0	0	
5	0	0	0	0	480	510	0	0	
6	0	0	0	0	476	508	0	0	
7	0	0	0	0	472	504	0	0	
8	0	0	0	0	467	508	0	0	
9	0	0	0	0	472	504	0	0	
10	0	0	0	0	465	515	0	0	
11	0	0	0	0	465	511	0	0	
12	0	0	0	0	472	511	0	0	
13	0	0	0	0	465	511	0	0	
14	0	0	0	0	472	510	0	0	
15	0	0	0	0	483	511	0	0	
0	0	0	0	0	483	510	0	0	
1	0	0	0	0	487	511	0	0	
2	0	0	0	0	487	511	0	0	
3	0	0	0	0	487	510	0	0	
4	0	0	0	0	487	510	0	0	
5	0	0	0	0	487	510	0	0	
6	0	0	0	0	483	508	0	0	
7	0	0	0	0	481	508	0	0	
8	0	0	0	0	480	508	0	0	
9	0	0	0	0	476	508	0	0	
10	0	0	0	0	473	511	0	0	
11	0	0	0	0	467	510	0	0	
12	0	0	0	0	467	508	0	0	
13	0	0	0	0	463	510	0	0	
14	0	0	0	0	462	510	0	0	
15	0	0	0	0	462	508	0	0	
0	0	0	0	0	463	508	0	0	
1	0	0	0	0	467	511	0	0	
2	0	0	0	0	476	513	0	0	
3	0	0	0	0	480	511	0	0	
4	0	0	0	0	480	512	0	0	
5	0	0	0	0	483	511	0	0	
6	0	0	0	0	483	510	0	0	
7	0	0	0	0	483	510	0	0	
8	0	0	0	0	483	510	0	0	
9	0	0	0	0	487	510	0	0	
10	0	0	0	0	483	508	0	0	
11	0	0	0	0	480	508	0	0	
12	0	0	0	0	480	508	0	0	
13	0	0	0	0	472	504	0	0	
14	0	0	0	0	463	510	0	0	
15	0	0	0	0	463	508	0	0	
0	0	0	0	0	460	510	0	0	
1	0	0	0	0	462	510	0	0	
2	0	0	0	0	462	511	0	0	
3	0	0	0	0	463	511	0	0	
4	0	0	0	0	463	510	0	0	
5	0	0	0	0	462	511	0	0	
6	0	0	0	0	472	511	0	0	
7	0	0	0	0	481	512	0	0	
8	0	0	0	0	486	512	0	0	
9	0	0	0	0	483	512	0	0	
10	0	0	0	0	480	511	0	0	
11	0	0	0	0	478	511	0	0	
12	0	0	0	0	476	510	0	0	
13	0	0	0	0	476	510	0	0	
14	0	0	0	0	480	508	0	0	
15	0	0	0	0	483	510	0	0	
0	0	0	0	0	487	508	0	0	
1	0	0	0	0	487	508	0	0	
2	0	0	0	0	487	505	0	0	
3	0	0	0	0	480	508	0	0	
4	0	0	0	0	473	511	0	0	
5	0	0	0	0	472	511	0	0	
6	0	0	0	0	467	508	0	0	
7	0	0	0	0	463	508	0	0	
8	0	0	0	0	463	511	0	0	
9	0	0	0	0	467	513	0	0	
10	0	0	0	0	463	512	0	0	
11	0	0	0	0	463	513	0	0	
12	0	0	0	0	472	513	0	0	
13	0	0	0	0	473	510	0	0	
14	0	0	0	0	476	511	0	0	
15	0	0	0	0	480	511	0	0	
0	0	0	0	0	483	511	0	0	
1	0	0	0	0	480	505	0	0	
2	0	0	0	0	480	510	0	0	
3	0	0	0	0	480	513	0	0	
4	0	0	0	0	487	511	0	0	
5	0	0	0	0	481	513	0	0	
6	0	0	0	0	480	508	0	0	
7	0	0	0	0	476	511	0	0	
8	0	0	0	0	467	512	0	0	
9	0	0	0	0	472	505	0	0	
10	0	0	0	0	463	513	0	0	
11	0	0	0	0	465	510	0	0	
12	0	0	0	0	472	511	0	0	
13	0	0	0	0	463	518	0	0	
14	0	0	0	0	472	510	0	0	
15	0	0	0	0	473	519	0	0	
0	0	0	0	0	480	511	0	0	
1	0	0	0	0	483	510	0	0	
2	0	0	0	0	487	510	0	0	
3	0	0	0	0	487	508	0	0	
4	0	0	0	0	492	510	0	0	
5	0	0	0	0	489	504	0	0	
6	0	0	0	0	487	504	0	0	
7	0	0	0	0	481	504	0	0	
8	0	0	0	0	480	508	0	0	
9	0	0	0	0	480	510	0	0	
10	0	0	0	0	478	508	0	0	
11	0	0	0	0	463	508	0	0	
12	0	0	0	0	463	504	0	0	
13	0	0	0	0	467	504	0	0	
14	0	0	0	0	465	513	0	0	
15	0	0	0	0	463	510	0	0	
0	0	0	0	0	462	512	0	0	
1	0	0	0	0	462	513	0	0	
2	0	0	0	0	463	512	0	0	
3	0	0	0	0	463	511	0	0	
4	0	0	0	0	467	511	0	0	
5	0	0	0	0	480	511	0	0	
6	0	0	0	0	480	510	0	0	
7	0	0	0	0	481	511	0	0	
8	0	0	0	0	483	511	0	0	
9	0	0	0	0	487	511	0	0	
10	0	0	0	0	487	508	0	0	
11	0	0	0	0	483	510	0	0	
12	0	0	0	0	480	511	0	0	
13	0	0	0	0	476	510	0	0	
14	0	0	0	0	470	508	0	0	
15	0	0	0	0	472	511	0	0	
0	0	0	0	0	467	511	0	0	
1	0	0	0	0	463	508	0	0	
2	0	0	0	0	462	508	0	0	
3	0	0	0	0	460	508	0	0	
4	0	0	0	0	463	511	0	0	
5	0	0	0	0	467	510	0	0	
6	0	0	0	0	465	513	0	0	
7	0	0	0	0	472	513	0	0	
8	0	0	0	0	480	511	0	0	
9	0	0	0	0	483	508	0	0	
10	0	0	0	0	486	510	0	0	
11	0	0	0	0	487	511	0	0	
12	0	0	0	0	487	511	0	0	
13	0	0	0	0	487	511	0	0	
14	0	0	0	0	497	508	0	0	
15	0	0	0	0	504	508	0	0	
0	0	0	0	0	494	511	0	0	
1	0	0	0	0	487	508	0	0	
2	0	0	0	0	487	508	0	0	
3	0	0	0	0	480	505	0	0	
4	0	0	0	0	472	508	0	0	
5	0	0	0	0	463	505	0	0	
6	0	0	0	0	451	508	0	0	
7	0	0	0	0	440	508	0	0	
8	0	0	0	0	448	508	0	0	
9	0	0	0	0	455	510	0	0	
10	0	0	0	0	448	515	0	0	
11	0	0	0	0	455	511	0	0	
12	0	0	0	0	472	512	0	0	
13	0	0	0	0	472	512	0	0	
14	0	0	0	0	476	511	0	0	
15	0	0	0	0	480	511	0	0	
0	0	0	0	0	483	511	0	0	
1	0	0	0	0	486	510	0	0	
2	0	0	0	0	487	508	0	0	
3	0	0	0	0	480	512	0	0	
4	0	0	0	0	476	508	0	0	
5	0	0	0	0	463	508	0	0	
6	0	0	0	0	463	508	0	0	
7	0	0	0	0	465	508	0	0	
8	0	0	0	0	467	505	0	0	
9	0	0	0	0	472	510	0	0	
10	0	0	0	0	467	508	0	0	
11	0	0	0	0	463	508	0	0	
12	0	0	0	0	462	511	0	0	
13	0	0	0	0	463	512	0	0	
14	0	0	0	0	472	512	0	0	
15	0	0	0	0	480	508	0	0	
0	0	0	0	0	487	512	0	0	
1	0	0	0	0	492	510	0	0	
2	0	0	0	0	492	513	0	0	
3	0	0	0	0	496	508	0	0	
4	0	0	0	0	492	512	0	0	
5	0	0	0	0	487	510	0	0	
6	0	0	0	0	480	508	0	0	
7	0	0	0	0	476	504	0	0	
8	0	0	0	0	470	510	0	0	
9	0	0	0	0	462	508	0	0	
10	0	0	0	0	455	505	0	0	
11	0	0	0	0	460	504	0	0	
12	0	0	0	0	465	504	0	0	
13	0	0	0	0	472	504	0	0	
14	0	0	0	0	472	508	0	0	
15	0	0	0	0	472	508	0	0	
0	0	0	0	0	472	505	0	0	
1	0	0	0	0	467	510	0	0	
2	0	0	0	0	472	508	0	0	
3	0	0	0	0	472	513	0	0	
4	0	0	0	0	472	515	0	0	
5	0	0	0	0	476	511	0	0	
6	0	0	0	0	486	512	0	0	
7	0	0	0	0	496	510	0	0	
8	0	0	0	0	487	519	0	0	
9	0	0	0	0	492	513	0	0	
10	0	0	0	0	496	511	0	0	
11	0	0	0	0	492	510	0	0	
12	0	0	0	0	486	508	0	0	
13	0	0	0	0	480	505	0	0	
14	0	0	0	0	472	508	0	0	
15	0	0	0	0	467	508	0	0	
0	0	0	0	0	462	508	0	0	
1	0	0	0	0	463	505	0	0	
2	0	0	0	0	467	504	0	0	
3	0	0	0	0	463	497	0	0	
4	0	0	0	0	462	504	0	0	
5	0	0	0	0	465	504	0	0	
6	0	0	0	0	463	511	0	0	
7	0	0	0	0	467	515	0	0	
8	0	0	0	0	472	496	0	0	
9	0	0	0	0	480	476	0	0	
10	0	0	0	0	483	487	0	0	
11	0	0	0	0	487	492	0	0	
12	0	0	0	0	487	504	0	0	
13	0	0	0	0	483	512	0	0	
14	0	0	0	0	480	519	0	0	
15	0	0	0	0	460	529	0	0	
0	0	0	0	0	462	551	0	0	
1	0	0	0	0	463	561	0	0	
2	0	0	0	0	472	553	0	0	
3	0	0	0	0	486	526	0	0	
4	0	0	0	0	467	511	0	0	
5	0	0	0	0	476	519	0	0	
6	0	0	0	0	504	508	0	0	
7	0	0	0	0	499	487	0	0	
8	0	0	0	0	492	472	0	0	
9	0	0	0	0	504	481	0	0	
10	0	0	0	0	510	496	0	0	
11	0	0	0	0	504	487	0	0	
12	0	0	0	0	448	480	0	0	
13	0	0	0	0	399	487	0	0	
14	0	0	0	0	432	519	0	0	
15	0	0	0	0	486	551	0	0	
0	0	0	0	0	499	556	0	0	
1	0	0	0	0	504	551	0	0	
2	0	0	0	0	504	551	0	0	
3	0	0	0	0	496	543	0	0	
4	0	0	0	0	497	540	0	0	
5	0	0	0	0	496	511	0	0	
6	0	0	0	0	478	487	0	0	
7	0	0	0	0	449	444	0	0	
8	0	0	0	0	415	419	0	0	
9	0	0	0	0	403	419	0	0	
10	0	0	0	0	440	408	0	0	
11	0	0	0	0	487	408	0	0	
12	0	0	0	0	511	344	0	0	
13	0	0	0	0	508	366	0	0	
14	0	0	0	0	455	432	0	0	
15	0	0	0	0	451	531	0	0	
0	0	0	0	0	476	615	0	0	
1	0	0	0	0	496	671	1	0	
2	0	0	0	0	492	707	0	0	
3	0	0	0	0	455	696	0	12	
4	0	0	0	0	467	671	1	24	
5	0	0	0	0	512	639	0	31	
6	0	0	0	0	527	615	0	44	
7	0	0	0	0	547	575	0	48	
8	0	0	0	0	575	551	0	56	
9	0	0	0	0	600	575	0	63	
10	0	0	0	0	568	583	0	67	
11	0	0	0	0	504	508	0	71	
12	0	0	0	0	504	440	0	79	
13	0	0	0	0	524	433	0	83	
14	0	0	0	0	492	398	0	92	
15	0	0	0	0	408	368	0	96	
0	0	0	0	0	384	408	0	96	
1	0	0	0	0	384	455	0	99	
2	0	0	0	0	385	527	0	103	
3	0	0	0	0	415	558	0	108	
4	0	0	0	0	396	558	0	112	
5	0	0	0	0	385	508	0	110	
6	0	0	0	0	423	472	0	112	
7	0	0	0	0	449	465	0	120	
8	0	0	0	0	408	476	0	120	
9	0	0	0	0	334	508	0	127	
10	0	0	0	0	319	515	0	135	
11	0	0	0	0	337	504	0	143	
12	0	0	0	0	494	480	0	152	
13	0	0	0	0	659	408	0	163	
14	0	0	0	0	590	412	0	176	
15	0	0	0	0	556	435	0	185	
0	0	0	0	0	615	487	0	188	
1	0	0	0	0	671	519	12	192	
2	0	0	0	0	615	515	28	199	
3	0	0	0	0	496	511	39	199	
4	0	0	0	0	352	527	49	211	
5	0	0	0	0	214	504	94	211	
6	0	0	0	0	300	519	96	216	
7	0	0	0	0	398	563	108	231	
8	0	0	0	0	432	537	127	248	
9	0	0	0	0	432	510	143	255	
10	0	0	0	0	444	519	167	263	
11	0	0	0	0	476	551	163	270	
12	0	0	0	0	465	575	177	273	
13	0	0	0	0	480	560	184	280	
14	0	0	0	0	497	543	199	284	
15	0	0	0	0	508	551	199	295	
0	0	0	0	0	496	513	206	304	
1	0	0	0	0	428	467	231	305	
2	0	0	0	0	391	451	231	316	
3	0	0	0	0	419	476	240	319	
4	0	0	0	0	451	478	243	323	
5	0	0	0	0	473	494	252	323	
6	0	0	0	0	494	455	255	327	
7	0	0	0	0	519	487	255	327	
8	0	0	0	0	543	497	263	327	
9	0	0	0	0	513	513	268	332	
10	0	0	0	0	444	524	271	332	
11	0	0	0	0	451	515	270	332	
12	0	0	0	0	476	550	273	332	
13	0	0	0	0	492	551	275	327	
14	0	0	0	0	472	537	280	335	
15	0	0	0	0	481	529	284	339	
0	0	0	0	0	543	536	291	344	
1	0	0	0	0	575	512	287	344	
2	0	0	0	0	574	478	307	352	
3	0	0	0	0	547	472	312	352	
4	0	0	0	0	543	496	319	355	
5	0	0	0	0	547	518	319	364	
6	0	0	0	0	526	527	323	366	
7	0	0	0	0	519	526	323	371	
8	0	0	0	0	526	512	334	376	
9	0	0	0	0	512	499	332	371	
10	0	0	0	0	492	492	339	384	
11	0	0	0	0	487	487	344	384	
12	0	0	0	0	472	504	344	385	
13	0	0	0	0	476	515	344	391	
14	0	0	0	0	480	504	348	391	
15	0	0	0	0	478	510	348	391	
0	0	0	0	0	487	513	350	396	
1	0	0	0	0	481	499	352	398	
2	0	0	0	0	472	518	352	399	
3	0	0	0	0	499	513	352	399	
4	0	0	0	0	527	515	352	399	
5	0	0	0	0	540	505	352	399	
6	0	0	0	0	527	508	352	399	
7	0	0	0	0	508	499	353	399	
8	0	0	0	0	487	496	352	401	
9	0	0	0	0	472	510	355	403	
10	0	0	0	0	448	504	358	403	
11	0	0	0	0	423	487	359	401	
12	0	0	0	0	438	486	358	403	
13	0	0	0	0	435	476	359	401	
14	0	0	0	0	403	480	359	403	
15	0	0	0	0	423	473	358	403	
0	0	0	0	0	444	508	355	408	
1	0	0	0	0	401	558	353	408	
2	0	0	0	0	387	560	352	409	
3	0	0	0	0	385	551	352	414	
4	0	0	0	0	417	543	348	414	
5	0	0	0	0	428	556	345	415	
6	0	0	0	0	444	563	344	415	
7	0	0	0	0	487	531	344	419	
8	0	0	0	0	455	508	339	422	
9	0	0	0	0	440	499	344	423	
10	0	0	0	0	440	497	344	423	
11	0	0	0	0	462	505	339	423	
12	0	0	0	0	518	508	337	423	
13	0	0	0	0	510	519	337	428	
14	0	0	0	0	448	529	335	430	
15	0	0	0	0	391	518	335	428	
0	0	0	0	0	391	511	342	432	
1	0	0	0	0	478	504	344	432	
2	0	0	0	0	531	480	344	433	
3	0	0	0	0	550	492	348	433	
4	0	0	0	0	519	494	352	435	
5	0	0	0	0	481	497	352	435	
6	0	0	0	0	465	499	348	435	
7	0	0	0	0	463	504	348	433	
8	0	0	0	0	487	504	344	435	
9	0	0	0	0	511	504	344	435	
10	0	0	0	0	547	504	344	440	
11	0	0	0	0	563	510	352	440	
12	0	0	0	0	575	504	352	440	
13	0	0	0	0	575	504	353	440	
14	0	0	0	0	560	508	355	444	
15	0	0	0	0	540	504	359	444	
0	0	0	0	0	496	508	359	444	
1	0	0	0	0	472	511	364	448	
2	0	0	0	0	463	508	364	448	
3	0	0	0	0	440	510	364	448	
4	0	0	0	0	409	504	364	448	
5	0	0	0	0	398	502	366	448	
6	0	0	0	0	433	496	366	448	
7	0	0	0	0	462	487	368	448	
8	0	0	0	0	497	492	368	448	
9	0	0	0	0	526	511	368	448	
10	0	0	0	0	558	519	368	448	
11	0	0	0	0	524	531	368	449	
12	0	0	0	0	508	526	364	449	
13	0	0	0	0	492	529	359	449	
14	0	0	0	0	463	526	364	451	
15	0	0	0	0	455	518	364	455	
0	0	0	0	0	449	489	364	455	
1	0	0	0	0	487	480	364	455	
2	0	0	0	0	512	480	359	455	
3	0	0	0	0	467	472	364	455	
4	0	0	0	0	463	476	364	455	
5	0	0	0	0	496	487	364	455	
6	0	0	0	0	480	496	366	455	
7	0	0	0	0	463	504	364	455	
8	0	0	0	0	380	527	359	455	
9	0	0	0	0	319	536	359	455	
10	0	0	0	0	335	561	368	455	
11	0	0	0	0	352	563	364	455	
12	0	0	0	0	403	512	368	460	
13	0	0	0	0	419	487	371	460	
14	0	0	0	0	455	496	376	462	
15	0	0	0	0	536	519	374	462	
0	0	0	0	0	575	536	377	462	
1	0	0	0	0	519	540	384	462	
2	0	0	0	0	497	511	384	463	
3	0	0	0	0	487	504	384	463	
4	0	0	0	0	511	518	384	463	
5	0	0	0	0	531	513	384	463	
6	0	0	0	0	536	511	385	463	
7	0	0	0	0	534	519	384	463	
8	0	0	0	0	526	519	387	463	
9	0	0	0	0	531	536	391	463	
10	0	0	0	0	496	508	391	463	
11	0	0	0	0	444	487	391	467	
12	0	0	0	0	449	487	391	465	
13	0	0	0	0	460	504	396	467	
14	0	0	0	0	451	515	399	467	
15	0	0	0	0	496	512	399	472	
0	0	0	0	0	496	519	399	472	
1	0	0	0	0	455	511	399	472	
2	0	0	0	0	423	504	403	472	
3	0	0	0	0	409	496	408	472	
4	0	0	0	0	428	476	408	473	
5	0	0	0	0	476	472	412	476	
6	0	0	0	0	480	480	414	476	
7	0	0	0	0	497	496	414	476	
8	0	0	0	0	512	510	415	476	
9	0	0	0	0	511	519	415	476	
10	0	0	0	0	515	508	415	476	
11	0	0	0	0	510	515	419	476	
12	0	0	0	0	492	512	423	476	
13	0	0	0	0	483	513	425	476	
14	0	0	0	0	455	513	430	476	
15	0	0	0	0	448	515	432	473	
0	0	0	0	0	448	512	432	472	
1	0	0	0	0	451	511	432	472	
2	0	0	0	0	455	518	438	472	
3	0	0	0	0	465	508	433	472	
4	0	0	0	0	467	511	432	472	
5	0	0	0	0	460	512	435	472	
6	0	0	0	0	483	508	435	472	
7	0	0	0	0	505	508	438	472	
8	0	0	0	0	512	508	435	472	
9	0	0	0	0	526	511	435	467	
10	0	0	0	0	519	510	440	467	
11	0	0	0	0	524	504	435	463	
12	0	0	0	0	513	512	440	465	
13	0	0	0	0	499	512	440	465	
14	0	0	0	0	487	519	440	463	
15	0	0	0	0	480	527	440	465	
0	0	0	0	0	451	519	440	463	
1	0	0	0	0	415	510	440	465	
2	0	0	0	0	403	508	440	465	
3	0	0	0	0	415	504	440	465	
4	0	0	0	0	423	504	440	463	
5	0	0	0	0	430	504	440	463	
6	0	0	0	0	455	508	444	463	
7	0	0	0	0	463	502	440	463	
8	0	0	0	0	451	499	440	462	
9	0	0	0	0	462	499	441	463	
10	0	0	0	0	487	508	441	462	
11	0	0	0	0	472	524	444	460	
12	0	0	0	0	473	526	440	460	
13	0	0	0	0	504	515	440	460	
14	0	0	0	0	487	511	440	455	
15	0	0	0	0	497	510	440	455	
0	0	0	0	0	497	519	440	455	
1	0	0	0	0	487	515	440	455	
2	0	0	0	0	487	508	440	455	
3	0	0	0	0	483	513	440	454	
4	0	0	0	0	467	524	440	451	
5	0	0	0	0	470	511	440	451	
6	0	0	0	0	444	487	440	449	
7	0	0	0	0	423	499	435	448	
8	0	0	0	0	448	511	435	448	
9	0	0	0	0	472	508	438	448	
10	0	0	0	0	473	494	435	448	
11	0	0	0	0	462	499	435	444	
12	0	0	0	0	472	510	435	440	
13	0	0	0	0	483	510	435	440	
14	0	0	0	0	487	511	435	440	
15	0	0	0	0	494	510	435	440	
0	0	0	0	0	504	512	433	432	
1	0	0	0	0	536	510	432	432	
2	0	0	0	0	527	505	433	428	
3	0	0	0	0	510	504	432	428	
4	0	0	0	0	492	511	432	423	
5	0	0	0	0	480	519	428	423	
6	0	0	0	0	492	510	423	419	
7	0	0	0	0	487	512	419	419	
8	0	0	0	0	487	510	419	412	
9	0	0	0	0	487	513	412	408	
10	0	0	0	0	476	511	408	408	
11	0	0	0	0	467	496	408	403	
12	0	0	0	0	449	496	408	403	
13	0	0	0	0	449	510	408	399	
14	0	0	0	0	465	515	403	399	
15	0	0	0	0	499	504	399	399	
0	0	0	0	0	508	510	398	398	
1	0	0	0	0	480	504	396	398	
2	0	0	0	0	472	499	387	391	
3	0	0	0	0	460	515	387	391	
4	0	0	0	0	463	508	384	391	
5	0	0	0	0	463	511	384	387	
6	0	0	0	0	455	524	384	387	
7	0	0	0	0	467	524	384	385	
8	0	0	0	0	467	519	384	385	
9	0	0	0	0	465	511	376	384	
10	0	0	0	0	463	504	376	384	
11	0	0	0	0	463	496	376	384	
12	0	0	0	0	455	496	371	384	
13	0	0	0	0	444	496	368	376	
14	0	0	0	0	435	519	366	376	
15	0	0	0	0	467	519	364	376	
0	0	0	0	0	487	519	359	376	
1	0	0	0	0	487	508	359	371	
2	0	0	0	0	463	505	355	369	
3	0	0	0	0	455	512	355	368	
4	0	0	0	0	455	510	352	368	
5	0	0	0	0	472	508	352	359	
6	0	0	0	0	476	505	344	359	
7	0	0	0	0	492	518	344	355	
8	0	0	0	0	512	519	339	352	
9	0	0	0	0	529	508	335	352	
10	0	0	0	0	527	494	334	352	
11	0	0	0	0	515	487	334	348	
12	0	0	0	0	487	496	332	344	
13	0	0	0	0	480	504	332	339	
14	0	0	0	0	483	494	327	337	
15	0	0	0	0	435	496	327	335	
0	0	0	0	0	399	508	327	335	
1	0	0	0	0	399	510	326	335	
2	0	0	0	0	412	515	326	332	
3	0	0	0	0	444	521	323	327	
4	0	0	0	0	451	524	319	327	
5	0	0	0	0	463	531	319	327	
6	0	0	0	0	487	545	319	327	
7	0	0	0	0	508	536	319	327	
8	0	0	0	0	480	508	319	323	
9	0	0	0	0	433	492	316	323	
10	0	0	0	0	432	492	313	323	
11	0	0	0	0	440	496	313	319	
12	0	0	0	0	460	504	307	319	
13	0	0	0	0	476	502	305	319	
14	0	0	0	0	480	508	307	319	
15	0	0	0	0	499	527	307	319	
0	0	0	0	0	529	519	304	319	
1	0	0	0	0	515	524	304	319	
2	0	0	0	0	480	515	304	319	
3	0	0	0	0	487	512	302	319	
4	0	0	0	0	492	512	304	319	
5	0	0	0	0	515	508	300	319	
6	0	0	0	0	519	512	295	319	
7	0	0	0	0	492	508	295	319	
8	0	0	0	0	472	499	295	319	
9	0	0	0	0	480	496	295	319	
10	0	0	0	0	487	497	295	319	
11	0	0	0	0	492	504	295	318	
12	0	0	0	0	487	508	295	318	
13	0	0	0	0	487	513	295	316	
14	0	0	0	0	480	524	295	313	
15	0	0	0	0	486	515	295	312	
0	0	0	0	0	502	513	295	312	
1	0	0	0	0	510	504	295	312	
2	0	0	0	0	499	505	295	312	
3	0	0	0	0	504	504	295	312	
4	0	0	0	0	487	513	295	312	
5	0	0	0	0	505	519	294	312	
6	0	0	0	0	512	511	294	312	
7	0	0	0	0	483	502	295	312	
8	0	0	0	0	419	508	295	307	
9	0	0	0	0	403	499	295	307	
10	0	0	0	0	432	487	294	307	
11	0	0	0	0	455	492	295	307	
12	0	0	0	0	454	505	295	307	
13	0	0	0	0	463	504	287	305	
14	0	0	0	0	463	510	291	307	
15	0	0	0	0	444	513	291	304	
0	0	0	0	0	440	515	289	304	
1	0	0	0	0	415	531	291	304	
2	0	0	0	0	408	529	291	302	
3	0	0	0	0	428	513	287	302	
4	0	0	0	0	448	513	287	295	
5	0	0	0	0	467	513	287	300	
6	0	0	0	0	483	512	287	300	
7	0	0	0	0	483	515	291	304	
8	0	0	0	0	463	512	291	304	
9	0	0	0	0	487	504	291	304	
10	0	0	0	0	487	499	289	302	
11	0	0	0	0	472	497	291	304	
12	0	0	0	0	487	487	291	304	
13	0	0	0	0	497	487	291	304	
14	0	0	0	0	487	496	291	304	
15	0	0	0	0	481	508	291	304	
0	0	0	0	0	494	518	291	304	
1	0	0	0	0	492	521	291	304	
2	0	0	0	0	480	527	295	304	
3	0	0	0	0	472	540	295	307	
4	0	0	0	0	480	542	295	305	
5	0	0	0	0	487	524	295	305	
6	0	0	0	0	463	508	295	304	
7	0	0	0	0	451	510	295	305	
8	0	0	0	0	463	508	295	307	
9	0	0	0	0	472	492	295	304	
10	0	0	0	0	496	499	295	304	
11	0	0	0	0	499	510	295	300	
12	0	0	0	0	497	508	295	295	
13	0	0	0	0	499	504	295	295	
14	0	0	0	0	492	504	295	295	
15	0	0	0	0	487	504	295	294	
0	0	0	0	0	483	508	300	295	
1	0	0	0	0	496	504	300	295	
2	0	0	0	0	504	512	295	295	
3	0	0	0	0	519	504	295	294	
4	0	0	0	0	510	504	295	294	
5	0	0	0	0	496	511	300	294	
6	0	0	0	0	483	511	295	291	
7	0	0	0	0	455	508	295	295	
8	0	0	0	0	435	508	295	291	
9	0	0	0	0	440	504	295	291	
10	0	0	0	0	444	508	295	295	
11	0	0	0	0	462	511	295	291	
12	0	0	0	0	463	513	295	295	
13	0	0	0	0	465	513	295	294	
14	0	0	0	0	472	519	295	295	
15	0	0	0	0	455	519	295	291	
0	0	0	0	0	455	519	294	291	
1	0	0	0	0	472	504	295	290	
2	0	0	0	0	467	496	295	291	
3	0	0	0	0	480	504	291	291	
4	0	0	0	0	480	515	289	287	
5	0	0	0	0	483	513	287	287	
6	0	0	0	0	480	512	287	287	
7	0	0	0	0	483	508	287	286	
8	0	0	0	0	481	504	287	284	
9	0	0	0	0	480	504	287	284	
10	0	0	0	0	473	504	287	280	
11	0	0	0	0	448	504	286	280	
12	0	0	0	0	460	508	284	280	
13	0	0	0	0	449	508	284	271	
14	0	0	0	0	432	511	284	275	
15	0	0	0	0	440	513	284	271	
0	0	0	0	0	460	515	284	268	
1	0	0	0	0	480	515	284	263	
2	0	0	0	0	472	515	284	263	
3	0	0	0	0	455	511	284	263	
4	0	0	0	0	449	515	281	263	
5	0	0	0	0	487	513	280	263	
6	0	0	0	0	515	508	280	263	
7	0	0	0	0	524	505	280	263	
8	0	0	0	0	527	511	280	268	
9	0	0	0	0	504	504	280	268	
10	0	0	0	0	487	508	280	263	
11	0	0	0	0	487	508	280	268	
12	0	0	0	0	480	512	280	263	
13	0	0	0	0	480	519	280	262	
14	0	0	0	0	480	508	281	255	
15	0	0	0	0	496	505	280	255	
0	0	0	0	0	511	492	280	255	
1	0	0	0	0	511	480	280	255	
2	0	0	0	0	518	487	280	252	
3	0	0	0	0	510	508	280	254	
4	0	0	0	0	505	499	280	255	
5	0	0	0	0	504	504	280	255	
6	0	0	0	0	515	512	280	254	
7	0	0	0	0	524	524	280	254	
8	0	0	0	0	510	536	280	254	
9	0	0	0	0	504	524	280	255	
10	0	0	0	0	460	521	280	255	
11	0	0	0	0	462	521	280	255	
12	0	0	0	0	463	529	280	255	
13	0	0	0	0	460	527	280	255	
14	0	0	0	0	440	511	280	255	
15	0	0	0	0	399	505	280	255	
0	0	0	0	0	391	504	280	255	
1	0	0	0	0	417	510	280	255	
2	0	0	0	0	433	508	280	255	
3	0	0	0	0	441	513	280	254	
4	0	0	0	0	451	508	280	255	
5	0	0	0	0	440	508	280	255	
6	0	0	0	0	444	508	280	255	
7	0	0	0	0	451	511	280	255	
8	0	0	0	0	463	504	280	255	
9	0	0	0	0	465	499	280	255	
10	0	0	0	0	472	508	280	255	
11	0	0	0	0	483	504	280	255	
12	0	0	0	0	483	504	280	255	
13	0	0	0	0	487	510	280	255	
14	0	0	0	0	487	496	280	255	
15	0	0	0	0	472	497	280	254	
0	0	0	0	0	467	499	278	254	
1	0	0	0	0	476	504	280	255	
2	0	0	0	0	467	508	280	255	
3	0	0	0	0	463	504	280	255	
4	0	0	0	0	497	515	280	255	
5	0	0	0	0	524	513	280	255	
6	0	0	0	0	527	512	280	255	
7	0	0	0	0	519	511	280	255	
8	0	0	0	0	508	512	280	255	
9	0	0	0	0	480	515	280	255	
10	0	0	0	0	472	512	280	255	
11	0	0	0	0	476	515	280	255	
12	0	0	0	0	483	515	280	254	
13	0	0	0	0	467	510	286	254	
14	0	0	0	0	467	513	287	252	
15	0	0	0	0	483	513	287	254	
0	0	0	0	0	508	511	287	252	
1	0	0	0	0	512	512	287	252	
2	0	0	0	0	513	504	287	252	
3	0	0	0	0	489	504	287	252	
4	0	0	0	0	472	504	287	249	
5	0	0	0	0	472	512	287	252	
6	0	0	0	0	455	519	287	249	
7	0	0	0	0	448	515	287	252	
8	0	0	0	0	451	512	287	252	
9	0	0	0	0	472	508	284	252	
10	0	0	0	0	467	496	284	252	
11	0	0	0	0	472	499	284	248	
12	0	0	0	0	473	504	286	249	
13	0	0	0	0	463	511	286	252	
14	0	0	0	0	465	510	286	252	
15	0	0	0	0	463	504	286	252	
0	0	0	0	0	444	508	287	255	
1	0	0	0	0	448	519	286	254	
2	0	0	0	0	451	518	287	252	
3	0	0	0	0	435	515	287	254	
4	0	0	0	0	455	504	287	252	
5	0	0	0	0	487	504	287	252	
6	0	0	0	0	499	510	287	252	
7	0	0	0	0	510	508	287	255	
8	0	0	0	0	519	515	287	254	
9	0	0	0	0	543	515	287	255	
10	0	0	0	0	511	510	287	255	
11	0	0	0	0	499	508	287	254	
12	0	0	0	0	483	508	287	254	
13	0	0	0	0	472	508	287	252	
14	0	0	0	0	463	511	287	254	
15	0	0	0	0	486	508	287	254	
0	0	0	0	0	494	511	287	252	
1	0	0	0	0	473	512	289	252	
2	0	0	0	0	472	513	287	252	
3	0	0	0	0	472	515	287	252	
4	0	0	0	0	467	513	291	252	
5	0	0	0	0	451	519	287	248	
6	0	0	0	0	455	515	287	248	
7	0	0	0	0	463	508	287	248	
8	0	0	0	0	463	504	291	248	
9	0	0	0	0	463	505	291	248	
10	0	0	0	0	467	504	287	248	
11	0	0	0	0	472	497	289	248	
12	0	0	0	0	480	492	287	243	
13	0	0	0	0	463	508	287	243	
14	0	0	0	0	480	504	287	240	
15	0	0	0	0	476	510	287	240	
0	0	0	0	0	480	515	287	240	
1	0	0	0	0	499	519	286	240	
2	0	0	0	0	487	519	286	240	
3	0	0	0	0	465	513	286	240	
4	0	0	0	0	455	515	284	236	
5	0	0	0	0	455	518	286	236	
6	0	0	0	0	462	511	286	236	
7	0	0	0	0	467	511	284	231	
8	0	0	0	0	472	510	284	231	
9	0	0	0	0	476	504	280	227	
10	0	0	0	0	483	504	280	227	
11	0	0	0	0	480	504	275	224	
12	0	0	0	0	497	499	271	224	
13	0	0	0	0	497	492	271	224	
14	0	0	0	0	496	504	271	224	
15	0	0	0	0	499	508	271	224	
0	0	0	0	0	496	504	271	224	
1	0	0	0	0	487	504	271	220	
2	0	0	0	0	496	504	271	220	
3	0	0	0	0	494	513	268	216	
4	0	0	0	0	472	524	263	216	
5	0	0	0	0	460	527	263	216	
6	0	0	0	0	472	527	263	216	
7	0	0	0	0	463	519	262	216	
8	0	0	0	0	465	515	255	216	
9	0	0	0	0	462	510	255	216	
10	0	0	0	0	448	504	254	216	
11	0	0	0	0	455	499	252	216	
12	0	0	0	0	451	499	252	216	
13	0	0	0	0	460	496	243	214	
14	0	0	0	0	472	497	241	211	
15	0	0	0	0	455	505	231	211	
0	0	0	0	0	455	511	231	209	
1	0	0	0	0	481	519	227	207	
2	0	0	0	0	473	519	227	209	
3	0	0	0	0	472	512	231	207	
4	0	0	0	0	476	512	227	207	
5	0	0	0	0	476	508	227	206	
6	0	0	0	0	480	512	227	204	
7	0	0	0	0	480	511	224	199	
8	0	0	0	0	467	511	225	199	
9	0	0	0	0	480	504	224	199	
10	0	0	0	0	480	497	224	199	
11	0	0	0	0	472	504	222	199	
12	0	0	0	0	487	504	220	199	
13	0	0	0	0	496	508	220	199	
14	0	0	0	0	504	510	220	199	
15	0	0	0	0	496	510	220	199	
0	0	0	0	0	489	510	217	199	
1	0	0	0	0	504	504	220	199	
2	0	0	0	0	499	511	216	199	
3	0	0	0	0	483	531	217	199	
4	0	0	0	0	496	531	220	195	
5	0	0	0	0	496	527	220	192	
6	0	0	0	0	451	511	220	192	
7	0	0	0	0	451	512	220	192	
8	0	0	0	0	470	524	217	192	
9	0	0	0	0	481	512	220	190	
10	0	0	0	0	496	510	216	188	
11	0	0	0	0	524	504	211	188	
12	0	0	0	0	531	487	211	184	
13	0	0	0	0	510	481	214	185	
14	0	0	0	0	496	481	216	185	
15	0	0	0	0	496	496	216	188	
0	0	0	0	0	504	504	216	184	
1	0	0	0	0	487	524	216	184	
2	0	0	0	0	476	536	211	184	
3	0	0	0	0	440	536	216	184	
4	0	0	0	0	428	543	216	184	
5	0	0	0	0	444	512	216	184	
6	0	0	0	0	476	510	216	179	
7	0	0	0	0	496	513	216	182	
8	0	0	0	0	487	511	211	184	
9	0	0	0	0	472	504	209	182	
10	0	0	0	0	467	492	209	184	
11	0	0	0	0	467	499	207	184	
12	0	0	0	0	467	508	204	184	
13	0	0	0	0	435	510	204	184	
14	0	0	0	0	414	508	204	184	
15	0	0	0	0	432	504	199	182	
0	0	0	0	0	455	499	199	184	
1	0	0	0	0	455	513	199	184	
2	0	0	0	0	472	510	204	184	
3	0	0	0	0	467	504	199	184	
4	0	0	0	0	470	508	199	185	
5	0	0	0	0	483	504	199	184	
6	0	0	0	0	481	515	199	188	
7	0	0	0	0	487	519	199	190	
8	0	0	0	0	492	515	199	192	
9	0	0	0	0	494	504	199	190	
10	0	0	0	0	494	508	199	192	
11	0	0	0	0	502	513	199	192	
12	0	0	0	0	499	515	206	192	
13	0	0	0	0	487	511	204	192	
14	0	0	0	0	480	505	206	192	
15	0	0	0	0	460	504	206	192	
0	0	0	0	0	467	504	206	192	
1	0	0	0	0	463	512	206	192	
2	0	0	0	0	449	511	206	192	
3	0	0	0	0	448	504	206	192	
4	0	0	0	0	433	504	207	193	
5	0	0	0	0	444	508	209	192	
6	0	0	0	0	472	512	209	192	
7	0	0	0	0	472	515	211	192	
8	0	0	0	0	462	511	211	192	
9	0	0	0	0	454	499	211	193	
10	0	0	0	0	463	502	211	193	
11	0	0	0	0	455	512	216	195	
12	0	0	0	0	448	512	211	195	
13	0	0	0	0	451	511	211	195	
14	0	0	0	0	455	510	216	195	
15	0	0	0	0	467	512	216	195	
0	0	0	0	0	487	515	211	199	
1	0	0	0	0	496	512	216	195	
2	0	0	0	0	504	505	216	195	
3	0	0	0	0	529	499	216	195	
4	0	0	0	0	551	496	216	195	
5	0	0	0	0	536	499	216	195	
6	0	0	0	0	519	499	216	195	
7	0	0	0	0	504	508	216	195	
8	0	0	0	0	480	508	216	195	
9	0	0	0	0	463	512	216	195	
10	0	0	0	0	460	519	216	195	
11	0	0	0	0	460	512	216	193	
12	0	0	0	0	448	510	216	195	
13	0	0	0	0	448	513	216	195	
14	0	0	0	0	448	515	216	193	
15	0	0	0	0	455	519	217	195	
0	0	0	0	0	476	511	217	195	
1	0	0	0	0	487	510	217	193	
2	0	0	0	0	496	515	217	193	
3	0	0	0	0	494	519	217	193	
4	0	0	0	0	494	512	217	192	
5	0	0	0	0	492	499	220	192	
6	0	0	0	0	496	504	216	192	
7	0	0	0	0	504	499	217	192	
8	0	0	0	0	497	496	217	192	
9	0	0	0	0	494	504	217	192	
10	0	0	0	0	492	499	220	192	
11	0	0	0	0	486	505	220	192	
12	0	0	0	0	481	499	220	192	
13	0	0	0	0	463	496	220	192	
14	0	0	0	0	448	504	220	192	
15	0	0	0	0	440	512	220	192	
0	0	0	0	0	430	519	220	192	
1	0	0	0	0	435	526	220	192	
2	0	0	0	0	440	527	220	188	
3	0	0	0	0	444	536	220	188	
4	0	0	0	0	455	536	220	188	
5	0	0	0	0	473	518	220	185	
6	0	0	0	0	476	504	217	184	
7	0	0	0	0	483	504	216	184	
8	0	0	0	0	508	504	217	184	
9	0	0	0	0	515	497	216	184	
10	0	0	0	0	527	487	216	184	
11	0	0	0	0	531	492	216	184	
12	0	0	0	0	527	497	216	184	
13	0	0	0	0	494	510	214	184	
14	0	0	0	0	487	519	211	184	
15	0	0	0	0	504	513	211	184	
0	0	0	0	0	487	515	209	177	
1	0	0	0	0	483	527	207	179	
2	0	0	0	0	492	527	207	179	
3	0	0	0	0	504	512	207	179	
4	0	0	0	0	519	504	207	179	
5	0	0	0	0	487	504	207	179	
6	0	0	0	0	455	511	199	177	
7	0	0	0	0	440	510	204	177	
8	0	0	0	0	419	504	199	177	
9	0	0	0	0	384	508	204	176	
10	0	0	0	0	412	515	199	177	
11	0	0	0	0	451	515	199	177	
12	0	0	0	0	423	511	199	176	
13	0	0	0	0	435	510	199	176	
14	0	0	0	0	465	512	199	176	
15	0	0	0	0	472	515	199	176	
0	0	0	0	0	480	497	199	177	
1	0	0	0	0	476	494	199	176	
2	0	0	0	0	472	496	199	176	
3	0	0	0	0	462	499	199	176	
4	0	0	0	0	455	504	204	176	
5	0	0	0	0	449	504	199	176	
6	0	0	0	0	472	499	204	176	
7	0	0	0	0	480	504	204	174	
8	0	0	0	0	480	510	204	174	
9	0	0	0	0	473	519	204	174	
10	0	0	0	0	472	519	199	176	
11	0	0	0	0	472	515	204	175	
12	0	0	0	0	487	510	204	176	
13	0	0	0	0	496	504	199	176	
14	0	0	0	0	472	508	199	176	
15	0	0	0	0	455	524	199	174	
0	0	0	0	0	448	519	204	174	
1	0	0	0	0	448	519	204	174	
2	0	0	0	0	455	519	204	172	
3	0	0	0	0	448	508	204	172	
4	0	0	0	0	481	494	206	174	
5	0	0	0	0	480	499	204	174	
6	0	0	0	0	483	508	206	174	
7	0	0	0	0	515	508	206	174	
8	0	0	0	0	527	505	206	172	
9	0	0	0	0	502	511	207	176	
10	0	0	0	0	487	524	207	175	
