# OpenSignals Text File Format. Version 1
# {"98:D3:31:B2:12:BA": {"position": 0, "device": "bitalino", "device name": "98:D3:31:B2:12:BA", "device connection": "BTH98:D3:31:B2:12:BA", "sampling rate": 1000, "resolution": [4, 1, 1, 1, 1, 10, 10, 10, 10, 6, 6], "firmware version": 771, "comments": "", "keywords": "", "mode": 0, "sync interval": 2, "date": "2022-7-18", "time": "13:24:4.897", "channels": [1, 2, 3, 4, 5, 6], "sensor": ["RAW", "RAW", "EMGBIT", "EMGBIT", "ACC", "RAW"], "label": ["A1", "A2", "A3", "A4", "A5", "A6"], "column": ["nSeq", "I1", "I2", "I3", "I4", "A1", "A2", "A3", "A4", "A5", "A6"], "special": [{}, {}, {}, {}, {}, {}], "digital IO": [0, 0, 0, 0, 1, 1, 1, 1]}}
# EndOfHeader
0	0	0	0	0	473	512	1	0	3	2			
1	0	0	0	0	480	510	0	0	3	2			
2	0	0	0	0	480	510	0	0	3	2			
3	0	0	0	0	480	511	0	0	3	2			
4	0	0	0	0	480	511	0	0	3	2			
5	0	0	0	0	480	508	0	0	3	2			
6	0	0	0	0	480	508	0	0	4	2			
7	0	0	0	0	473	510	0	0	3	2			
8	0	0	0	0	470	511	0	0	3	2			
9	0	0	0	0	467	510	0	0	4	2			
10	0	0	0	0	465	508	0	0	3	2			
11	0	0	0	0	467	508	0	0	3	2			
12	0	0	0	0	465	508	0	0	3	2			
13	0	0	0	0	470	510	0	0	3	2			
14	0	0	0	0	472	512	0	0	3	2			
15	0	0	0	0	476	510	0	0	3	2			
0	0	0	0	0	483	511	0	0	3	2			
1	0	0	0	0	481	508	0	0	3	2			
2	0	0	0	0	483	504	0	0	3	2			
3	0	0	0	0	478	511	0	0	3	2			
4	0	0	0	0	478	504	0	0	4	2			
5	0	0	0	0	480	508	0	0	3	2			
6	0	0	0	0	478	511	0	0	3	2			
7	0	0	0	0	478	512	0	0	3	2			
8	0	0	0	0	480	511	0	0	3	2			
9	0	0	0	0	480	511	0	0	3	2			
10	0	0	0	0	480	504	0	0	4	2			
11	0	0	0	0	476	508	0	0	4	2			
12	0	0	0	0	473	510	0	0	3	2			
13	0	0	0	0	473	511	0	0	3	2			
14	0	0	0	0	473	505	0	0	3	2			
15	0	0	0	0	476	510	0	0	4	2			
0	0	0	0	0	467	510	0	0	3	2			
1	0	0	0	0	467	508	0	0	3	2			
2	0	0	0	0	467	511	0	0	3	2			
3	0	0	0	0	467	510	0	0	3	2			
4	0	0	0	0	472	508	0	0	3	2			
5	0	0	0	0	463	511	0	0	3	2			
6	0	0	0	0	463	513	0	0	4	2			
7	0	0	0	0	473	515	0	0	3	2			
8	0	0	0	0	481	513	0	0	3	2			
9	0	0	0	0	486	511	0	0	3	2			
10	0	0	0	0	487	512	0	0	3	2			
11	0	0	0	0	476	519	0	0	3	2			
12	0	0	0	0	476	512	0	0	3	2			
13	0	0	0	0	480	508	0	0	3	2			
14	0	0	0	0	487	512	0	0	3	2			
15	0	0	0	0	481	511	0	0	3	2			
0	0	0	0	0	481	508	0	0	3	2			
1	0	0	0	0	480	512	0	0	3	2			
2	0	0	0	0	480	510	0	0	3	2			
3	0	0	0	0	483	510	0	0	3	2			
4	0	0	0	0	480	510	0	0	3	2			
5	0	0	0	0	472	511	0	0	3	2			
6	0	0	0	0	472	513	0	0	4	2			
7	0	0	0	0	472	510	0	0	3	2			
8	0	0	0	0	472	510	0	0	3	2			
9	0	0	0	0	472	510	0	0	4	2			
10	0	0	0	0	472	511	0	0	3	2			
11	0	0	0	0	472	511	0	0	3	2			
12	0	0	0	0	476	511	0	0	3	2			
13	0	0	0	0	481	511	0	0	3	2			
14	0	0	0	0	476	511	0	0	3	2			
15	0	0	0	0	481	504	0	0	3	2			
0	0	0	0	0	480	508	0	0	3	2			
1	0	0	0	0	476	504	0	0	3	2			
2	0	0	0	0	480	504	0	0	3	2			
3	0	0	0	0	480	508	0	0	3	2			
4	0	0	0	0	483	508	0	0	4	2			
5	0	0	0	0	478	511	0	0	3	2			
6	0	0	0	0	476	508	0	0	3	2			
7	0	0	0	0	478	512	0	0	3	2			
8	0	0	0	0	467	511	0	0	3	2			
9	0	0	0	0	467	508	0	0	4	2			
10	0	0	0	0	472	512	0	0	3	2			
11	0	0	0	0	472	511	0	0	3	2			
12	0	0	0	0	476	510	0	0	3	2			
13	0	0	0	0	470	512	0	0	3	2			
14	0	0	0	0	472	513	0	0	3	2			
15	0	0	0	0	476	513	0	0	3	2			
0	0	0	0	0	476	512	0	0	3	2			
1	0	0	0	0	480	513	0	0	3	2			
2	0	0	0	0	476	512	0	0	3	2			
3	0	0	0	0	476	510	0	0	3	2			
4	0	0	0	0	480	512	0	0	3	2			
5	0	0	0	0	481	508	0	0	3	2			
6	0	0	0	0	487	508	0	0	3	2			
7	0	0	0	0	487	511	0	0	3	2			
8	0	0	0	0	480	513	0	0	3	2			
9	0	0	0	0	472	510	0	0	3	2			
10	0	0	0	0	472	504	0	0	3	2			
11	0	0	0	0	476	508	0	0	3	2			
12	0	0	0	0	472	508	0	0	3	2			
13	0	0	0	0	472	511	0	0	3	2			
14	0	0	0	0	472	511	0	0	3	2			
15	0	0	0	0	472	510	0	0	3	2			
0	0	0	0	0	476	510	0	0	3	2			
1	0	0	0	0	483	510	0	0	3	2			
2	0	0	0	0	480	515	0	0	3	2			
3	0	0	0	0	472	508	0	0	4	2			
4	0	0	0	0	476	504	0	0	3	2			
5	0	0	0	0	476	508	0	0	4	2			
6	0	0	0	0	472	508	0	0	3	2			
7	0	0	0	0	480	508	0	0	3	2			
8	0	0	0	0	480	508	0	0	3	2			
9	0	0	0	0	473	504	0	0	3	2			
10	0	0	0	0	478	504	0	0	3	2			
11	0	0	0	0	473	511	0	0	3	2			
12	0	0	0	0	472	511	0	0	3	2			
13	0	0	0	0	472	511	0	0	3	2			
14	0	0	0	0	472	508	0	0	3	2			
15	0	0	0	0	476	508	0	0	3	2			
0	0	0	0	0	467	510	0	0	3	2			
1	0	0	0	0	467	504	0	0	4	2			
2	0	0	0	0	460	511	0	0	3	2			
3	0	0	0	0	462	504	0	0	3	2			
4	0	0	0	0	463	508	0	0	3	2			
5	0	0	0	0	463	511	0	0	4	2			
6	0	0	0	0	467	511	0	0	4	2			
7	0	0	0	0	472	512	0	0	3	2			
8	0	0	0	0	487	515	0	0	3	2			
9	0	0	0	0	492	510	0	0	3	2			
10	0	0	0	0	483	510	0	0	3	2			
11	0	0	0	0	480	511	0	0	3	2			
12	0	0	0	0	476	512	0	0	3	2			
13	0	0	0	0	476	512	0	0	4	2			
14	0	0	0	0	480	511	0	0	3	2			
15	0	0	0	0	480	511	0	0	3	2			
0	0	0	0	0	480	511	0	0	3	2			
1	0	0	0	0	480	511	0	0	3	2			
2	0	0	0	0	481	511	0	0	3	2			
3	0	0	0	0	480	508	0	0	3	2			
4	0	0	0	0	472	508	0	0	3	2			
5	0	0	0	0	472	511	0	0	3	2			
6	0	0	0	0	467	510	0	0	3	2			
7	0	0	0	0	465	508	0	0	3	2			
8	0	0	0	0	472	510	0	0	3	2			
9	0	0	0	0	472	511	0	0	3	2			
10	0	0	0	0	478	511	0	0	4	2			
11	0	0	0	0	478	511	0	0	3	2			
12	0	0	0	0	472	508	0	0	3	2			
13	0	0	0	0	476	504	0	0	3	2			
14	0	0	0	0	472	508	0	0	3	2			
15	0	0	0	0	476	511	0	0	3	2			
0	0	0	0	0	478	508	0	0	3	2			
1	0	0	0	0	478	504	0	0	3	2			
2	0	0	0	0	481	504	0	0	3	2			
3	0	0	0	0	480	508	0	0	3	2			
4	0	0	0	0	480	510	0	0	3	2			
5	0	0	0	0	476	510	0	0	3	2			
6	0	0	0	0	472	508	0	0	3	2			
7	0	0	0	0	472	508	0	0	3	2			
8	0	0	0	0	472	511	0	0	3	2			
9	0	0	0	0	480	508	0	0	3	2			
10	0	0	0	0	480	508	0	0	3	2			
11	0	0	0	0	478	508	0	0	4	2			
12	0	0	0	0	480	505	0	0	3	2			
13	0	0	0	0	476	510	0	0	3	2			
14	0	0	0	0	476	511	0	0	3	2			
15	0	0	0	0	472	510	0	0	3	2			
0	0	0	0	0	472	508	0	0	3	2			
1	0	0	0	0	476	508	0	0	3	2			
2	0	0	0	0	472	511	0	0	3	2			
3	0	0	0	0	472	511	0	0	3	2			
4	0	0	0	0	473	511	0	0	3	2			
5	0	0	0	0	480	510	0	0	3	2			
6	0	0	0	0	480	504	0	0	3	2			
7	0	0	0	0	480	504	0	0	3	2			
8	0	0	0	0	480	504	0	0	3	2			
9	0	0	0	0	480	508	0	0	3	2			
10	0	0	0	0	483	510	0	0	3	2			
11	0	0	0	0	480	504	0	0	3	2			
12	0	0	0	0	480	504	0	0	3	2			
13	0	0	0	0	472	511	0	0	3	2			
14	0	0	0	0	472	508	0	0	3	2			
15	0	0	0	0	472	511	0	0	3	2			
0	0	0	0	0	467	504	0	0	3	2			
1	0	0	0	0	472	508	0	0	3	2			
2	0	0	0	0	463	515	0	0	3	2			
3	0	0	0	0	472	508	0	0	3	2			
4	0	0	0	0	480	512	0	0	3	2			
5	0	0	0	0	480	510	0	0	3	2			
6	0	0	0	0	483	508	0	0	3	2			
7	0	0	0	0	483	515	0	0	3	2			
8	0	0	0	0	494	511	0	0	3	2			
9	0	0	0	0	496	513	0	0	3	2			
10	0	0	0	0	487	508	0	0	3	2			
11	0	0	0	0	480	510	0	0	3	2			
12	0	0	0	0	483	508	0	0	3	2			
13	0	0	0	0	480	512	0	0	3	2			
14	0	0	0	0	480	511	0	0	3	2			
15	0	0	0	0	480	515	0	0	3	2			
0	0	0	0	0	467	511	0	0	3	2			
1	0	0	0	0	463	511	0	0	3	2			
2	0	0	0	0	465	512	0	0	3	2			
3	0	0	0	0	467	512	0	1	3	2			
4	0	0	0	0	472	513	0	0	3	2			
5	0	0	0	0	463	513	0	0	3	2			
6	0	0	0	0	463	513	0	0	4	2			
7	0	0	0	0	476	515	0	0	4	2			
8	0	0	0	0	483	511	0	0	3	2			
9	0	0	0	0	483	511	0	0	3	2			
10	0	0	0	0	480	512	0	0	3	2			
11	0	0	0	0	473	515	0	0	3	2			
12	0	0	0	0	473	513	0	0	3	2			
13	0	0	0	0	476	511	0	0	3	2			
14	0	0	0	0	480	512	0	0	3	2			
15	0	0	0	0	476	511	0	0	3	2			
0	0	0	0	0	483	504	0	0	3	2			
1	0	0	0	0	480	510	0	0	3	2			
2	0	0	0	0	476	499	0	0	3	2			
3	0	0	0	0	478	504	0	0	3	2			
4	0	0	0	0	472	508	0	0	3	2			
5	0	0	0	0	470	508	0	0	3	2			
6	0	0	0	0	472	508	0	0	3	2			
7	0	0	0	0	472	508	0	0	3	2			
8	0	0	0	0	478	510	0	0	3	2			
9	0	0	0	0	473	511	0	0	3	2			
10	0	0	0	0	476	512	0	0	3	2			
11	0	0	0	0	476	511	0	0	3	2			
12	0	0	0	0	476	512	0	0	3	2			
13	0	0	0	0	480	511	0	0	3	2			
14	0	0	0	0	472	512	0	0	3	2			
15	0	0	0	0	472	511	0	0	3	2			
0	0	0	0	0	476	508	0	0	3	2			
1	0	0	0	0	476	508	0	0	3	2			
2	0	0	0	0	481	508	0	0	4	2			
3	0	0	0	0	481	508	0	0	3	2			
4	0	0	0	0	483	508	0	0	3	2			
5	0	0	0	0	481	508	0	0	3	2			
6	0	0	0	0	478	505	0	0	3	2			
7	0	0	0	0	476	504	0	0	3	2			
8	0	0	0	0	472	505	0	0	3	2			
9	0	0	0	0	472	505	0	0	3	2			
10	0	0	0	0	472	510	0	0	3	2			
11	0	0	0	0	472	510	0	0	3	2			
12	0	0	0	0	478	508	0	0	3	2			
13	0	0	0	0	472	510	0	0	3	2			
14	0	0	0	0	467	510	0	0	3	2			
15	0	0	0	0	472	510	0	0	3	2			
0	0	0	0	0	473	510	0	0	3	2			
1	0	0	0	0	472	504	0	0	3	2			
2	0	0	0	0	476	504	0	0	3	2			
3	0	0	0	0	472	512	0	0	3	2			
4	0	0	0	0	473	504	0	0	3	2			
5	0	0	0	0	480	510	0	0	3	2			
6	0	0	0	0	480	504	0	0	3	2			
7	0	0	0	0	480	504	0	0	3	2			
8	0	0	0	0	472	512	0	0	3	2			
9	0	0	0	0	480	505	0	0	3	2			
10	0	0	0	0	483	508	0	0	3	2			
11	0	0	0	0	480	505	0	0	3	2			
12	0	0	0	0	472	512	0	0	3	2			
13	0	0	0	0	476	508	0	0	3	2			
14	0	0	0	0	472	513	0	0	4	2			
15	0	0	0	0	476	510	0	0	3	2			
0	0	0	0	0	480	511	0	0	3	2			
1	0	0	0	0	476	512	0	0	3	2			
2	0	0	0	0	476	515	0	0	3	2			
3	0	0	0	0	472	518	0	0	4	2			
4	0	0	0	0	476	513	0	0	3	2			
5	0	0	0	0	480	512	0	0	3	2			
6	0	0	0	0	478	513	0	0	3	2			
7	0	0	0	0	476	513	0	0	3	2			
8	0	0	0	0	476	512	0	0	3	2			
9	0	0	0	0	476	512	0	0	3	2			
10	0	0	0	0	476	510	0	0	3	2			
11	0	0	0	0	467	511	0	0	3	2			
12	0	0	0	0	462	511	0	0	3	2			
13	0	0	0	0	455	512	0	0	3	2			
14	0	0	0	0	460	512	0	0	3	2			
15	0	0	0	0	455	505	0	0	3	2			
0	0	0	0	0	467	504	0	0	3	2			
1	0	0	0	0	465	511	0	0	4	2			
2	0	0	0	0	476	505	0	0	3	2			
3	0	0	0	0	492	504	0	0	3	2			
4	0	0	0	0	504	511	0	0	3	2			
5	0	0	0	0	496	508	0	0	3	2			
6	0	0	0	0	487	511	0	0	3	2			
7	0	0	0	0	480	511	0	0	3	2			
8	0	0	0	0	480	508	0	0	3	2			
9	0	0	0	0	483	512	0	0	3	2			
10	0	0	0	0	478	512	0	0	3	2			
11	0	0	0	0	480	508	0	0	4	2			
12	0	0	0	0	480	510	0	0	3	2			
13	0	0	0	0	481	504	0	0	3	2			
14	0	0	0	0	481	510	0	0	3	2			
15	0	0	0	0	476	511	0	0	3	2			
0	0	0	0	0	480	508	0	0	3	2			
1	0	0	0	0	472	510	0	0	3	2			
2	0	0	0	0	472	508	0	0	3	2			
3	0	0	0	0	476	508	0	0	3	2			
4	0	0	0	0	473	510	0	0	3	2			
5	0	0	0	0	476	511	0	0	3	2			
6	0	0	0	0	476	512	0	0	3	2			
7	0	0	0	0	476	510	0	0	3	2			
8	0	0	0	0	480	511	0	0	3	2			
9	0	0	0	0	472	510	0	0	3	2			
10	0	0	0	0	472	510	0	0	3	2			
11	0	0	0	0	476	508	0	0	4	2			
12	0	0	0	0	480	511	0	0	3	2			
13	0	0	0	0	478	505	0	0	3	2			
14	0	0	0	0	480	504	0	0	3	2			
15	0	0	0	0	472	511	0	0	3	2			
0	0	0	0	0	472	508	0	0	3	2			
1	0	0	0	0	472	504	0	0	3	2			
2	0	0	0	0	478	512	0	0	3	2			
3	0	0	0	0	476	511	0	0	3	2			
4	0	0	0	0	478	511	0	0	3	2			
5	0	0	0	0	476	512	0	0	3	2			
6	0	0	0	0	476	508	0	0	3	2			
7	0	0	0	0	478	511	0	0	3	2			
8	0	0	0	0	472	510	0	0	3	2			
9	0	0	0	0	480	508	0	0	3	2			
10	0	0	0	0	472	511	0	0	3	2			
11	0	0	0	0	472	504	0	0	3	2			
12	0	0	0	0	472	505	0	0	3	2			
13	0	0	0	0	467	508	0	0	3	2			
14	0	0	0	0	467	508	0	0	3	2			
15	0	0	0	0	472	511	0	0	3	2			
0	0	0	0	0	480	513	0	0	3	2			
1	0	0	0	0	480	508	0	0	3	2			
2	0	0	0	0	472	508	0	0	3	2			
3	0	0	0	0	473	511	0	0	3	2			
4	0	0	0	0	478	510	0	0	3	2			
5	0	0	0	0	480	511	0	0	3	2			
6	0	0	0	0	483	510	0	0	3	2			
7	0	0	0	0	480	510	0	0	3	2			
8	0	0	0	0	480	511	0	0	3	2			
9	0	0	0	0	480	512	0	0	3	2			
10	0	0	0	0	480	512	0	0	3	2			
11	0	0	0	0	476	504	0	0	3	2			
12	0	0	0	0	480	504	0	0	3	2			
13	0	0	0	0	476	511	0	0	3	2			
14	0	0	0	0	480	504	0	0	3	2			
15	0	0	0	0	480	510	0	0	3	2			
0	0	0	0	0	472	504	0	0	3	2			
1	0	0	0	0	467	508	0	0	4	2			
2	0	0	0	0	472	508	0	0	3	2			
3	0	0	0	0	467	512	0	0	3	2			
4	0	0	0	0	472	511	0	0	3	2			
5	0	0	0	0	472	512	0	0	3	2			
6	0	0	0	0	472	512	0	0	3	2			
7	0	0	0	0	472	513	0	0	4	2			
8	0	0	0	0	476	512	0	0	3	2			
9	0	0	0	0	478	512	0	0	3	2			
10	0	0	0	0	480	512	0	0	3	2			
11	0	0	0	0	476	512	0	0	3	2			
12	0	0	0	0	476	508	0	0	3	2			
13	0	0	0	0	476	511	0	0	3	2			
14	0	0	0	0	472	504	0	0	3	2			
15	0	0	0	0	476	504	0	0	3	2			
0	0	0	0	0	476	508	0	0	3	2			
1	0	0	0	0	472	511	0	0	3	2			
2	0	0	0	0	467	508	0	0	3	2			
3	0	0	0	0	467	504	0	0	3	2			
4	0	0	0	0	472	504	0	0	3	2			
5	0	0	0	0	472	508	0	0	3	2			
6	0	0	0	0	472	510	0	0	3	2			
7	0	0	0	0	480	511	0	0	3	2			
8	0	0	0	0	480	512	0	0	4	2			
9	0	0	0	0	476	508	0	0	3	2			
10	0	0	0	0	472	510	0	0	3	2			
11	0	0	0	0	476	512	0	0	3	2			
12	0	0	0	0	476	512	0	0	3	2			
13	0	0	0	0	472	510	0	0	3	2			
14	0	0	0	0	473	510	0	0	3	2			
15	0	0	0	0	472	508	0	0	3	2			
0	0	0	0	0	476	510	0	0	3	2			
1	0	0	0	0	476	511	0	0	3	2			
2	0	0	0	0	481	511	0	0	3	2			
3	0	0	0	0	480	504	0	0	3	2			
4	0	0	0	0	472	508	0	0	3	2			
5	0	0	0	0	480	504	0	0	3	2			
6	0	0	0	0	476	508	0	0	3	2			
7	0	0	0	0	472	505	0	0	3	2			
8	0	0	0	0	473	508	0	0	3	2			
9	0	0	0	0	467	510	0	0	3	2			
10	0	0	0	0	472	505	0	0	3	2			
11	0	0	0	0	470	515	0	0	4	2			
12	0	0	0	0	473	505	0	0	4	2			
13	0	0	0	0	481	504	0	0	3	2			
14	0	0	0	0	486	504	0	0	3	2			
15	0	0	0	0	480	511	0	0	4	2			
0	0	0	0	0	481	508	0	0	3	2			
1	0	0	0	0	492	504	0	0	3	2			
2	0	0	0	0	487	508	0	0	3	2			
3	0	0	0	0	480	511	0	0	3	2			
4	0	0	0	0	476	512	0	0	3	2			
5	0	0	0	0	472	513	0	0	3	2			
6	0	0	0	0	472	511	0	0	3	2			
7	0	0	0	0	472	511	0	0	3	2			
8	0	0	0	0	476	511	0	0	3	2			
9	0	0	0	0	472	515	0	0	3	2			
10	0	0	0	0	472	511	0	0	3	2			
11	0	0	0	0	476	508	0	0	3	2			
12	0	0	0	0	480	510	0	0	3	2			
13	0	0	0	0	480	512	0	0	3	2			
14	0	0	0	0	480	515	0	0	3	2			
15	0	0	0	0	481	513	0	0	4	2			
0	0	0	0	0	480	512	0	0	3	2			
1	0	0	0	0	481	511	0	0	4	2			
2	0	0	0	0	483	510	0	0	3	2			
3	0	0	0	0	480	512	0	0	3	2			
4	0	0	0	0	480	508	0	0	3	2			
5	0	0	0	0	480	508	0	0	3	2			
6	0	0	0	0	478	504	0	0	3	2			
7	0	0	0	0	476	505	0	0	3	2			
8	0	0	0	0	472	504	0	0	3	2			
9	0	0	0	0	472	511	0	0	3	2			
10	0	0	0	0	476	508	0	0	3	2			
11	0	0	0	0	480	505	0	0	3	2			
12	0	0	0	0	472	511	0	0	3	2			
13	0	0	0	0	472	510	0	0	3	2			
14	0	0	0	0	472	511	0	0	3	2			
15	0	0	0	0	472	508	0	0	3	2			
0	0	0	0	0	476	508	0	0	3	2			
1	0	0	0	0	472	513	0	0	3	2			
2	0	0	0	0	467	515	0	0	3	2			
3	0	0	0	0	463	511	0	0	3	2			
4	0	0	0	0	465	510	0	0	3	2			
5	0	0	0	0	472	511	0	0	3	2			
6	0	0	0	0	472	508	0	0	3	2			
7	0	0	0	0	480	499	0	0	3	2			
8	0	0	0	0	480	508	0	0	3	2			
9	0	0	0	0	478	504	0	0	3	2			
10	0	0	0	0	483	504	0	0	3	2			
11	0	0	0	0	487	508	0	0	3	2			
12	0	0	0	0	483	510	0	0	3	2			
13	0	0	0	0	480	511	0	0	3	2			
14	0	0	0	0	476	508	0	0	3	2			
15	0	0	0	0	480	508	0	0	3	2			
0	0	0	0	0	476	511	0	0	4	2			
1	0	0	0	0	481	504	0	0	3	2			
2	0	0	0	0	480	512	0	0	3	2			
3	0	0	0	0	480	504	0	0	3	2			
4	0	0	0	0	480	504	0	0	3	2			
5	0	0	0	0	472	511	0	0	3	2			
6	0	0	0	0	476	504	0	0	3	2			
7	0	0	0	0	467	511	0	0	3	2			
8	0	0	0	0	467	508	0	0	3	2			
9	0	0	0	0	472	511	0	0	3	2			
10	0	0	0	0	465	512	0	0	3	2			
11	0	0	0	0	467	508	0	0	3	2			
12	0	0	0	0	467	511	0	0	3	2			
13	0	0	0	0	472	508	0	0	3	2			
14	0	0	0	0	476	510	0	0	3	2			
15	0	0	0	0	472	512	0	0	3	2			
0	0	0	0	0	480	508	0	0	3	2			
1	0	0	0	0	476	512	0	0	3	2			
2	0	0	0	0	476	508	0	0	3	2			
3	0	0	0	0	476	505	0	0	3	2			
4	0	0	0	0	472	508	0	0	3	2			
5	0	0	0	0	472	512	0	0	3	2			
6	0	0	0	0	472	511	0	0	3	2			
7	0	0	0	0	476	510	0	0	3	2			
8	0	0	0	0	480	511	0	0	3	2			
9	0	0	0	0	476	510	0	0	3	2			
10	0	0	0	0	478	508	0	0	3	2			
11	0	0	0	0	480	511	0	0	3	2			
12	0	0	0	0	480	511	0	0	3	2			
13	0	0	0	0	481	512	0	0	3	2			
14	0	0	0	0	480	513	0	0	3	2			
15	0	0	0	0	480	513	0	0	3	2			
0	0	0	0	0	480	512	0	0	3	2			
1	0	0	0	0	476	510	0	0	3	2			
2	0	0	0	0	472	511	0	0	3	2			
3	0	0	0	0	463	510	0	0	3	2			
4	0	0	0	0	465	508	0	0	3	2			
5	0	0	0	0	472	511	0	0	3	2			
6	0	0	0	0	476	510	0	0	3	2			
7	0	0	0	0	476	504	0	0	3	2			
8	0	0	0	0	472	510	0	0	3	2			
9	0	0	0	0	480	508	0	0	3	2			
10	0	0	0	0	487	511	0	0	3	2			
11	0	0	0	0	492	508	0	0	4	2			
12	0	0	0	0	483	510	0	0	3	2			
13	0	0	0	0	473	512	0	0	3	2			
14	0	0	0	0	472	512	0	0	3	2			
15	0	0	0	0	476	512	0	0	4	2			
0	0	0	0	0	473	511	0	0	3	2			
1	0	0	0	0	478	508	0	0	3	2			
2	0	0	0	0	480	510	0	0	3	2			
3	0	0	0	0	472	515	0	0	3	2			
4	0	0	0	0	478	510	0	0	3	2			
5	0	0	0	0	483	508	0	0	3	2			
6	0	0	0	0	478	504	0	0	3	2			
7	0	0	0	0	476	508	0	0	3	2			
8	0	0	0	0	480	508	0	0	3	2			
9	0	0	0	0	480	512	0	0	3	2			
10	0	0	0	0	480	508	0	0	3	2			
11	0	0	0	0	483	508	0	0	3	2			
12	0	0	0	0	480	511	0	0	3	2			
13	0	0	0	0	476	511	0	0	3	2			
14	0	0	0	0	476	511	0	0	3	2			
15	0	0	0	0	472	511	0	0	3	2			
0	0	0	0	0	472	508	0	0	3	2			
1	0	0	0	0	472	511	0	0	3	2			
2	0	0	0	0	472	510	0	0	3	2			
3	0	0	0	0	472	512	0	0	4	2			
4	0	0	0	0	476	511	0	0	4	2			
5	0	0	0	0	480	508	0	0	3	2			
6	0	0	0	0	472	510	0	0	3	2			
7	0	0	0	0	472	511	0	0	3	2			
8	0	0	0	0	467	511	0	0	3	2			
9	0	0	0	0	467	510	0	0	3	2			
10	0	0	0	0	472	510	0	0	3	2			
11	0	0	0	0	472	508	0	0	3	2			
12	0	0	0	0	472	508	0	0	3	2			
13	0	0	0	0	473	508	0	0	3	2			
14	0	0	0	0	480	504	0	0	3	2			
15	0	0	0	0	481	508	0	0	3	2			
0	0	0	0	0	480	505	0	0	3	2			
1	0	0	0	0	480	504	0	0	3	2			
2	0	0	0	0	473	508	0	0	3	2			
3	0	0	0	0	472	508	0	0	4	2			
4	0	0	0	0	472	508	0	0	3	2			
5	0	0	0	0	467	511	0	0	4	2			
6	0	0	0	0	467	511	0	0	3	2			
7	0	0	0	0	467	510	0	0	3	2			
8	0	0	0	0	472	508	0	0	3	2			
9	0	0	0	0	480	510	0	0	3	2			
10	0	0	0	0	476	512	0	0	3	2			
11	0	0	0	0	476	512	0	0	3	2			
12	0	0	0	0	478	511	0	0	3	2			
13	0	0	0	0	476	508	0	0	3	2			
14	0	0	0	0	480	508	0	0	3	2			
15	0	0	0	0	480	508	0	0	3	2			
0	0	0	0	0	480	511	0	0	3	2			
1	0	0	0	0	480	511	0	0	3	2			
2	0	0	0	0	480	508	0	0	3	2			
3	0	0	0	0	483	508	0	0	3	2			
4	0	0	0	0	480	510	0	0	3	2			
5	0	0	0	0	480	508	0	0	3	2			
6	0	0	0	0	478	508	0	0	3	2			
7	0	0	0	0	478	508	0	0	3	2			
8	0	0	0	0	480	508	0	0	3	2			
9	0	0	0	0	472	508	0	0	4	2			
10	0	0	0	0	472	505	0	0	3	2			
11	0	0	0	0	465	508	0	0	3	2			
12	0	0	0	0	467	504	0	0	3	2			
13	0	0	0	0	476	504	0	0	3	2			
14	0	0	0	0	472	508	0	0	3	2			
15	0	0	0	0	480	504	0	0	3	2			
0	0	0	0	0	480	508	0	0	3	2			
1	0	0	0	0	473	504	0	0	3	2			
2	0	0	0	0	480	508	0	0	3	2			
3	0	0	0	0	473	508	0	0	3	2			
4	0	0	0	0	480	504	0	0	3	2			
5	0	0	0	0	473	510	0	0	3	2			
6	0	0	0	0	472	504	0	0	3	2			
7	0	0	0	0	480	508	0	0	3	2			
8	0	0	0	0	472	511	0	0	3	2			
9	0	0	0	0	476	505	0	0	3	2			
10	0	0	0	0	472	512	0	0	3	2			
11	0	0	0	0	472	505	0	0	3	2			
12	0	0	0	0	478	511	0	0	3	2			
13	0	0	0	0	476	513	0	0	4	2			
14	0	0	0	0	476	515	0	0	3	2			
15	0	0	0	0	480	519	0	0	3	2			
0	0	0	0	0	480	513	0	0	3	2			
1	0	0	0	0	481	515	0	0	4	2			
2	0	0	0	0	476	515	0	0	3	2			
3	0	0	0	0	476	511	0	0	3	2			
4	0	0	0	0	480	512	0	0	3	2			
5	0	0	0	0	476	511	0	0	3	2			
6	0	0	0	0	480	508	0	0	3	2			
7	0	0	0	0	481	508	0	0	3	2			
8	0	0	0	0	476	513	0	0	3	2			
9	0	0	0	0	476	510	0	0	3	2			
10	0	0	0	0	476	508	0	0	3	2			
11	0	0	0	0	480	508	0	0	3	2			
12	0	0	0	0	472	511	0	0	3	2			
13	0	0	0	0	472	512	0	0	3	2			
14	0	0	0	0	472	513	0	0	3	2			
15	0	0	0	0	472	508	0	0	3	2			
0	0	0	0	0	476	510	0	0	3	2			
1	0	0	0	0	480	508	0	0	4	2			
2	0	0	0	0	476	515	0	0	3	2			
3	0	0	0	0	476	510	0	0	3	2			
4	0	0	0	0	476	508	0	0	3	2			
5	0	0	0	0	480	508	0	0	3	2			
6	0	0	0	0	472	510	0	0	3	2			
7	0	0	0	0	472	511	0	0	3	2			
8	0	0	0	0	473	511	0	0	3	2			
9	0	0	0	0	476	508	0	0	3	2			
10	0	0	0	0	480	510	0	0	3	2			
11	0	0	0	0	472	510	0	0	3	2			
12	0	0	0	0	472	504	0	0	3	2			
13	0	0	0	0	473	508	0	0	3	2			
14	0	0	0	0	476	510	0	0	3	2			
15	0	0	0	0	472	504	0	0	3	2			
0	0	0	0	0	472	505	0	0	3	2			
1	0	0	0	0	476	504	0	0	3	2			
2	0	0	0	0	472	511	0	0	3	2			
3	0	0	0	0	472	510	0	0	3	2			
4	0	0	0	0	476	510	0	0	3	2			
5	0	0	0	0	470	513	0	0	3	2			
6	0	0	0	0	463	515	0	0	3	2			
7	0	0	0	0	463	513	0	0	4	2			
8	0	0	0	0	467	511	0	0	3	2			
9	0	0	0	0	472	512	0	0	3	2			
10	0	0	0	0	472	513	0	0	3	2			
11	0	0	0	0	472	512	0	0	3	2			
12	0	0	0	0	480	511	0	0	3	2			
13	0	0	0	0	494	508	0	0	3	2			
14	0	0	0	0	499	511	0	0	3	2			
15	0	0	0	0	486	510	0	0	3	2			
0	0	0	0	0	486	504	0	0	3	2			
1	0	0	0	0	478	511	0	0	3	2			
2	0	0	0	0	480	504	0	0	3	2			
3	0	0	0	0	483	504	0	0	3	2			
4	0	0	0	0	481	505	0	0	4	2			
5	0	0	0	0	480	510	0	0	3	2			
6	0	0	0	0	480	513	0	0	4	2			
7	0	0	0	0	476	512	0	0	3	2			
8	0	0	0	0	480	512	0	0	3	2			
9	0	0	0	0	472	510	0	0	3	2			
10	0	0	0	0	480	504	0	0	3	2			
11	0	0	0	0	478	512	0	0	3	2			
12	0	0	0	0	480	504	0	0	3	2			
13	0	0	0	0	483	508	0	0	3	2			
14	0	0	0	0	487	510	0	0	3	2			
15	0	0	0	0	480	515	0	0	3	2			
0	0	0	0	0	480	508	0	0	3	2			
1	0	0	0	0	480	504	0	0	3	2			
2	0	0	0	0	480	511	0	0	3	2			
3	0	0	0	0	476	510	0	0	3	2			
4	0	0	0	0	476	511	0	0	3	2			
5	0	0	0	0	476	512	0	0	4	2			
6	0	0	0	0	476	511	0	0	3	2			
7	0	0	0	0	478	511	0	0	3	2			
8	0	0	0	0	472	512	0	0	3	2			
9	0	0	0	0	478	508	0	0	3	2			
10	0	0	0	0	472	512	0	0	3	2			
11	0	0	0	0	472	504	0	0	3	2			
12	0	0	0	0	476	504	0	0	3	2			
13	0	0	0	0	472	508	0	0	3	2			
14	0	0	0	0	472	510	0	0	3	2			
15	0	0	0	0	476	511	0	0	3	2			
0	0	0	0	0	478	511	0	0	3	2			
1	0	0	0	0	476	508	0	0	3	2			
2	0	0	0	0	472	511	0	0	3	2			
3	0	0	0	0	472	510	0	0	3	2			
4	0	0	0	0	472	512	0	0	3	2			
5	0	0	0	0	472	508	0	0	3	2			
6	0	0	0	0	480	510	0	0	4	2			
7	0	0	0	0	476	511	0	0	3	2			
8	0	0	0	0	476	511	0	0	3	2			
9	0	0	0	0	480	511	0	0	4	2			
10	0	0	0	0	480	511	0	0	3	2			
11	0	0	0	0	476	504	0	0	3	2			
12	0	0	0	0	472	505	0	0	3	2			
13	0	0	0	0	476	504	0	0	3	2			
14	0	0	0	0	467	511	0	0	4	2			
15	0	0	0	0	472	504	0	0	3	2			
0	0	0	0	0	473	505	0	0	3	2			
1	0	0	0	0	472	512	0	0	3	2			
2	0	0	0	0	472	512	0	0	3	2			
3	0	0	0	0	472	515	0	0	3	2			
4	0	0	0	0	472	511	0	0	4	2			
5	0	0	0	0	480	511	0	0	3	2			
6	0	0	0	0	480	513	0	0	3	2			
7	0	0	0	0	476	513	0	0	3	2			
8	0	0	0	0	473	515	0	0	3	2			
9	0	0	0	0	476	512	0	0	3	2			
10	0	0	0	0	480	508	0	0	3	2			
11	0	0	0	0	476	510	0	0	3	2			
12	0	0	0	0	472	508	0	0	3	2			
13	0	0	0	0	476	510	0	0	3	2			
14	0	0	0	0	480	510	0	0	3	2			
15	0	0	0	0	480	504	0	0	3	2			
0	0	0	0	0	483	504	0	0	3	2			
1	0	0	0	0	480	508	0	0	3	2			
2	0	0	0	0	476	504	0	0	3	2			
3	0	0	0	0	480	504	0	0	3	2			
4	0	0	0	0	480	508	0	0	3	2			
5	0	0	0	0	476	511	0	0	3	2			
6	0	0	0	0	476	511	0	0	4	2			
7	0	0	0	0	480	512	0	0	3	2			
8	0	0	0	0	480	513	0	0	3	2			
9	0	0	0	0	480	508	0	0	3	2			
10	0	0	0	0	472	510	0	0	3	2			
11	0	0	0	0	472	512	0	0	3	2			
12	0	0	0	0	472	512	0	0	3	2			
13	0	0	0	0	476	510	0	0	3	2			
14	0	0	0	0	480	508	0	0	4	2			
15	0	0	0	0	480	508	0	0	3	2			
0	0	0	0	0	472	515	0	0	3	2			
1	0	0	0	0	472	510	0	0	3	2			
2	0	0	0	0	472	504	0	0	3	2			
3	0	0	0	0	467	510	0	0	3	2			
4	0	0	0	0	463	508	0	0	3	2			
5	0	0	0	0	467	511	0	0	3	2			
6	0	0	0	0	470	513	0	0	4	2			
7	0	0	0	0	472	510	0	0	3	2			
8	0	0	0	0	476	510	0	0	3	2			
9	0	0	0	0	472	511	0	0	3	2			
10	0	0	0	0	480	508	0	0	3	2			
11	0	0	0	0	476	513	0	0	4	2			
12	0	0	0	0	476	504	0	0	3	2			
13	0	0	0	0	476	504	0	0	4	2			
14	0	0	0	0	472	510	0	0	3	2			
15	0	0	0	0	473	511	0	0	3	2			
0	0	0	0	0	476	511	0	0	3	2			
1	0	0	0	0	480	513	0	0	3	2			
2	0	0	0	0	480	508	0	0	3	2			
3	0	0	0	0	472	508	0	0	3	2			
4	0	0	0	0	465	510	0	0	3	2			
5	0	0	0	0	472	511	0	0	3	2			
6	0	0	0	0	480	504	0	0	3	2			
7	0	0	0	0	487	508	0	0	3	2			
8	0	0	0	0	492	505	0	0	3	2			
9	0	0	0	0	483	508	0	0	3	2			
10	0	0	0	0	480	511	0	0	3	2			
11	0	0	0	0	487	510	0	0	3	2			
12	0	0	0	0	487	508	0	0	3	2			
13	0	0	0	0	473	511	0	0	3	2			
14	0	0	0	0	467	510	0	0	4	2			
15	0	0	0	0	463	512	0	0	3	2			
0	0	0	0	0	463	510	0	0	3	2			
1	0	0	0	0	476	511	0	0	4	2			
2	0	0	0	0	470	511	0	0	3	2			
3	0	0	0	0	467	508	0	0	3	2			
4	0	0	0	0	472	511	0	0	3	2			
5	0	0	0	0	467	510	0	0	3	2			
6	0	0	0	0	472	508	0	0	3	2			
7	0	0	0	0	472	508	0	0	3	2			
8	0	0	0	0	467	515	0	0	3	2			
9	0	0	0	0	467	508	0	0	3	2			
10	0	0	0	0	473	508	0	0	3	2			
11	0	0	0	0	480	508	0	0	4	2			
12	0	0	0	0	480	511	0	0	3	2			
13	0	0	0	0	480	512	0	0	3	2			
14	0	0	0	0	483	513	0	0	3	2			
15	0	0	0	0	481	510	0	0	3	2			
0	0	0	0	0	481	511	0	0	3	2			
1	0	0	0	0	480	511	0	0	3	2			
2	0	0	0	0	476	515	0	0	4	2			
3	0	0	0	0	476	508	0	0	3	2			
4	0	0	0	0	480	505	0	0	3	2			
5	0	0	0	0	480	505	0	0	3	2			
6	0	0	0	0	480	511	0	0	4	2			
7	0	0	0	0	481	504	0	0	3	2			
8	0	0	0	0	480	508	0	0	3	2			
9	0	0	0	0	480	504	0	0	3	2			
10	0	0	0	0	481	504	0	0	3	2			
11	0	0	0	0	480	510	0	0	3	2			
12	0	0	0	0	476	511	0	0	3	2			
13	0	0	0	0	476	515	0	0	3	2			
14	0	0	0	0	472	510	0	0	3	2			
15	0	0	0	0	473	508	0	0	4	2			
0	0	0	0	0	472	510	0	0	4	2			
1	0	0	0	0	476	504	0	0	4	2			
2	0	0	0	0	472	512	0	0	3	2			
3	0	0	0	0	472	504	0	0	3	2			
4	0	0	0	0	472	508	0	0	3	2			
5	0	0	0	0	465	512	0	0	3	2			
6	0	0	0	0	467	510	0	0	3	2			
7	0	0	0	0	472	512	0	0	3	2			
8	0	0	0	0	473	511	0	0	3	2			
9	0	0	0	0	472	508	0	0	3	2			
10	0	0	0	0	467	505	0	0	3	2			
11	0	0	0	0	467	511	0	0	3	2			
12	0	0	0	0	472	515	0	0	3	2			
13	0	0	0	0	472	511	0	0	3	2			
14	0	0	0	0	476	510	0	0	3	2			
15	0	0	0	0	472	512	0	0	3	2			
0	0	0	0	0	472	511	0	0	3	2			
1	0	0	0	0	476	512	0	0	3	2			
2	0	0	0	0	480	510	0	0	3	2			
3	0	0	0	0	478	504	0	0	3	2			
4	0	0	0	0	476	508	0	0	3	2			
5	0	0	0	0	481	505	0	0	3	2			
6	0	0	0	0	480	512	0	0	3	2			
7	0	0	0	0	480	504	0	0	3	2			
8	0	0	0	0	483	504	0	0	3	2			
9	0	0	0	0	480	511	0	0	3	2			
10	0	0	0	0	476	512	0	0	3	2			
11	0	0	0	0	476	513	0	0	3	2			
12	0	0	0	0	480	511	0	0	3	2			
13	0	0	0	0	481	511	0	0	3	2			
14	0	0	0	0	480	511	0	0	4	2			
15	0	0	0	0	480	510	0	0	3	2			
0	0	0	0	0	480	511	0	0	3	2			
1	0	0	0	0	476	508	0	0	3	2			
2	0	0	0	0	476	510	0	0	3	2			
3	0	0	0	0	473	510	0	0	3	2			
4	0	0	0	0	480	508	0	0	3	2			
5	0	0	0	0	480	508	0	0	3	2			
6	0	0	0	0	476	504	0	0	3	2			
7	0	0	0	0	480	508	0	0	3	2			
8	0	0	0	0	472	504	0	0	3	2			
9	0	0	0	0	478	499	0	0	3	2			
10	0	0	0	0	472	508	0	0	3	2			
11	0	0	0	0	472	505	0	0	4	2			
12	0	0	0	0	476	508	0	0	3	2			
13	0	0	0	0	472	510	0	0	3	2			
14	0	0	0	0	473	512	0	0	3	2			
15	0	0	0	0	476	513	0	0	4	2			
0	0	0	0	0	472	512	0	0	3	2			
1	0	0	0	0	476	511	0	0	3	2			
2	0	0	0	0	472	512	0	0	3	2			
3	0	0	0	0	472	512	0	0	3	2			
4	0	0	0	0	472	513	0	0	3	2			
5	0	0	0	0	472	511	0	0	3	2			
6	0	0	0	0	476	508	0	0	4	2			
7	0	0	0	0	480	508	0	0	3	2			
8	0	0	0	0	472	515	0	0	3	2			
9	0	0	0	0	472	508	0	0	3	2			
10	0	0	0	0	476	505	0	0	3	2			
11	0	0	0	0	472	504	0	0	3	2			
12	0	0	0	0	467	504	0	0	3	2			
13	0	0	0	0	472	505	0	0	3	2			
14	0	0	0	0	472	511	0	0	3	2			
15	0	0	0	0	472	505	0	0	3	2			
0	0	0	0	0	467	511	0	0	3	2			
1	0	0	0	0	454	511	0	0	3	2			
2	0	0	0	0	451	508	0	0	3	2			
3	0	0	0	0	455	511	0	0	3	2			
4	0	0	0	0	463	508	0	0	3	2			
5	0	0	0	0	465	511	0	0	3	2			
6	0	0	0	0	465	510	0	0	3	2			
7	0	0	0	0	472	511	0	0	4	2			
8	0	0	0	0	483	515	0	0	3	2			
9	0	0	0	0	499	512	0	0	3	2			
10	0	0	0	0	508	513	0	0	3	2			
11	0	0	0	0	492	513	0	0	4	2			
12	0	0	0	0	487	510	0	0	4	2			
13	0	0	0	0	483	511	0	0	3	2			
14	0	0	0	0	480	510	0	0	3	2			
15	0	0	0	0	480	508	0	0	4	2			
0	0	0	0	0	478	510	0	0	3	2			
1	0	0	0	0	483	508	0	0	3	2			
2	0	0	0	0	480	513	0	0	4	2			
3	0	0	0	0	476	504	0	0	3	2			
4	0	0	0	0	476	504	0	0	3	2			
5	0	0	0	0	472	510	0	0	3	2			
6	0	0	0	0	476	510	0	0	3	2			
7	0	0	0	0	478	513	0	0	3	2			
8	0	0	0	0	478	513	0	0	4	2			
9	0	0	0	0	476	505	0	0	3	2			
10	0	0	0	0	473	510	0	0	3	2			
11	0	0	0	0	481	504	0	0	3	2			
12	0	0	0	0	480	510	0	0	3	2			
13	0	0	0	0	473	510	0	0	3	2			
14	0	0	0	0	476	508	0	0	3	2			
15	0	0	0	0	472	511	0	0	3	2			
0	0	0	0	0	472	512	0	0	3	2			
1	0	0	0	0	476	515	0	0	4	2			
2	0	0	0	0	472	508	0	0	3	2			
3	0	0	0	0	480	508	0	0	4	2			
4	0	0	0	0	483	508	0	0	3	2			
5	0	0	0	0	480	515	0	0	3	2			
6	0	0	0	0	480	505	0	0	3	2			
7	0	0	0	0	478	504	0	0	3	2			
8	0	0	0	0	476	508	0	0	3	2			
9	0	0	0	0	472	510	0	0	3	2			
10	0	0	0	0	473	512	0	0	3	2			
11	0	0	0	0	476	512	0	0	3	2			
12	0	0	0	0	473	511	0	0	3	2			
13	0	0	0	0	478	510	0	0	3	2			
14	0	0	0	0	473	512	0	0	3	2			
15	0	0	0	0	476	513	0	0	3	2			
0	0	0	0	0	476	511	0	0	3	2			
1	0	0	0	0	476	510	0	0	3	2			
2	0	0	0	0	480	508	0	0	3	2			
3	0	0	0	0	476	505	0	0	3	2			
4	0	0	0	0	472	508	0	0	3	2			
5	0	0	0	0	470	508	0	0	3	2			
6	0	0	0	0	467	504	0	0	3	2			
7	0	0	0	0	472	504	0	0	4	2			
8	0	0	0	0	467	505	0	0	3	2			
9	0	0	0	0	472	508	0	0	3	2			
10	0	0	0	0	472	508	0	0	3	2			
11	0	0	0	0	467	508	0	0	3	2			
12	0	0	0	0	472	504	0	0	3	2			
13	0	0	0	0	470	504	0	0	3	2			
14	0	0	0	0	467	510	0	0	3	2			
15	0	0	0	0	472	508	0	0	4	2			
0	0	0	0	0	473	511	0	0	4	2			
1	0	0	0	0	473	504	0	0	4	2			
2	0	0	0	0	472	504	0	0	3	2			
3	0	0	0	0	476	508	0	0	3	2			
4	0	0	0	0	480	510	0	0	3	2			
5	0	0	0	0	480	504	0	0	3	2			
6	0	0	0	0	483	508	0	0	3	2			
7	0	0	0	0	480	510	0	0	3	2			
8	0	0	0	0	480	510	0	0	3	2			
9	0	0	0	0	480	508	0	0	3	2			
10	0	0	0	0	472	508	0	0	3	2			
11	0	0	0	0	472	508	0	0	3	2			
12	0	0	0	0	465	510	0	0	3	2			
13	0	0	0	0	463	510	0	0	3	2			
14	0	0	0	0	460	511	0	0	3	2			
15	0	0	0	0	460	510	0	0	3	2			
0	0	0	0	0	463	510	0	0	3	2			
1	0	0	0	0	460	512	0	0	3	2			
2	0	0	0	0	463	512	0	0	3	2			
3	0	0	0	0	467	513	0	0	4	2			
4	0	0	0	0	476	512	0	0	4	2			
5	0	0	0	0	492	508	0	0	3	2			
6	0	0	0	0	487	511	0	0	3	2			
7	0	0	0	0	487	510	0	0	3	2			
8	0	0	0	0	492	511	0	0	3	2			
9	0	0	0	0	499	512	0	0	3	2			
10	0	0	0	0	496	504	0	0	3	2			
11	0	0	0	0	489	504	0	0	3	2			
12	0	0	0	0	483	508	0	0	3	2			
13	0	0	0	0	480	510	0	0	3	2			
14	0	0	0	0	480	504	0	0	3	2			
15	0	0	0	0	478	508	0	0	3	2			
0	0	0	0	0	472	510	0	0	3	2			
1	0	0	0	0	472	511	0	0	4	2			
2	0	0	0	0	473	510	0	0	3	2			
3	0	0	0	0	472	511	0	0	4	2			
4	0	0	0	0	478	510	0	0	3	2			
5	0	0	0	0	476	511	0	0	3	2			
6	0	0	0	0	476	508	0	0	3	2			
7	0	0	0	0	472	511	0	0	3	2			
8	0	0	0	0	472	511	0	0	4	2			
9	0	0	0	0	476	508	0	0	3	2			
10	0	0	0	0	472	510	0	0	3	2			
11	0	0	0	0	476	510	0	0	4	2			
12	0	0	0	0	480	508	0	0	3	2			
13	0	0	0	0	478	505	0	0	3	2			
14	0	0	0	0	480	508	0	0	3	2			
15	0	0	0	0	480	510	0	0	3	2			
0	0	0	0	0	480	508	0	0	3	2			
1	0	0	0	0	476	510	0	0	3	2			
2	0	0	0	0	476	510	0	0	3	2			
3	0	0	0	0	467	504	0	0	3	2			
4	0	0	0	0	467	499	0	0	3	2			
5	0	0	0	0	463	510	0	0	3	2			
6	0	0	0	0	467	504	0	0	4	2			
7	0	0	0	0	472	508	0	0	3	2			
8	0	0	0	0	472	505	0	0	3	2			
9	0	0	0	0	480	504	0	0	3	2			
10	0	0	0	0	476	515	0	0	3	2			
11	0	0	0	0	483	510	0	0	3	2			
12	0	0	0	0	487	511	0	0	3	2			
13	0	0	0	0	483	504	0	0	3	2			
14	0	0	0	0	481	505	0	0	3	2			
15	0	0	0	0	472	515	0	0	3	2			
0	0	0	0	0	476	513	0	0	3	2			
1	0	0	0	0	480	513	0	0	3	2			
2	0	0	0	0	480	510	0	0	3	2			
3	0	0	0	0	480	508	0	0	3	2			
4	0	0	0	0	472	515	0	0	3	2			
5	0	0	0	0	473	510	0	0	3	2			
6	0	0	0	0	481	512	0	0	3	2			
7	0	0	0	0	480	508	0	0	3	2			
8	0	0	0	0	480	508	0	0	3	2			
9	0	0	0	0	472	515	0	0	3	2			
10	0	0	0	0	473	511	0	0	3	2			
11	0	0	0	0	480	512	0	0	3	2			
12	0	0	0	0	476	511	0	0	3	2			
13	0	0	0	0	472	515	0	0	3	2			
14	0	0	0	0	480	510	0	0	3	2			
15	0	0	0	0	476	515	0	0	3	2			
0	0	0	0	0	472	510	0	0	3	2			
1	0	0	0	0	476	511	0	0	3	2			
2	0	0	0	0	472	513	0	0	3	2			
3	0	0	0	0	467	515	0	0	3	2			
4	0	0	0	0	472	519	0	0	3	2			
5	0	0	0	0	472	513	0	0	3	2			
6	0	0	0	0	476	512	0	0	4	2			
7	0	0	0	0	473	515	0	0	3	2			
8	0	0	0	0	480	510	0	0	3	2			
9	0	0	0	0	480	510	0	0	3	2			
10	0	0	0	0	480	508	0	0	3	2			
11	0	0	0	0	480	504	0	0	3	2			
12	0	0	0	0	480	508	0	0	3	2			
13	0	0	0	0	480	508	0	0	3	2			
14	0	0	0	0	476	513	0	0	3	2			
15	0	0	0	0	472	508	0	0	3	2			
0	0	0	0	0	476	510	0	0	3	2			
1	0	0	0	0	465	511	0	0	4	2			
2	0	0	0	0	467	508	0	0	3	2			
3	0	0	0	0	472	511	0	0	3	2			
4	0	0	0	0	476	504	0	0	3	2			
5	0	0	0	0	478	510	0	0	3	2			
6	0	0	0	0	472	510	0	0	3	2			
7	0	0	0	0	467	511	0	0	3	2			
8	0	0	0	0	467	512	0	0	3	2			
9	0	0	0	0	467	510	0	0	3	2			
10	0	0	0	0	476	512	0	0	3	2			
11	0	0	0	0	472	511	0	0	3	2			
12	0	0	0	0	473	508	0	0	3	2			
13	0	0	0	0	480	511	0	0	3	2			
14	0	0	0	0	487	508	0	0	3	2			
15	0	0	0	0	489	505	0	0	3	2			
0	0	0	0	0	483	508	0	0	4	2			
1	0	0	0	0	472	512	0	0	3	2			
2	0	0	0	0	472	508	0	0	3	2			
3	0	0	0	0	472	508	0	0	3	2			
4	0	0	0	0	472	508	0	0	3	2			
5	0	0	0	0	472	511	0	0	3	2			
6	0	0	0	0	476	511	0	0	3	2			
7	0	0	0	0	472	512	0	0	4	2			
8	0	0	0	0	472	512	0	0	3	2			
9	0	0	0	0	472	505	0	0	3	2			
10	0	0	0	0	472	508	0	0	3	2			
11	0	0	0	0	472	510	0	0	3	2			
12	0	0	0	0	472	511	0	0	3	2			
13	0	0	0	0	476	508	0	0	3	2			
14	0	0	0	0	480	508	0	0	3	2			
15	0	0	0	0	480	511	0	0	3	2			
0	0	0	0	0	483	508	0	0	3	2			
1	0	0	0	0	483	510	0	0	4	2			
2	0	0	0	0	481	508	0	0	3	2			
3	0	0	0	0	476	504	0	0	3	2			
4	0	0	0	0	472	504	0	0	3	2			
5	0	0	0	0	480	502	0	0	3	2			
6	0	0	0	0	472	508	0	0	3	2			
7	0	0	0	0	472	508	0	0	3	2			
8	0	0	0	0	480	510	0	0	3	2			
9	0	0	0	0	472	511	0	0	4	2			
10	0	0	0	0	467	508	0	0	3	2			
11	0	0	0	0	472	511	0	0	3	2			
12	0	0	0	0	480	512	0	0	3	2			
13	0	0	0	0	483	512	0	0	3	2			
14	0	0	0	0	480	512	0	0	3	2			
15	0	0	0	0	476	513	0	0	3	2			
0	0	0	0	0	472	512	0	0	3	2			
1	0	0	0	0	467	510	0	0	3	2			
2	0	0	0	0	476	512	0	0	3	2			
3	0	0	0	0	472	511	0	0	3	2			
4	0	0	0	0	480	504	0	0	3	2			
5	0	0	0	0	472	511	0	0	3	2			
6	0	0	0	0	472	504	0	0	3	2			
7	0	0	0	0	472	504	0	0	3	2			
8	0	0	0	0	472	510	0	0	3	2			
9	0	0	0	0	472	511	0	0	3	2			
10	0	0	0	0	472	513	0	0	3	2			
11	0	0	0	0	472	510	0	0	3	2			
12	0	0	0	0	476	510	0	0	3	2			
13	0	0	0	0	472	512	0	0	3	2			
14	0	0	0	0	472	512	0	0	3	2			
15	0	0	0	0	472	512	0	0	3	2			
0	0	0	0	0	476	510	0	0	3	2			
1	0	0	0	0	480	511	0	0	4	2			
2	0	0	0	0	480	511	0	0	3	2			
3	0	0	0	0	487	510	0	0	3	2			
4	0	0	0	0	487	510	0	0	4	2			
5	0	0	0	0	481	504	0	0	3	2			
6	0	0	0	0	487	504	0	0	3	2			
7	0	0	0	0	483	504	0	0	3	2			
8	0	0	0	0	492	496	0	0	3	2			
9	0	0	0	0	483	508	0	0	3	2			
10	0	0	0	0	481	504	0	0	3	2			
11	0	0	0	0	480	504	0	0	3	2			
12	0	0	0	0	472	510	0	0	3	2			
13	0	0	0	0	470	511	0	0	3	2			
14	0	0	0	0	465	512	0	0	3	2			
15	0	0	0	0	463	510	0	0	3	2			
0	0	0	0	0	472	511	0	0	3	2			
1	0	0	0	0	467	512	0	0	3	2			
2	0	0	0	0	472	512	0	0	3	2			
3	0	0	0	0	467	512	0	0	3	2			
4	0	0	0	0	460	511	0	0	3	2			
5	0	0	0	0	455	510	0	0	3	2			
6	0	0	0	0	457	508	0	0	3	2			
7	0	0	0	0	460	515	0	0	3	2			
8	0	0	0	0	467	504	0	0	3	2			
9	0	0	0	0	476	508	0	0	3	2			
10	0	0	0	0	476	504	0	0	3	2			
11	0	0	0	0	476	504	0	0	3	2			
12	0	0	0	0	487	505	0	0	3	2			
13	0	0	0	0	499	511	0	0	3	2			
14	0	0	0	0	496	505	0	0	3	2			
15	0	0	0	0	487	504	0	0	3	2			
0	0	0	0	0	481	508	0	0	3	2			
1	0	0	0	0	472	511	0	0	3	2			
2	0	0	0	0	472	510	0	0	3	2			
3	0	0	0	0	476	504	0	0	3	2			
4	0	0	0	0	476	511	0	0	3	2			
5	0	0	0	0	472	508	0	0	3	2			
6	0	0	0	0	472	513	0	0	3	2			
7	0	0	0	0	472	518	0	0	3	2			
8	0	0	0	0	473	513	0	0	3	2			
9	0	0	0	0	480	512	0	0	3	2			
10	0	0	0	0	473	511	0	0	3	2			
11	0	0	0	0	473	508	0	0	3	2			
12	0	0	0	0	472	512	0	0	3	2			
13	0	0	0	0	472	510	0	0	3	2			
14	0	0	0	0	478	512	0	0	3	2			
15	0	0	0	0	478	513	0	0	3	2			
0	0	0	0	0	481	512	0	0	3	2			
1	0	0	0	0	481	512	0	0	4	2			
2	0	0	0	0	483	508	0	0	3	2			
3	0	0	0	0	486	508	0	0	3	2			
4	0	0	0	0	478	505	0	0	3	2			
5	0	0	0	0	483	504	0	0	3	2			
6	0	0	0	0	480	511	0	0	4	2			
7	0	0	0	0	480	504	0	0	3	2			
8	0	0	0	0	480	504	0	0	3	2			
9	0	0	0	0	473	510	0	0	3	2			
10	0	0	0	0	472	512	0	0	3	2			
11	0	0	0	0	472	513	0	0	4	2			
12	0	0	0	0	473	511	0	0	3	2			
13	0	0	0	0	476	512	0	0	3	2			
14	0	0	0	0	472	513	0	0	3	2			
15	0	0	0	0	476	510	0	0	3	2			
0	0	0	0	0	473	510	0	0	3	2			
1	0	0	0	0	472	508	0	0	4	2			
2	0	0	0	0	476	508	0	0	3	2			
3	0	0	0	0	472	511	0	0	3	2			
4	0	0	0	0	476	510	0	0	3	2			
5	0	0	0	0	476	511	0	0	3	2			
6	0	0	0	0	480	504	0	0	3	2			
7	0	0	0	0	480	508	0	0	3	2			
8	0	0	0	0	476	510	0	0	3	2			
9	0	0	0	0	472	510	0	0	3	2			
10	0	0	0	0	472	511	0	0	3	2			
11	0	0	0	0	480	512	0	0	3	2			
12	0	0	0	0	472	504	0	0	3	2			
13	0	0	0	0	467	504	0	0	3	2			
14	0	0	0	0	472	504	0	0	3	2			
15	0	0	0	0	473	508	0	0	3	2			
0	0	0	0	0	472	504	0	0	3	2			
1	0	0	0	0	476	504	0	0	4	2			
2	0	0	0	0	472	511	0	0	3	2			
3	0	0	0	0	476	513	0	0	3	2			
4	0	0	0	0	476	515	0	0	3	2			
5	0	0	0	0	476	511	0	0	3	2			
6	0	0	0	0	480	511	0	0	4	2			
7	0	0	0	0	478	511	0	0	3	2			
8	0	0	0	0	481	508	0	0	3	2			
9	0	0	0	0	480	513	0	0	3	2			
10	0	0	0	0	476	504	0	0	3	2			
11	0	0	0	0	476	504	0	0	3	2			
12	0	0	0	0	472	510	0	0	3	2			
13	0	0	0	0	472	511	0	0	3	2			
14	0	0	0	0	476	512	0	0	3	2			
15	0	0	0	0	480	508	0	0	3	2			
0	0	0	0	0	483	511	0	0	3	2			
1	0	0	0	0	472	510	0	0	3	2			
2	0	0	0	0	463	510	0	0	3	2			
3	0	0	0	0	463	512	0	0	3	2			
4	0	0	0	0	460	511	0	0	3	2			
5	0	0	0	0	465	508	0	0	3	2			
6	0	0	0	0	465	511	0	0	3	2			
7	0	0	0	0	472	512	0	0	3	2			
8	0	0	0	0	472	513	0	0	4	2			
9	0	0	0	0	483	511	0	0	3	2			
10	0	0	0	0	496	508	0	0	3	2			
11	0	0	0	0	494	510	0	0	3	2			
12	0	0	0	0	483	512	0	0	3	2			
13	0	0	0	0	487	505	0	0	4	2			
14	0	0	0	0	487	504	0	0	3	2			
15	0	0	0	0	483	508	0	0	3	2			
0	0	0	0	0	472	508	0	0	3	2			
1	0	0	0	0	473	504	0	0	3	2			
2	0	0	0	0	476	512	0	0	3	2			
3	0	0	0	0	473	510	0	0	3	2			
4	0	0	0	0	476	508	0	0	3	2			
5	0	0	0	0	472	511	0	0	4	2			
6	0	0	0	0	472	513	0	0	3	2			
7	0	0	0	0	472	515	0	0	3	2			
8	0	0	0	0	472	512	0	0	3	2			
9	0	0	0	0	480	511	0	0	3	2			
10	0	0	0	0	473	512	0	0	3	2			
11	0	0	0	0	472	508	0	0	3	2			
12	0	0	0	0	467	512	0	0	3	2			
13	0	0	0	0	463	508	0	0	3	2			
14	0	0	0	0	462	508	0	0	3	2			
15	0	0	0	0	463	510	0	0	3	2			
0	0	0	0	0	462	512	0	0	3	2			
1	0	0	0	0	463	508	0	0	3	2			
2	0	0	0	0	472	504	0	0	3	2			
3	0	0	0	0	480	505	0	0	3	2			
4	0	0	0	0	487	513	0	0	3	2			
5	0	0	0	0	487	511	0	0	3	2			
6	0	0	0	0	481	511	0	0	3	2			
7	0	0	0	0	480	508	0	0	3	2			
8	0	0	0	0	480	508	0	0	3	2			
9	0	0	0	0	480	510	0	0	3	2			
10	0	0	0	0	476	515	0	0	3	2			
11	0	0	0	0	472	511	0	0	3	2			
12	0	0	0	0	472	504	0	0	3	2			
13	0	0	0	0	476	508	0	0	3	2			
14	0	0	0	0	476	511	0	0	3	2			
15	0	0	0	0	476	513	0	0	3	2			
0	0	0	0	0	480	513	0	0	3	2			
1	0	0	0	0	480	510	0	0	3	2			
2	0	0	0	0	483	508	0	0	3	2			
3	0	0	0	0	483	508	0	0	3	2			
4	0	0	0	0	476	512	0	0	3	2			
5	0	0	0	0	478	504	0	0	3	2			
6	0	0	0	0	481	508	0	0	4	2			
7	0	0	0	0	478	504	0	0	3	2			
8	0	0	0	0	472	504	0	0	3	2			
9	0	0	0	0	472	508	0	0	3	2			
10	0	0	0	0	472	511	0	0	3	2			
11	0	0	0	0	472	510	0	0	3	2			
12	0	0	0	0	480	508	0	0	3	2			
13	0	0	0	0	478	511	0	0	3	2			
14	0	0	0	0	476	511	0	0	3	2			
15	0	0	0	0	473	512	0	0	4	2			
0	0	0	0	0	472	511	0	0	3	2			
1	0	0	0	0	480	510	0	0	3	2			
2	0	0	0	0	480	511	0	0	3	2			
3	0	0	0	0	476	515	0	0	3	2			
4	0	0	0	0	476	511	0	0	3	2			
5	0	0	0	0	480	508	0	0	3	2			
6	0	0	0	0	480	504	0	0	4	2			
7	0	0	0	0	476	511	0	0	3	2			
8	0	0	0	0	476	508	0	0	3	2			
9	0	0	0	0	476	511	0	0	3	2			
10	0	0	0	0	476	510	0	0	3	2			
11	0	0	0	0	476	510	0	0	3	2			
12	0	0	0	0	472	512	0	0	3	2			
13	0	0	0	0	467	511	0	0	3	2			
14	0	0	0	0	467	512	0	0	3	2			
15	0	0	0	0	467	510	0	0	3	2			
0	0	0	0	0	472	510	0	0	3	2			
1	0	0	0	0	467	511	0	0	3	2			
2	0	0	0	0	472	511	0	0	3	2			
3	0	0	0	0	472	512	0	1	3	2			
4	0	0	0	0	476	508	0	0	3	2			
5	0	0	0	0	481	511	0	0	3	2			
6	0	0	0	0	478	511	0	0	3	2			
7	0	0	0	0	487	504	0	0	3	2			
8	0	0	0	0	483	508	0	0	3	2			
9	0	0	0	0	472	499	0	0	3	2			
10	0	0	0	0	472	504	0	0	3	2			
11	0	0	0	0	467	508	0	0	3	2			
12	0	0	0	0	472	511	0	0	3	2			
13	0	0	0	0	467	511	0	0	3	2			
14	0	0	0	0	472	508	0	0	4	2			
15	0	0	0	0	473	508	0	0	3	2			
0	0	0	0	0	478	512	0	0	3	2			
1	0	0	0	0	487	512	0	0	4	2			
2	0	0	0	0	492	511	0	0	3	2			
3	0	0	0	0	483	508	0	0	3	2			
4	0	0	0	0	481	508	0	0	3	2			
5	0	0	0	0	476	510	0	0	3	2			
6	0	0	0	0	472	511	0	0	3	2			
7	0	0	0	0	472	512	0	0	3	2			
8	0	0	0	0	472	511	0	0	4	2			
9	0	0	0	0	476	508	0	0	3	2			
10	0	0	0	0	472	510	0	0	3	2			
11	0	0	0	0	472	510	0	0	3	2			
12	0	0	0	0	476	512	0	0	3	2			
13	0	0	0	0	476	508	0	0	3	2			
14	0	0	0	0	483	508	0	0	3	2			
15	0	0	0	0	480	511	0	0	3	2			
0	0	0	0	0	472	508	0	0	3	2			
1	0	0	0	0	472	510	0	0	4	2			
2	0	0	0	0	472	504	0	0	3	2			
3	0	0	0	0	472	504	0	0	3	2			
4	0	0	0	0	472	504	0	0	3	2			
5	0	0	0	0	472	508	0	0	3	2			
6	0	0	0	0	476	508	0	0	4	2			
7	0	0	0	0	480	504	0	0	3	2			
8	0	0	0	0	487	504	0	0	3	2			
9	0	0	0	0	487	508	0	0	3	2			
10	0	0	0	0	481	510	0	0	3	2			
11	0	0	0	0	480	510	0	0	3	2			
12	0	0	0	0	480	511	0	0	3	2			
13	0	0	0	0	481	508	0	0	3	2			
14	0	0	0	0	476	508	0	0	3	2			
15	0	0	0	0	476	510	0	0	3	2			
0	0	0	0	0	476	510	0	0	3	2			
1	0	0	0	0	472	510	0	0	3	2			
2	0	0	0	0	472	508	0	0	3	2			
3	0	0	0	0	472	510	0	0	3	2			
4	0	0	0	0	467	513	0	0	3	2			
5	0	0	0	0	472	505	0	0	3	2			
6	0	0	0	0	480	510	0	0	3	2			
7	0	0	0	0	476	504	0	0	3	2			
8	0	0	0	0	481	504	0	0	3	2			
9	0	0	0	0	480	511	0	0	3	2			
10	0	0	0	0	483	504	0	0	3	2			
11	0	0	0	0	481	511	0	0	4	2			
12	0	0	0	0	472	504	0	0	3	2			
13	0	0	0	0	472	505	0	0	3	2			
14	0	0	0	0	463	515	0	0	3	2			
15	0	0	0	0	463	511	0	0	3	2			
0	0	0	0	0	472	511	0	0	3	2			
1	0	0	0	0	472	505	0	0	3	2			
2	0	0	0	0	472	511	0	0	3	2			
3	0	0	0	0	472	515	0	0	3	2			
4	0	0	0	0	473	512	0	0	3	2			
5	0	0	0	0	480	508	0	0	3	2			
6	0	0	0	0	483	510	0	0	4	2			
7	0	0	0	0	483	513	0	0	3	2			
8	0	0	0	0	496	512	0	0	3	2			
9	0	0	0	0	486	511	0	1	3	2			
10	0	0	0	0	480	508	0	0	3	2			
11	0	0	0	0	480	508	0	0	3	2			
12	0	0	0	0	472	511	0	0	3	2			
13	0	0	0	0	472	512	0	0	3	2			
14	0	0	0	0	472	513	0	0	3	2			
15	0	0	0	0	473	513	0	0	3	2			
0	0	0	0	0	480	513	0	0	3	2			
1	0	0	0	0	472	511	0	0	3	2			
2	0	0	0	0	467	510	0	0	3	2			
3	0	0	0	0	465	515	0	0	4	2			
4	0	0	0	0	467	510	0	0	3	2			
5	0	0	0	0	467	515	0	0	3	2			
6	0	0	0	0	465	512	0	0	3	2			
7	0	0	0	0	467	513	0	0	3	2			
8	0	0	0	0	472	512	0	0	3	2			
9	0	0	0	0	483	508	0	0	3	2			
10	0	0	0	0	496	508	0	0	3	2			
11	0	0	0	0	494	511	0	0	3	2			
12	0	0	0	0	481	515	0	0	3	2			
13	0	0	0	0	480	510	0	0	3	2			
14	0	0	0	0	480	504	0	0	3	2			
15	0	0	0	0	480	505	0	0	3	2			
0	0	0	0	0	472	508	0	0	3	2			
1	0	0	0	0	476	504	0	0	3	2			
2	0	0	0	0	480	510	0	0	3	2			
3	0	0	0	0	480	510	0	0	3	2			
4	0	0	0	0	487	510	0	0	3	2			
5	0	0	0	0	483	510	0	0	3	2			
6	0	0	0	0	476	511	0	0	3	2			
7	0	0	0	0	467	512	0	0	3	2			
8	0	0	0	0	472	510	0	0	3	2			
9	0	0	0	0	478	511	0	0	3	2			
10	0	0	0	0	472	511	0	0	4	2			
11	0	0	0	0	472	508	0	0	3	2			
12	0	0	0	0	476	512	0	0	3	2			
13	0	0	0	0	478	508	0	0	3	2			
14	0	0	0	0	480	510	0	0	3	2			
15	0	0	0	0	480	510	0	0	4	2			
0	0	0	0	0	472	513	0	0	3	2			
1	0	0	0	0	472	505	0	0	4	2			
2	0	0	0	0	476	504	0	0	3	2			
3	0	0	0	0	476	511	0	0	3	2			
4	0	0	0	0	472	508	0	0	3	2			
5	0	0	0	0	467	510	0	0	3	2			
6	0	0	0	0	467	512	0	0	3	2			
7	0	0	0	0	467	508	0	0	3	2			
8	0	0	0	0	472	504	0	0	4	2			
9	0	0	0	0	467	511	0	0	3	2			
10	0	0	0	0	480	508	0	0	3	2			
11	0	0	0	0	480	515	0	0	4	2			
12	0	0	0	0	480	505	0	0	3	2			
13	0	0	0	0	483	505	0	0	4	2			
14	0	0	0	0	487	508	0	0	3	2			
15	0	0	0	0	480	511	0	0	3	2			
0	0	0	0	0	481	505	0	0	3	2			
1	0	0	0	0	480	508	0	0	3	2			
2	0	0	0	0	480	508	0	0	3	2			
3	0	0	0	0	476	511	0	0	3	2			
4	0	0	0	0	472	511	0	0	3	2			
5	0	0	0	0	472	512	0	0	3	2			
6	0	0	0	0	472	510	0	0	3	2			
7	0	0	0	0	476	508	0	0	3	2			
8	0	0	0	0	472	510	0	0	3	2			
9	0	0	0	0	472	512	0	0	3	2			
10	0	0	0	0	472	511	0	0	3	2			
11	0	0	0	0	472	511	0	0	3	2			
12	0	0	0	0	473	510	0	0	3	2			
13	0	0	0	0	472	511	0	0	3	2			
14	0	0	0	0	480	508	0	0	3	2			
15	0	0	0	0	473	511	0	0	3	2			
0	0	0	0	0	476	508	0	0	3	2			
1	0	0	0	0	481	511	0	0	3	2			
2	0	0	0	0	480	512	0	0	3	2			
3	0	0	0	0	472	508	0	0	3	2			
4	0	0	0	0	467	511	0	0	3	2			
5	0	0	0	0	463	508	0	0	3	2			
6	0	0	0	0	472	505	0	0	3	2			
7	0	0	0	0	472	508	0	0	3	2			
8	0	0	0	0	472	511	0	0	3	2			
9	0	0	0	0	473	508	0	0	3	2			
10	0	0	0	0	483	508	0	0	3	2			
11	0	0	0	0	494	504	0	0	3	2			
12	0	0	0	0	487	508	0	0	3	2			
13	0	0	0	0	480	511	0	0	3	2			
14	0	0	0	0	480	512	0	0	3	2			
15	0	0	0	0	480	511	0	0	3	2			
0	0	0	0	0	481	508	0	0	3	2			
1	0	0	0	0	483	510	0	0	3	2			
2	0	0	0	0	476	515	0	0	3	2			
3	0	0	0	0	473	510	0	0	3	2			
4	0	0	0	0	476	505	0	0	3	2			
5	0	0	0	0	478	504	0	0	3	2			
6	0	0	0	0	472	511	0	0	3	2			
7	0	0	0	0	478	508	0	0	3	2			
8	0	0	0	0	476	511	0	0	3	2			
9	0	0	0	0	476	504	0	0	3	2			
10	0	0	0	0	480	504	0	0	3	2			
11	0	0	0	0	481	511	0	0	3	2			
12	0	0	0	0	483	512	0	0	3	2			
13	0	0	0	0	480	512	0	0	3	2			
14	0	0	0	0	472	508	0	0	3	2			
15	0	0	0	0	472	508	0	0	3	2			
0	0	0	0	0	467	511	0	0	3	2			
1	0	0	0	0	476	510	0	0	3	2			
2	0	0	0	0	472	512	0	0	3	2			
3	0	0	0	0	472	504	0	0	3	2			
4	0	0	0	0	472	504	0	0	3	2			
5	0	0	0	0	467	511	0	0	3	2			
6	0	0	0	0	476	508	0	0	3	2			
7	0	0	0	0	480	512	0	0	4	2			
8	0	0	0	0	483	511	0	1	3	2			
9	0	0	0	0	480	504	0	0	3	2			
10	0	0	0	0	473	510	0	0	3	2			
11	0	0	0	0	476	510	0	0	3	2			
12	0	0	0	0	480	512	0	0	3	2			
13	0	0	0	0	481	508	0	0	3	2			
14	0	0	0	0	481	508	0	0	3	2			
15	0	0	0	0	476	511	0	0	4	2			
0	0	0	0	0	476	511	0	0	3	2			
1	0	0	0	0	476	510	0	0	3	2			
2	0	0	0	0	480	511	0	0	3	2			
3	0	0	0	0	476	504	0	0	3	2			
4	0	0	0	0	467	504	0	0	3	2			
5	0	0	0	0	467	508	0	0	3	2			
6	0	0	0	0	472	512	0	0	3	2			
7	0	0	0	0	472	512	0	0	3	2			
8	0	0	0	0	467	504	0	0	3	2			
9	0	0	0	0	467	508	0	0	3	2			
10	0	0	0	0	467	512	0	0	3	2			
11	0	0	0	0	472	515	0	0	3	2			
12	0	0	0	0	472	510	0	0	3	2			
13	0	0	0	0	476	511	0	0	3	2			
14	0	0	0	0	472	512	0	0	3	2			
15	0	0	0	0	472	512	0	0	3	2			
0	0	0	0	0	476	512	0	0	3	2			
1	0	0	0	0	481	511	0	0	4	2			
2	0	0	0	0	480	508	0	0	4	2			
3	0	0	0	0	480	508	0	0	3	2			
4	0	0	0	0	483	504	0	0	3	2			
5	0	0	0	0	476	508	0	0	3	2			
6	0	0	0	0	478	505	0	0	3	2			
7	0	0	0	0	481	510	0	0	3	2			
8	0	0	0	0	472	505	0	0	3	2			
9	0	0	0	0	472	504	0	0	3	2			
10	0	0	0	0	472	511	0	0	3	2			
11	0	0	0	0	465	508	0	0	3	2			
12	0	0	0	0	467	510	0	0	3	2			
13	0	0	0	0	463	512	0	0	3	2			
14	0	0	0	0	463	513	0	0	3	2			
15	0	0	0	0	463	513	0	0	3	2			
0	0	0	0	0	467	512	0	0	3	2			
1	0	0	0	0	478	512	0	0	3	2			
2	0	0	0	0	472	512	0	0	3	2			
3	0	0	0	0	476	504	0	0	3	2			
4	0	0	0	0	480	510	0	0	3	2			
5	0	0	0	0	487	510	0	0	3	2			
6	0	0	0	0	497	505	0	0	4	2			
7	0	0	0	0	496	508	0	0	3	2			
8	0	0	0	0	480	512	0	0	3	2			
9	0	0	0	0	473	508	0	0	3	2			
10	0	0	0	0	472	504	0	0	3	2			
11	0	0	0	0	472	504	0	0	3	2			
12	0	0	0	0	467	508	0	0	3	2			
13	0	0	0	0	467	510	0	0	3	2			
14	0	0	0	0	467	512	0	0	3	2			
15	0	0	0	0	467	510	0	0	3	2			
0	0	0	0	0	478	508	0	0	3	2			
1	0	0	0	0	483	510	0	0	3	2			
2	0	0	0	0	476	515	0	0	3	2			
3	0	0	0	0	472	510	0	0	3	2			
4	0	0	0	0	472	504	0	1	4	2			
5	0	0	0	0	472	512	0	0	3	2			
6	0	0	0	0	472	510	0	0	3	2			
7	0	0	0	0	480	510	0	0	3	2			
8	0	0	0	0	480	508	0	0	3	2			
9	0	0	0	0	480	504	0	0	3	2			
10	0	0	0	0	480	508	0	0	3	2			
11	0	0	0	0	478	510	0	0	3	2			
12	0	0	0	0	480	511	0	0	3	2			
13	0	0	0	0	476	512	0	0	3	2			
14	0	0	0	0	472	508	0	0	3	2			
15	0	0	0	0	472	508	0	0	3	2			
0	0	0	0	0	467	511	0	0	3	2			
1	0	0	0	0	472	508	0	0	3	2			
2	0	0	0	0	472	513	0	0	3	2			
3	0	0	0	0	472	504	0	0	3	2			
4	0	0	0	0	472	508	0	0	3	2			
5	0	0	0	0	467	511	0	0	3	2			
6	0	0	0	0	472	511	0	0	3	2			
7	0	0	0	0	480	512	0	0	3	2			
8	0	0	0	0	480	512	0	0	3	2			
9	0	0	0	0	476	508	0	0	3	2			
10	0	0	0	0	478	508	0	0	3	2			
11	0	0	0	0	472	515	0	0	3	2			
12	0	0	0	0	476	508	0	0	3	2			
13	0	0	0	0	480	505	0	0	3	2			
14	0	0	0	0	481	511	0	0	3	2			
15	0	0	0	0	480	511	0	0	3	2			
0	0	0	0	0	480	504	0	0	3	2			
1	0	0	0	0	480	512	0	0	4	2			
2	0	0	0	0	481	504	0	0	3	2			
3	0	0	0	0	481	511	0	0	3	2			
4	0	0	0	0	478	510	0	0	4	2			
5	0	0	0	0	472	511	0	0	3	2			
6	0	0	0	0	472	511	0	0	3	2			
7	0	0	0	0	467	512	0	0	3	2			
8	0	0	0	0	472	511	0	0	3	2			
9	0	0	0	0	463	512	0	0	3	2			
10	0	0	0	0	463	511	0	0	3	2			
11	0	0	0	0	467	511	0	0	4	2			
12	0	0	0	0	472	511	0	0	3	2			
13	0	0	0	0	478	508	0	0	3	2			
14	0	0	0	0	478	511	0	0	3	2			
15	0	0	0	0	480	511	0	0	3	2			
0	0	0	0	0	481	511	0	0	4	2			
1	0	0	0	0	487	510	0	0	3	2			
2	0	0	0	0	496	504	0	0	3	2			
3	0	0	0	0	487	508	0	0	3	2			
4	0	0	0	0	480	510	0	0	3	2			
5	0	0	0	0	480	510	0	0	3	2			
6	0	0	0	0	480	508	0	0	4	2			
7	0	0	0	0	476	504	0	0	3	2			
8	0	0	0	0	472	508	0	0	4	2			
9	0	0	0	0	472	508	0	0	3	2			
10	0	0	0	0	472	510	0	0	3	2			
11	0	0	0	0	472	508	0	0	3	2			
12	0	0	0	0	473	505	0	0	3	2			
13	0	0	0	0	472	508	0	0	3	2			
14	0	0	0	0	472	508	0	0	3	2			
15	0	0	0	0	472	510	0	0	3	2			
0	0	0	0	0	472	508	0	0	3	2			
1	0	0	0	0	476	508	0	0	3	2			
2	0	0	0	0	480	508	0	0	3	2			
3	0	0	0	0	472	513	0	0	3	2			
4	0	0	0	0	478	510	0	0	3	2			
5	0	0	0	0	483	508	0	0	3	2			
6	0	0	0	0	480	504	0	0	3	2			
7	0	0	0	0	483	504	0	0	3	2			
8	0	0	0	0	476	511	0	0	3	2			
9	0	0	0	0	476	504	0	0	3	2			
10	0	0	0	0	480	508	0	0	3	2			
11	0	0	0	0	472	504	0	0	4	2			
12	0	0	0	0	472	504	0	0	3	2			
13	0	0	0	0	462	513	0	0	4	2			
14	0	0	0	0	463	510	0	0	3	2			
15	0	0	0	0	472	510	0	0	3	2			
0	0	0	0	0	472	508	0	0	3	2			
1	0	0	0	0	472	508	0	0	3	2			
2	0	0	0	0	478	512	0	0	3	2			
3	0	0	0	0	481	515	0	0	3	2			
4	0	0	0	0	492	513	0	0	3	2			
5	0	0	0	0	496	515	0	0	3	2			
6	0	0	0	0	487	515	0	0	3	2			
7	0	0	0	0	480	513	0	0	3	2			
8	0	0	0	0	480	512	0	0	3	2			
9	0	0	0	0	480	512	0	0	3	2			
10	0	0	0	0	480	508	0	0	3	2			
11	0	0	0	0	473	511	0	0	3	2			
12	0	0	0	0	472	511	0	0	3	2			
13	0	0	0	0	472	511	0	0	4	2			
14	0	0	0	0	472	508	0	0	4	2			
15	0	0	0	0	476	511	0	0	3	2			
0	0	0	0	0	478	510	0	0	3	2			
1	0	0	0	0	478	504	0	0	3	2			
2	0	0	0	0	476	512	0	0	3	2			
3	0	0	0	0	476	510	0	0	3	2			
4	0	0	0	0	483	508	0	0	3	2			
5	0	0	0	0	481	511	0	0	3	2			
6	0	0	0	0	480	511	0	0	3	2			
7	0	0	0	0	480	515	0	0	3	2			
8	0	0	0	0	473	510	0	0	3	2			
9	0	0	0	0	478	508	0	0	3	2			
10	0	0	0	0	480	510	0	0	3	2			
11	0	0	0	0	473	515	0	0	3	2			
12	0	0	0	0	472	510	0	0	3	2			
13	0	0	0	0	463	508	0	0	3	2			
14	0	0	0	0	472	504	0	0	3	2			
15	0	0	0	0	472	512	0	0	3	2			
0	0	0	0	0	480	508	0	0	3	2			
1	0	0	0	0	478	515	0	0	3	2			
2	0	0	0	0	476	504	0	0	3	2			
3	0	0	0	0	472	504	0	0	3	2			
4	0	0	0	0	467	508	0	0	3	2			
5	0	0	0	0	472	511	0	0	3	2			
6	0	0	0	0	472	512	0	0	4	2			
7	0	0	0	0	470	508	0	0	3	2			
8	0	0	0	0	472	511	0	0	3	2			
9	0	0	0	0	467	511	0	0	3	2			
10	0	0	0	0	472	508	0	0	4	2			
11	0	0	0	0	472	513	0	0	3	2			
12	0	0	0	0	476	508	0	0	3	2			
13	0	0	0	0	480	508	0	0	4	2			
14	0	0	0	0	483	510	0	0	3	2			
15	0	0	0	0	483	511	0	0	3	2			
0	0	0	0	0	481	512	0	0	3	2			
1	0	0	0	0	480	512	0	0	3	2			
2	0	0	0	0	486	511	0	0	4	2			
3	0	0	0	0	480	510	0	0	3	2			
4	0	0	0	0	476	504	0	0	3	2			
5	0	0	0	0	476	508	0	0	3	2			
6	0	0	0	0	472	508	0	0	3	2			
7	0	0	0	0	472	504	0	0	3	2			
8	0	0	0	0	467	508	0	0	3	2			
9	0	0	0	0	467	510	0	0	3	2			
10	0	0	0	0	472	513	0	0	3	2			
11	0	0	0	0	476	510	0	0	4	2			
12	0	0	0	0	480	510	0	0	3	2			
13	0	0	0	0	476	513	0	0	3	2			
14	0	0	0	0	476	513	0	0	3	2			
15	0	0	0	0	476	512	0	0	4	2			
0	0	0	0	0	476	512	0	0	3	2			
1	0	0	0	0	480	511	0	0	3	2			
2	0	0	0	0	476	512	0	0	3	2			
3	0	0	0	0	476	512	0	0	3	2			
4	0	0	0	0	472	512	0	0	3	2			
5	0	0	0	0	472	508	0	0	3	2			
6	0	0	0	0	476	508	0	0	4	2			
7	0	0	0	0	472	511	0	0	3	2			
8	0	0	0	0	472	508	0	0	3	2			
9	0	0	0	0	467	508	0	0	3	2			
10	0	0	0	0	462	505	0	0	3	2			
11	0	0	0	0	465	504	0	0	3	2			
12	0	0	0	0	472	508	0	0	3	2			
13	0	0	0	0	473	508	0	0	3	2			
14	0	0	0	0	476	508	0	0	3	2			
15	0	0	0	0	478	504	0	0	3	2			
0	0	0	0	0	480	508	0	0	3	2			
1	0	0	0	0	483	508	0	0	4	2			
2	0	0	0	0	497	510	0	0	3	2			
3	0	0	0	0	497	510	0	0	3	2			
4	0	0	0	0	492	508	0	0	3	2			
5	0	0	0	0	487	504	0	0	3	2			
6	0	0	0	0	480	508	0	0	3	2			
7	0	0	0	0	480	511	0	0	3	2			
8	0	0	0	0	472	510	0	0	3	2			
9	0	0	0	0	467	508	0	0	3	2			
10	0	0	0	0	460	504	0	0	3	2			
11	0	0	0	0	448	508	0	0	4	2			
12	0	0	0	0	463	508	0	0	3	2			
13	0	0	0	0	472	510	0	0	3	2			
14	0	0	0	0	480	508	0	0	4	2			
15	0	0	0	0	476	504	0	0	3	2			
0	0	0	0	0	472	504	0	0	3	2			
1	0	0	0	0	476	510	0	0	3	2			
2	0	0	0	0	476	510	0	0	3	2			
3	0	0	0	0	472	510	0	0	4	2			
4	0	0	0	0	473	508	0	0	3	2			
5	0	0	0	0	472	511	0	0	3	2			
6	0	0	0	0	473	512	0	0	3	2			
7	0	0	0	0	476	512	0	0	3	2			
8	0	0	0	0	476	510	0	0	3	2			
9	0	0	0	0	480	512	0	0	4	2			
10	0	0	0	0	476	508	0	0	3	2			
11	0	0	0	0	481	504	0	0	3	2			
12	0	0	0	0	481	510	0	0	3	2			
13	0	0	0	0	481	504	0	0	3	2			
14	0	0	0	0	483	508	0	0	3	2			
15	0	0	0	0	476	508	0	0	4	2			
0	0	0	0	0	483	504	0	0	3	2			
1	0	0	0	0	480	512	0	0	3	2			
2	0	0	0	0	480	504	0	0	3	2			
3	0	0	0	0	480	508	0	0	3	2			
4	0	0	0	0	472	511	0	0	3	2			
5	0	0	0	0	478	504	0	0	3	2			
6	0	0	0	0	472	513	0	0	3	2			
7	0	0	0	0	476	510	0	0	3	2			
8	0	0	0	0	481	512	0	0	3	2			
9	0	0	0	0	480	513	0	0	3	2			
10	0	0	0	0	486	512	0	0	3	2			
11	0	0	0	0	480	518	0	0	4	2			
12	0	0	0	0	480	512	0	0	3	2			
13	0	0	0	0	483	512	0	0	3	2			
14	0	0	0	0	481	515	0	0	3	2			
15	0	0	0	0	480	515	0	0	3	2			
0	0	0	0	0	480	519	0	0	3	2			
1	0	0	0	0	472	513	0	0	3	2			
2	0	0	0	0	476	512	0	0	3	2			
3	0	0	0	0	480	510	0	0	3	2			
4	0	0	0	0	478	515	0	0	3	2			
5	0	0	0	0	480	511	0	0	3	2			
6	0	0	0	0	480	508	0	0	3	2			
7	0	0	0	0	480	510	0	0	3	2			
8	0	0	0	0	472	508	0	0	3	2			
9	0	0	0	0	472	504	0	0	3	2			
10	0	0	0	0	472	512	0	0	3	2			
11	0	0	0	0	472	508	0	0	3	2			
12	0	0	0	0	472	504	0	0	3	2			
13	0	0	0	0	472	511	0	0	3	2			
14	0	0	0	0	472	512	0	0	3	2			
15	0	0	0	0	472	512	0	0	3	2			
0	0	0	0	0	476	511	0	0	3	2			
1	0	0	0	0	480	512	0	1	4	2			
2	0	0	0	0	476	512	0	0	3	2			
3	0	0	0	0	476	505	0	0	3	2			
4	0	0	0	0	480	510	0	0	3	2			
5	0	0	0	0	476	508	0	0	3	2			
6	0	0	0	0	480	505	0	0	3	2			
7	0	0	0	0	480	508	0	0	3	2			
8	0	0	0	0	472	511	0	0	3	2			
9	0	0	0	0	467	508	0	0	4	2			
10	0	0	0	0	463	504	0	0	3	2			
11	0	0	0	0	472	504	0	0	3	2			
12	0	0	0	0	472	508	0	0	3	2			
13	0	0	0	0	467	512	0	0	3	2			
14	0	0	0	0	472	512	0	0	3	2			
15	0	0	0	0	476	511	0	0	3	2			
0	0	0	0	0	480	510	0	0	3	2			
1	0	0	0	0	487	511	0	0	3	2			
2	0	0	0	0	481	515	0	0	3	2			
3	0	0	0	0	480	512	0	0	4	2			
4	0	0	0	0	480	508	0	0	3	2			
5	0	0	0	0	476	510	0	0	3	2			
6	0	0	0	0	463	511	0	0	3	2			
7	0	0	0	0	467	508	0	0	3	2			
8	0	0	0	0	467	510	0	0	3	2			
9	0	0	0	0	467	504	0	0	3	2			
10	0	0	0	0	472	508	0	0	3	2			
11	0	0	0	0	472	511	0	0	3	2			
12	0	0	0	0	478	511	0	0	3	2			
13	0	0	0	0	487	512	0	0	3	2			
14	0	0	0	0	487	504	0	0	3	2			
15	0	0	0	0	487	508	0	0	3	2			
0	0	0	0	0	476	511	0	0	3	2			
1	0	0	0	0	480	508	0	0	4	2			
2	0	0	0	0	472	511	0	0	3	2			
3	0	0	0	0	472	504	0	0	3	2			
4	0	0	0	0	472	504	0	0	3	2			
5	0	0	0	0	467	511	0	0	3	2			
6	0	0	0	0	467	510	0	0	3	2			
7	0	0	0	0	472	511	0	0	4	2			
8	0	0	0	0	480	512	0	0	3	2			
9	0	0	0	0	481	505	0	0	3	2			
10	0	0	0	0	481	508	0	0	3	2			
11	0	0	0	0	480	510	0	0	3	2			
12	0	0	0	0	480	515	0	0	3	2			
13	0	0	0	0	481	508	0	0	3	2			
14	0	0	0	0	483	508	0	0	3	2			
15	0	0	0	0	480	512	0	0	3	2			
0	0	0	0	0	480	511	0	0	3	2			
1	0	0	0	0	480	511	0	0	3	2			
2	0	0	0	0	483	510	0	0	3	2			
3	0	0	0	0	480	504	0	0	3	2			
4	0	0	0	0	473	504	0	0	4	2			
5	0	0	0	0	480	504	0	0	4	2			
6	0	0	0	0	472	512	0	0	3	2			
7	0	0	0	0	472	504	0	0	3	2			
8	0	0	0	0	476	508	0	0	3	2			
9	0	0	0	0	472	510	0	0	3	2			
10	0	0	0	0	467	512	0	0	3	2			
11	0	0	0	0	467	515	0	0	3	2			
12	0	0	0	0	472	511	0	0	3	2			
13	0	0	0	0	472	511	0	0	3	2			
14	0	0	0	0	467	511	0	0	3	2			
15	0	0	0	0	467	512	0	0	3	2			
0	0	0	0	0	472	512	0	0	3	2			
1	0	0	0	0	472	512	0	0	3	2			
2	0	0	0	0	481	510	0	0	3	2			
3	0	0	0	0	480	511	0	0	3	2			
4	0	0	0	0	481	508	0	0	3	2			
5	0	0	0	0	480	510	0	0	3	2			
6	0	0	0	0	478	504	0	0	3	2			
7	0	0	0	0	480	504	0	0	3	2			
8	0	0	0	0	476	508	0	0	3	2			
9	0	0	0	0	480	497	0	0	4	2			
10	0	0	0	0	472	508	0	0	3	2			
11	0	0	0	0	472	504	0	0	3	2			
12	0	0	0	0	473	510	0	0	3	2			
13	0	0	0	0	472	510	0	0	3	2			
14	0	0	0	0	467	513	0	0	3	2			
15	0	0	0	0	467	515	0	0	3	2			
0	0	0	0	0	463	511	0	0	3	2			
1	0	0	0	0	472	510	0	0	3	2			
2	0	0	0	0	472	512	0	0	3	2			
3	0	0	0	0	472	512	0	0	4	2			
4	0	0	0	0	472	512	0	0	4	2			
5	0	0	0	0	476	508	0	0	3	2			
6	0	0	0	0	487	510	0	0	3	2			
7	0	0	0	0	499	508	0	0	3	2			
8	0	0	0	0	497	512	0	0	3	2			
9	0	0	0	0	497	504	0	0	3	2			
10	0	0	0	0	496	508	0	0	3	2			
11	0	0	0	0	487	504	0	0	3	2			
12	0	0	0	0	486	504	0	0	4	2			
13	0	0	0	0	473	511	0	0	3	2			
14	0	0	0	0	462	504	0	0	3	2			
15	0	0	0	0	463	510	0	0	3	2			
0	0	0	0	0	467	504	0	0	3	2			
1	0	0	0	0	467	508	0	0	4	2			
2	0	0	0	0	480	511	0	0	3	2			
3	0	0	0	0	476	513	0	0	3	2			
4	0	0	0	0	472	511	0	0	3	2			
5	0	0	0	0	480	510	0	0	3	2			
6	0	0	0	0	472	513	0	0	3	2			
7	0	0	0	0	472	512	0	0	3	2			
8	0	0	0	0	472	515	0	0	3	2			
9	0	0	0	0	472	512	0	0	3	2			
10	0	0	0	0	478	510	0	0	3	2			
11	0	0	0	0	472	512	0	0	3	2			
12	0	0	0	0	476	512	0	0	3	2			
13	0	0	0	0	480	512	0	0	3	2			
14	0	0	0	0	481	511	0	0	4	2			
15	0	0	0	0	483	508	0	0	3	2			
0	0	0	0	0	483	508	0	0	3	2			
1	0	0	0	0	478	512	0	0	4	2			
2	0	0	0	0	473	504	0	0	3	2			
3	0	0	0	0	476	508	0	0	3	2			
4	0	0	0	0	472	499	0	0	3	2			
5	0	0	0	0	463	504	0	0	3	2			
6	0	0	0	0	467	508	0	0	3	2			
7	0	0	0	0	463	512	0	0	4	2			
8	0	0	0	0	463	504	0	0	3	2			
9	0	0	0	0	467	508	0	0	3	2			
10	0	0	0	0	463	511	0	0	3	2			
11	0	0	0	0	463	515	0	0	3	2			
12	0	0	0	0	472	515	0	0	3	2			
13	0	0	0	0	472	512	0	0	3	2			
14	0	0	0	0	472	511	0	0	3	2			
15	0	0	0	0	472	511	0	0	3	2			
0	0	0	0	0	476	510	0	0	3	2			
1	0	0	0	0	463	510	0	0	3	2			
2	0	0	0	0	463	504	0	0	3	2			
3	0	0	0	0	476	504	0	0	3	2			
4	0	0	0	0	478	512	0	0	3	2			
5	0	0	0	0	476	508	0	0	3	2			
6	0	0	0	0	480	511	0	0	3	2			
7	0	0	0	0	483	508	0	0	3	2			
8	0	0	0	0	492	508	0	0	3	2			
9	0	0	0	0	504	510	0	0	3	2			
10	0	0	0	0	496	513	0	0	3	2			
11	0	0	0	0	487	510	0	0	3	2			
12	0	0	0	0	483	504	0	0	3	2			
13	0	0	0	0	483	504	0	0	3	2			
14	0	0	0	0	478	510	0	0	3	2			
15	0	0	0	0	480	511	0	0	3	2			
0	0	0	0	0	480	511	0	0	3	2			
1	0	0	0	0	480	511	0	0	3	2			
2	0	0	0	0	480	504	0	0	3	2			
3	0	0	0	0	472	508	0	0	3	2			
4	0	0	0	0	472	510	0	0	3	2			
5	0	0	0	0	476	510	0	0	3	2			
6	0	0	0	0	476	510	0	0	4	2			
7	0	0	0	0	480	508	0	0	3	2			
8	0	0	0	0	472	510	0	0	3	2			
9	0	0	0	0	478	508	0	0	3	2			
10	0	0	0	0	472	511	0	0	3	2			
11	0	0	0	0	472	504	0	0	3	2			
12	0	0	0	0	476	504	0	0	3	2			
13	0	0	0	0	465	511	0	0	3	2			
14	0	0	0	0	465	511	0	0	3	2			
15	0	0	0	0	472	511	0	0	3	2			
0	0	0	0	0	476	510	0	0	3	2			
1	0	0	0	0	476	508	0	0	3	2			
2	0	0	0	0	472	508	0	0	3	2			
3	0	0	0	0	480	508	0	0	3	2			
4	0	0	0	0	473	511	0	0	3	2			
5	0	0	0	0	478	508	0	0	3	2			
6	0	0	0	0	480	510	0	0	3	2			
7	0	0	0	0	478	511	0	0	3	2			
8	0	0	0	0	476	512	0	0	3	2			
9	0	0	0	0	476	512	0	0	3	2			
10	0	0	0	0	480	510	0	0	3	2			
11	0	0	0	0	483	510	0	0	3	2			
12	0	0	0	0	476	511	0	0	3	2			
13	0	0	0	0	472	505	0	0	4	2			
14	0	0	0	0	472	508	0	0	3	2			
15	0	0	0	0	476	510	0	0	3	2			
0	0	0	0	0	472	504	0	0	3	2			
1	0	0	0	0	472	511	0	0	3	2			
2	0	0	0	0	472	513	0	0	4	2			
3	0	0	0	0	476	513	0	0	3	2			
4	0	0	0	0	476	512	0	0	3	2			
5	0	0	0	0	480	511	0	0	3	2			
6	0	0	0	0	472	511	0	0	4	2			
7	0	0	0	0	472	511	0	0	3	2			
8	0	0	0	0	476	511	0	0	4	2			
9	0	0	0	0	480	512	0	0	3	2			
10	0	0	0	0	478	505	0	0	3	2			
11	0	0	0	0	472	504	0	0	3	2			
12	0	0	0	0	472	508	0	0	3	2			
13	0	0	0	0	472	512	0	0	3	2			
14	0	0	0	0	472	508	0	0	3	2			
15	0	0	0	0	476	512	0	0	3	2			
0	0	0	0	0	463	508	0	0	3	2			
1	0	0	0	0	463	504	0	0	4	2			
2	0	0	0	0	463	510	0	0	4	2			
3	0	0	0	0	467	504	0	0	3	2			
4	0	0	0	0	472	511	0	0	3	2			
5	0	0	0	0	467	511	0	0	3	2			
6	0	0	0	0	472	511	0	0	3	2			
7	0	0	0	0	478	512	0	0	3	2			
8	0	0	0	0	481	508	0	0	3	2			
9	0	0	0	0	487	510	0	0	3	2			
10	0	0	0	0	487	512	0	0	3	2			
11	0	0	0	0	487	508	0	0	3	2			
12	0	0	0	0	483	511	0	0	3	2			
13	0	0	0	0	480	504	0	0	3	2			
14	0	0	0	0	480	504	0	0	3	2			
15	0	0	0	0	481	504	0	0	3	2			
0	0	0	0	0	478	512	0	0	3	2			
1	0	0	0	0	476	508	0	0	3	2			
2	0	0	0	0	472	504	0	0	3	2			
3	0	0	0	0	480	508	0	0	3	2			
4	0	0	0	0	480	511	0	0	3	2			
5	0	0	0	0	476	512	0	0	3	2			
6	0	0	0	0	472	512	0	0	4	2			
7	0	0	0	0	472	510	0	0	4	2			
8	0	0	0	0	473	508	0	0	3	2			
9	0	0	0	0	476	510	0	0	3	2			
10	0	0	0	0	472	512	0	0	3	2			
11	0	0	0	0	472	508	0	0	4	2			
12	0	0	0	0	472	508	0	0	3	2			
13	0	0	0	0	472	510	0	0	3	2			
14	0	0	0	0	467	512	0	0	3	2			
15	0	0	0	0	476	508	0	0	3	2			
0	0	0	0	0	467	510	0	0	3	2			
1	0	0	0	0	463	504	0	0	4	2			
2	0	0	0	0	472	505	0	0	3	2			
3	0	0	0	0	467	512	0	0	3	2			
4	0	0	0	0	467	510	0	0	4	2			
5	0	0	0	0	465	511	0	0	3	2			
6	0	0	0	0	467	508	0	0	3	2			
7	0	0	0	0	480	510	0	0	3	2			
8	0	0	0	0	487	511	0	0	3	2			
9	0	0	0	0	487	512	0	0	3	2			
10	0	0	0	0	481	512	0	0	3	2			
11	0	0	0	0	480	512	0	0	3	2			
12	0	0	0	0	480	504	0	0	3	2			
13	0	0	0	0	480	508	0	0	3	2			
14	0	0	0	0	487	505	0	0	3	2			
15	0	0	0	0	483	511	0	0	3	2			
0	0	0	0	0	480	504	0	0	3	2			
1	0	0	0	0	480	508	0	0	3	2			
2	0	0	0	0	476	508	0	0	3	2			
3	0	0	0	0	476	511	0	0	3	2			
4	0	0	0	0	478	512	0	0	3	2			
5	0	0	0	0	480	508	0	0	3	2			
6	0	0	0	0	480	508	0	0	3	2			
7	0	0	0	0	472	508	0	0	3	2			
8	0	0	0	0	480	504	0	0	3	2			
9	0	0	0	0	478	511	0	0	3	2			
10	0	0	0	0	480	499	0	0	3	2			
11	0	0	0	0	480	504	0	0	3	2			
12	0	0	0	0	473	508	0	0	3	2			
13	0	0	0	0	472	511	0	0	3	2			
14	0	0	0	0	472	512	0	0	3	2			
15	0	0	0	0	472	510	0	0	3	2			
0	0	0	0	0	478	511	0	0	3	2			
1	0	0	0	0	472	511	0	0	3	2			
2	0	0	0	0	472	513	0	0	3	2			
3	0	0	0	0	473	512	0	0	3	2			
4	0	0	0	0	480	512	0	0	3	2			
5	0	0	0	0	480	508	0	0	3	2			
6	0	0	0	0	480	505	0	0	3	2			
7	0	0	0	0	473	513	0	0	3	2			
8	0	0	0	0	476	504	0	0	3	2			
9	0	0	0	0	472	504	0	0	3	2			
10	0	0	0	0	476	505	0	0	3	2			
11	0	0	0	0	472	510	0	0	3	2			
12	0	0	0	0	472	511	0	0	3	2			
13	0	0	0	0	472	512	0	0	3	2			
14	0	0	0	0	467	510	0	0	3	2			
15	0	0	0	0	472	510	0	0	3	2			
0	0	0	0	0	463	511	0	0	3	2			
1	0	0	0	0	470	512	0	0	3	2			
2	0	0	0	0	472	512	0	0	3	2			
3	0	0	0	0	472	508	0	0	3	2			
4	0	0	0	0	472	508	0	0	3	2			
5	0	0	0	0	472	511	0	0	3	2			
6	0	0	0	0	480	508	0	0	3	2			
7	0	0	0	0	480	508	0	0	3	2			
8	0	0	0	0	480	504	0	0	3	2			
9	0	0	0	0	487	508	0	0	3	2			
10	0	0	0	0	483	505	0	0	3	2			
11	0	0	0	0	483	504	0	0	3	2			
12	0	0	0	0	481	508	0	0	3	2			
13	0	0	0	0	480	508	0	0	4	2			
14	0	0	0	0	483	508	0	0	3	2			
15	0	0	0	0	480	512	0	0	3	2			
0	0	0	0	0	480	511	0	0	3	2			
1	0	0	0	0	476	510	0	0	4	2			
2	0	0	0	0	476	508	0	0	3	2			
3	0	0	0	0	478	508	0	0	3	2			
4	0	0	0	0	473	508	0	0	3	2			
5	0	0	0	0	472	511	0	0	3	2			
6	0	0	0	0	472	511	0	0	3	2			
7	0	0	0	0	472	508	0	0	3	2			
8	0	0	0	0	472	508	0	0	3	2			
9	0	0	0	0	472	510	0	0	3	2			
10	0	0	0	0	472	512	0	0	3	2			
11	0	0	0	0	473	512	0	0	4	2			
12	0	0	0	0	478	511	0	0	3	2			
13	0	0	0	0	480	511	0	0	3	2			
14	0	0	0	0	478	511	0	0	3	2			
15	0	0	0	0	476	511	0	0	3	2			
0	0	0	0	0	476	512	0	0	3	2			
1	0	0	0	0	476	508	0	0	3	2			
2	0	0	0	0	476	505	0	0	3	2			
3	0	0	0	0	476	508	0	0	3	2			
4	0	0	0	0	478	508	0	0	3	2			
5	0	0	0	0	480	510	0	0	3	2			
6	0	0	0	0	476	508	0	0	4	2			
7	0	0	0	0	476	504	0	0	3	2			
8	0	0	0	0	473	504	0	0	3	2			
9	0	0	0	0	472	508	0	0	3	2			
10	0	0	0	0	472	511	0	0	3	2			
11	0	0	0	0	472	510	0	0	4	2			
12	0	0	0	0	476	508	0	0	4	2			
13	0	0	0	0	467	510	0	0	3	2			
14	0	0	0	0	465	510	0	0	3	2			
15	0	0	0	0	463	513	0	0	4	2			
0	0	0	0	0	460	511	0	0	3	2			
1	0	0	0	0	462	510	0	0	3	2			
2	0	0	0	0	462	508	0	0	3	2			
3	0	0	0	0	472	504	0	0	3	2			
4	0	0	0	0	470	510	0	0	3	2			
5	0	0	0	0	476	504	0	0	3	2			
6	0	0	0	0	483	504	0	0	3	2			
7	0	0	0	0	483	504	0	0	4	2			
8	0	0	0	0	496	499	0	0	4	2			
9	0	0	0	0	486	510	0	0	3	2			
10	0	0	0	0	480	499	0	0	3	2			
11	0	0	0	0	480	505	0	0	4	2			
12	0	0	0	0	472	510	0	0	3	2			
13	0	0	0	0	476	504	0	0	3	2			
14	0	0	0	0	470	513	0	0	3	2			
15	0	0	0	0	463	504	0	0	3	2			
0	0	0	0	0	467	511	0	0	4	2			
1	0	0	0	0	463	513	0	0	3	2			
2	0	0	0	0	467	508	0	0	4	2			
3	0	0	0	0	463	515	0	0	3	2			
4	0	0	0	0	467	505	0	0	3	2			
5	0	0	0	0	478	515	0	0	3	2			
6	0	0	0	0	480	512	0	0	3	2			
7	0	0	0	0	487	508	0	0	3	2			
8	0	0	0	0	487	513	0	0	3	2			
9	0	0	0	0	487	508	0	0	3	2			
10	0	0	0	0	487	511	0	0	3	2			
11	0	0	0	0	487	513	0	0	3	2			
12	0	0	0	0	487	515	0	0	3	2			
13	0	0	0	0	487	519	0	0	3	2			
14	0	0	0	0	483	513	0	0	3	2			
15	0	0	0	0	483	512	0	0	3	2			
0	0	0	0	0	480	513	0	0	3	2			
1	0	0	0	0	483	508	0	0	4	2			
2	0	0	0	0	476	512	0	0	3	2			
3	0	0	0	0	472	504	0	0	3	2			
4	0	0	0	0	472	508	0	0	3	2			
5	0	0	0	0	472	512	0	0	3	2			
6	0	0	0	0	472	510	0	0	3	2			
7	0	0	0	0	476	512	0	0	3	2			
8	0	0	0	0	480	511	0	0	3	2			
9	0	0	0	0	476	508	0	0	3	2			
10	0	0	0	0	472	508	0	0	3	2			
11	0	0	0	0	472	510	0	0	4	2			
12	0	0	0	0	476	511	0	0	3	2			
13	0	0	0	0	480	510	0	0	3	2			
14	0	0	0	0	481	510	0	0	3	2			
15	0	0	0	0	480	511	0	0	3	2			
0	0	0	0	0	483	508	0	0	4	2			
1	0	0	0	0	478	512	0	0	3	2			
2	0	0	0	0	476	504	0	0	3	2			
3	0	0	0	0	476	504	0	0	3	2			
4	0	0	0	0	467	504	0	0	3	2			
5	0	0	0	0	467	508	0	0	3	2			
6	0	0	0	0	467	512	0	0	3	2			
7	0	0	0	0	467	510	0	0	3	2			
8	0	0	0	0	472	511	0	0	3	2			
9	0	0	0	0	472	508	0	0	3	2			
10	0	0	0	0	472	508	0	0	3	2			
11	0	0	0	0	472	511	0	0	3	2			
12	0	0	0	0	473	508	0	0	3	2			
13	0	0	0	0	480	511	0	0	3	2			
14	0	0	0	0	480	512	0	0	3	2			
15	0	0	0	0	478	511	0	0	3	2			
0	0	0	0	0	476	512	0	0	3	2			
1	0	0	0	0	476	511	0	0	3	2			
2	0	0	0	0	478	511	0	0	3	2			
3	0	0	0	0	472	512	0	0	3	2			
4	0	0	0	0	472	508	0	0	3	2			
5	0	0	0	0	476	510	0	0	3	2			
6	0	0	0	0	480	511	0	0	3	2			
7	0	0	0	0	480	508	0	0	3	2			
8	0	0	0	0	476	505	0	0	3	2			
9	0	0	0	0	473	510	0	0	3	2			
10	0	0	0	0	472	511	0	0	3	2			
11	0	0	0	0	472	510	0	0	3	2			
12	0	0	0	0	472	508	0	0	3	2			
13	0	0	0	0	467	511	0	0	3	2			
14	0	0	0	0	472	513	0	0	3	2			
15	0	0	0	0	476	515	0	0	3	2			
0	0	0	0	0	473	511	0	0	3	2			
1	0	0	0	0	476	510	0	0	4	2			
2	0	0	0	0	467	511	0	0	3	2			
3	0	0	0	0	463	511	0	0	3	2			
4	0	0	0	0	467	512	0	0	3	2			
5	0	0	0	0	476	511	0	0	3	2			
6	0	0	0	0	476	504	0	0	3	2			
7	0	0	0	0	480	504	0	0	4	2			
8	0	0	0	0	476	508	0	0	3	2			
9	0	0	0	0	481	504	0	0	3	2			
10	0	0	0	0	492	504	0	0	3	2			
11	0	0	0	0	492	504	0	0	3	2			
12	0	0	0	0	476	508	0	0	3	2			
13	0	0	0	0	470	508	0	0	3	2			
14	0	0	0	0	467	511	0	0	3	2			
15	0	0	0	0	467	510	0	0	3	2			
0	0	0	0	0	467	508	0	0	3	2			
1	0	0	0	0	472	511	0	0	3	2			
2	0	0	0	0	467	515	0	0	3	2			
3	0	0	0	0	472	510	0	0	4	2			
4	0	0	0	0	473	504	0	0	3	2			
5	0	0	0	0	480	512	0	0	3	2			
6	0	0	0	0	476	511	0	0	3	2			
7	0	0	0	0	480	505	0	0	3	2			
8	0	0	0	0	480	511	0	0	3	2			
9	0	0	0	0	480	504	0	0	3	2			
10	0	0	0	0	480	508	0	0	3	2			
11	0	0	0	0	472	510	0	0	3	2			
12	0	0	0	0	472	511	0	0	3	2			
13	0	0	0	0	473	512	0	0	3	2			
14	0	0	0	0	476	508	0	0	3	2			
15	0	0	0	0	480	508	0	0	3	2			
0	0	0	0	0	478	510	0	0	3	2			
1	0	0	0	0	480	508	0	0	3	2			
2	0	0	0	0	476	512	0	0	3	2			
3	0	0	0	0	476	504	0	0	3	2			
4	0	0	0	0	476	504	0	0	3	2			
5	0	0	0	0	472	510	0	0	3	2			
6	0	0	0	0	467	512	0	0	4	2			
7	0	0	0	0	472	511	0	0	3	2			
8	0	0	0	0	476	512	0	0	3	2			
9	0	0	0	0	476	504	0	0	3	2			
10	0	0	0	0	480	510	0	0	3	2			
11	0	0	0	0	481	508	0	0	3	2			
12	0	0	0	0	480	511	0	0	3	2			
13	0	0	0	0	480	510	0	0	3	2			
14	0	0	0	0	483	508	0	0	3	2			
15	0	0	0	0	486	508	0	0	3	2			
0	0	0	0	0	483	510	0	0	3	2			
1	0	0	0	0	480	508	0	0	4	2			
2	0	0	0	0	480	511	0	0	3	2			
3	0	0	0	0	480	504	0	0	3	2			
4	0	0	0	0	476	505	0	0	3	2			
5	0	0	0	0	480	504	0	0	3	2			
6	0	0	0	0	480	511	0	0	3	2			
7	0	0	0	0	478	508	0	0	3	2			
8	0	0	0	0	480	510	0	0	3	2			
9	0	0	0	0	472	512	0	0	3	2			
10	0	0	0	0	472	513	0	0	3	2			
11	0	0	0	0	472	515	0	0	3	2			
12	0	0	0	0	472	511	0	0	3	2			
13	0	0	0	0	478	511	0	0	4	2			
14	0	0	0	0	473	511	0	0	3	2			
15	0	0	0	0	476	511	0	0	3	2			
0	0	0	0	0	476	511	0	0	3	2			
1	0	0	0	0	473	511	0	0	3	2			
2	0	0	0	0	480	508	0	0	3	2			
3	0	0	0	0	472	510	0	0	3	2			
4	0	0	0	0	472	508	0	0	3	2			
5	0	0	0	0	472	510	0	0	3	2			
6	0	0	0	0	472	508	0	0	4	2			
7	0	0	0	0	473	508	0	0	3	2			
8	0	0	0	0	472	510	0	0	3	2			
9	0	0	0	0	472	511	0	0	3	2			
10	0	0	0	0	472	510	0	0	3	2			
11	0	0	0	0	476	508	0	0	3	2			
12	0	0	0	0	478	504	0	0	3	2			
13	0	0	0	0	472	508	0	0	3	2			
14	0	0	0	0	472	508	0	0	3	2			
15	0	0	0	0	476	510	0	0	3	2			
0	0	0	0	0	476	508	0	0	3	2			
1	0	0	0	0	480	504	0	0	3	2			
2	0	0	0	0	476	508	0	0	3	2			
3	0	0	0	0	480	508	0	0	3	2			
4	0	0	0	0	476	512	0	0	3	2			
5	0	0	0	0	472	504	0	0	3	2			
6	0	0	0	0	472	508	0	0	3	2			
7	0	0	0	0	463	508	0	0	3	2			
8	0	0	0	0	467	499	0	0	3	2			
9	0	0	0	0	462	511	0	0	4	2			
10	0	0	0	0	463	504	0	0	3	2			
11	0	0	0	0	470	510	0	0	3	2			
12	0	0	0	0	472	510	0	0	3	2			
13	0	0	0	0	487	504	0	0	3	2			
14	0	0	0	0	487	513	0	0	3	2			
15	0	0	0	0	487	504	0	0	3	2			
0	0	0	0	0	487	511	0	0	4	2			
1	0	0	0	0	480	512	0	0	3	2			
2	0	0	0	0	476	512	0	0	3	2			
3	0	0	0	0	478	515	0	0	3	2			
4	0	0	0	0	480	512	0	0	3	2			
5	0	0	0	0	480	512	0	0	3	2			
6	0	0	0	0	476	513	0	0	3	2			
7	0	0	0	0	476	513	0	0	3	2			
8	0	0	0	0	476	513	0	0	3	2			
9	0	0	0	0	478	511	0	0	3	2			
10	0	0	0	0	480	510	0	0	3	2			
11	0	0	0	0	480	511	0	0	3	2			
12	0	0	0	0	478	512	0	0	3	2			
13	0	0	0	0	476	513	0	0	3	2			
14	0	0	0	0	480	511	0	0	3	2			
15	0	0	0	0	481	511	0	0	3	2			
0	0	0	0	0	472	512	0	0	3	2			
1	0	0	0	0	480	504	0	0	3	2			
2	0	0	0	0	478	508	0	0	3	2			
3	0	0	0	0	478	504	0	0	3	2			
4	0	0	0	0	476	504	0	0	3	2			
5	0	0	0	0	472	512	0	0	3	2			
6	0	0	0	0	472	512	0	0	3	2			
7	0	0	0	0	476	511	0	0	4	2			
8	0	0	0	0	478	512	0	0	3	2			
9	0	0	0	0	478	508	0	0	3	2			
10	0	0	0	0	472	508	0	0	3	2			
11	0	0	0	0	472	512	0	0	3	2			
12	0	0	0	0	472	512	0	0	3	2			
13	0	0	0	0	467	508	0	0	3	2			
14	0	0	0	0	472	510	0	0	3	2			
15	0	0	0	0	472	512	0	0	3	2			
0	0	0	0	0	472	512	0	0	3	2			
1	0	0	0	0	473	512	0	0	3	2			
2	0	0	0	0	476	512	0	0	3	2			
3	0	0	0	0	478	504	0	0	3	2			
4	0	0	0	0	476	508	0	0	3	2			
5	0	0	0	0	480	504	0	0	3	2			
6	0	0	0	0	472	515	0	0	3	2			
7	0	0	0	0	480	508	0	0	3	2			
8	0	0	0	0	480	505	0	0	3	2			
9	0	0	0	0	476	511	0	0	3	2			
10	0	0	0	0	476	512	0	0	3	2			
11	0	0	0	0	478	512	0	0	3	2			
12	0	0	0	0	476	510	0	0	3	2			
13	0	0	0	0	480	511	0	0	3	2			
14	0	0	0	0	478	511	0	0	4	2			
15	0	0	0	0	478	512	0	0	3	2			
0	0	0	0	0	473	511	0	0	3	2			
1	0	0	0	0	472	511	0	0	3	2			
2	0	0	0	0	476	510	0	0	3	2			
3	0	0	0	0	472	510	0	0	3	2			
4	0	0	0	0	476	504	0	0	3	2			
5	0	0	0	0	478	505	0	0	3	2			
6	0	0	0	0	476	504	0	0	3	2			
7	0	0	0	0	480	504	0	0	3	2			
8	0	0	0	0	476	504	0	0	3	2			
9	0	0	0	0	483	499	0	0	3	2			
10	0	0	0	0	476	510	0	0	3	2			
11	0	0	0	0	476	508	0	0	3	2			
12	0	0	0	0	480	512	0	0	3	2			
13	0	0	0	0	472	510	0	0	3	2			
14	0	0	0	0	472	512	0	0	3	2			
15	0	0	0	0	472	512	0	0	3	2			
0	0	0	0	0	472	510	0	0	3	2			
1	0	0	0	0	476	510	0	0	3	2			
2	0	0	0	0	476	512	0	0	3	2			
3	0	0	0	0	476	512	0	0	3	2			
4	0	0	0	0	476	512	0	0	3	2			
5	0	0	0	0	476	508	0	0	3	2			
6	0	0	0	0	481	508	0	0	3	2			
7	0	0	0	0	480	510	0	0	3	2			
8	0	0	0	0	483	505	0	0	3	2			
9	0	0	0	0	480	510	0	0	3	2			
10	0	0	0	0	480	499	0	0	3	2			
11	0	0	0	0	480	508	0	0	3	2			
12	0	0	0	0	478	508	0	0	3	2			
13	0	0	0	0	481	504	0	0	3	2			
14	0	0	0	0	476	508	0	0	3	2			
15	0	0	0	0	472	504	0	0	3	2			
0	0	0	0	0	472	505	0	0	3	2			
1	0	0	0	0	467	510	0	0	4	2			
2	0	0	0	0	472	510	0	0	3	2			
3	0	0	0	0	472	513	0	0	3	2			
4	0	0	0	0	472	508	0	0	3	2			
5	0	0	0	0	478	508	0	0	3	2			
6	0	0	0	0	476	512	0	0	3	2			
7	0	0	0	0	478	512	0	0	3	2			
8	0	0	0	0	480	515	0	0	3	2			
9	0	0	0	0	480	511	0	0	3	2			
10	0	0	0	0	480	511	0	0	3	2			
11	0	0	0	0	478	511	0	0	3	2			
12	0	0	0	0	472	512	0	0	3	2			
13	0	0	0	0	476	508	0	0	3	2			
14	0	0	0	0	480	511	0	0	3	2			
15	0	0	0	0	476	504	0	0	3	2			
0	0	0	0	0	473	508	0	0	3	2			
1	0	0	0	0	472	510	0	0	3	2			
2	0	0	0	0	472	513	0	0	3	2			
3	0	0	0	0	467	510	0	0	3	2			
4	0	0	0	0	472	508	0	0	3	2			
5	0	0	0	0	463	511	0	0	3	2			
6	0	0	0	0	467	512	0	0	3	2			
7	0	0	0	0	472	513	0	0	3	2			
8	0	0	0	0	472	511	0	0	3	2			
9	0	0	0	0	480	508	0	0	3	2			
10	0	0	0	0	476	510	0	0	4	2			
11	0	0	0	0	480	511	0	0	3	2			
12	0	0	0	0	481	510	0	0	3	2			
13	0	0	0	0	483	510	0	0	3	2			
14	0	0	0	0	480	504	0	0	3	2			
15	0	0	0	0	481	504	0	0	4	2			
0	0	0	0	0	472	512	0	0	3	2			
1	0	0	0	0	465	508	0	0	3	2			
2	0	0	0	0	472	505	0	0	3	2			
3	0	0	0	0	476	505	0	0	3	2			
4	0	0	0	0	472	511	0	0	3	2			
5	0	0	0	0	472	511	0	0	3	2			
6	0	0	0	0	472	511	0	0	3	2			
7	0	0	0	0	480	511	0	0	3	2			
8	0	0	0	0	494	510	0	0	3	2			
9	0	0	0	0	496	510	0	0	3	2			
10	0	0	0	0	481	513	0	0	3	2			
11	0	0	0	0	480	511	0	0	4	2			
12	0	0	0	0	480	504	0	0	3	2			
13	0	0	0	0	480	508	0	0	3	2			
14	0	0	0	0	476	510	0	0	3	2			
15	0	0	0	0	473	512	0	0	3	2			
0	0	0	0	0	476	513	0	0	3	2			
1	0	0	0	0	476	511	0	0	3	2			
2	0	0	0	0	480	510	0	0	3	2			
3	0	0	0	0	480	511	0	0	3	2			
4	0	0	0	0	472	512	0	0	3	2			
5	0	0	0	0	472	504	0	0	3	2			
6	0	0	0	0	472	508	0	0	3	2			
7	0	0	0	0	467	504	0	0	3	2			
8	0	0	0	0	467	508	0	0	3	2			
9	0	0	0	0	467	512	0	0	3	2			
10	0	0	0	0	472	513	0	0	3	2			
11	0	0	0	0	472	511	0	0	3	2			
12	0	0	0	0	472	510	0	0	3	2			
13	0	0	0	0	472	512	0	0	3	2			
14	0	0	0	0	472	512	0	0	3	2			
15	0	0	0	0	480	515	0	0	3	2			
0	0	0	0	0	480	512	0	0	3	2			
1	0	0	0	0	481	508	0	0	3	2			
2	0	0	0	0	480	510	0	0	3	2			
3	0	0	0	0	476	511	0	0	3	2			
4	0	0	0	0	480	512	0	0	3	2			
5	0	0	0	0	480	511	0	0	3	2			
6	0	0	0	0	480	504	0	0	3	2			
7	0	0	0	0	481	504	0	0	3	2			
8	0	0	0	0	480	510	0	0	3	2			
9	0	0	0	0	480	508	0	0	3	2			
10	0	0	0	0	476	508	0	0	3	2			
11	0	0	0	0	480	504	0	0	4	2			
12	0	0	0	0	472	508	0	0	3	2			
13	0	0	0	0	472	510	0	0	3	2			
14	0	0	0	0	472	511	0	0	3	2			
15	0	0	0	0	472	510	0	0	3	2			
0	0	0	0	0	476	508	0	0	3	2			
1	0	0	0	0	472	511	0	0	3	2			
2	0	0	0	0	472	512	0	0	3	2			
3	0	0	0	0	476	515	0	0	3	2			
4	0	0	0	0	473	511	0	0	3	2			
5	0	0	0	0	476	510	0	0	3	2			
6	0	0	0	0	472	511	0	0	3	2			
7	0	0	0	0	473	511	0	0	3	2			
8	0	0	0	0	473	511	0	0	3	2			
9	0	0	0	0	472	510	0	0	3	2			
10	0	0	0	0	478	508	0	0	3	2			
11	0	0	0	0	472	508	0	0	3	2			
12	0	0	0	0	472	510	0	0	3	2			
13	0	0	0	0	476	511	0	0	3	2			
14	0	0	0	0	480	508	0	0	3	2			
15	0	0	0	0	480	504	0	0	3	2			
0	0	0	0	0	473	508	0	0	3	2			
1	0	0	0	0	472	508	0	0	3	2			
2	0	0	0	0	472	511	0	0	3	2			
3	0	0	0	0	476	510	0	0	3	2			
4	0	0	0	0	480	508	0	0	3	2			
5	0	0	0	0	472	510	0	0	3	2			
6	0	0	0	0	476	510	0	0	3	2			
7	0	0	0	0	480	510	0	0	3	2			
8	0	0	0	0	480	505	0	0	3	2			
9	0	0	0	0	483	504	0	0	3	2			
10	0	0	0	0	478	508	0	0	3	2			
11	0	0	0	0	473	511	0	0	3	2			
12	0	0	0	0	472	510	0	0	3	2			
13	0	0	0	0	472	504	0	0	3	2			
14	0	0	0	0	476	504	0	0	3	2			
15	0	0	0	0	467	508	0	0	3	2			
0	0	0	0	0	472	510	0	0	3	2			
1	0	0	0	0	472	508	0	0	3	2			
2	0	0	0	0	472	505	0	0	3	2			
3	0	0	0	0	480	508	0	0	3	2			
4	0	0	0	0	476	504	0	0	3	2			
5	0	0	0	0	480	504	0	0	3	2			
6	0	0	0	0	472	510	0	0	3	2			
7	0	0	0	0	476	502	0	0	3	2			
8	0	0	0	0	481	508	0	0	3	2			
9	0	0	0	0	478	510	0	0	3	2			
10	0	0	0	0	480	504	0	0	4	2			
11	0	0	0	0	476	511	0	0	3	2			
12	0	0	0	0	478	504	0	0	3	2			
13	0	0	0	0	480	508	0	0	3	2			
14	0	0	0	0	478	511	0	0	3	2			
15	0	0	0	0	481	504	0	0	3	2			
0	0	0	0	0	476	511	0	0	3	2			
1	0	0	0	0	473	504	0	0	4	2			
2	0	0	0	0	480	511	0	0	3	2			
3	0	0	0	0	472	511	0	0	3	2			
4	0	0	0	0	480	508	0	0	3	2			
5	0	0	0	0	472	512	0	0	3	2			
6	0	0	0	0	465	508	0	0	3	2			
7	0	0	0	0	472	511	0	0	3	2			
8	0	0	0	0	467	512	0	0	3	2			
9	0	0	0	0	476	504	0	0	3	2			
10	0	0	0	0	472	515	0	0	3	2			
11	0	0	0	0	476	512	0	0	4	2			
12	0	0	0	0	483	513	0	0	3	2			
13	0	0	0	0	487	515	0	0	3	2			
14	0	0	0	0	480	515	0	0	3	2			
15	0	0	0	0	480	519	0	0	4	2			
0	0	0	0	0	473	512	0	0	3	2			
1	0	0	0	0	476	512	0	0	4	2			
2	0	0	0	0	472	515	0	0	3	2			
3	0	0	0	0	476	512	0	0	3	2			
4	0	0	0	0	480	513	0	0	3	2			
5	0	0	0	0	480	510	0	0	3	2			
6	0	0	0	0	487	508	0	0	4	2			
7	0	0	0	0	492	510	0	0	3	2			
8	0	0	0	0	481	511	0	0	3	2			
9	0	0	0	0	481	505	0	0	3	2			
10	0	0	0	0	483	508	0	0	3	2			
11	0	0	0	0	476	499	0	0	3	2			
12	0	0	0	0	467	508	0	0	3	2			
13	0	0	0	0	467	510	0	0	3	2			
14	0	0	0	0	472	513	0	0	3	2			
15	0	0	0	0	472	510	0	0	3	2			
0	0	0	0	0	476	511	0	0	3	2			
1	0	0	0	0	472	508	0	0	3	2			
2	0	0	0	0	472	508	0	0	3	2			
3	0	0	0	0	476	512	0	0	3	2			
4	0	0	0	0	476	510	0	0	3	2			
5	0	0	0	0	480	508	0	0	3	2			
6	0	0	0	0	472	510	0	0	3	2			
7	0	0	0	0	472	511	0	0	3	2			
8	0	0	0	0	472	511	0	0	3	2			
9	0	0	0	0	472	511	0	0	3	2			
10	0	0	0	0	478	510	0	0	3	2			
11	0	0	0	0	480	511	0	0	3	2			
12	0	0	0	0	472	512	0	0	3	2			
13	0	0	0	0	470	504	0	0	3	2			
14	0	0	0	0	472	504	0	0	3	2			
15	0	0	0	0	476	504	0	0	3	2			
0	0	0	0	0	472	508	0	0	3	2			
1	0	0	0	0	467	508	0	0	3	2			
2	0	0	0	0	467	508	0	0	3	2			
3	0	0	0	0	472	510	0	0	3	2			
4	0	0	0	0	472	510	0	0	3	2			
5	0	0	0	0	472	511	0	0	3	2			
6	0	0	0	0	472	515	0	0	3	2			
7	0	0	0	0	472	512	0	0	4	2			
8	0	0	0	0	472	511	0	0	3	2			
9	0	0	0	0	480	512	0	0	3	2			
10	0	0	0	0	480	513	0	0	3	2			
11	0	0	0	0	478	508	0	0	3	2			
12	0	0	0	0	476	512	0	0	3	2			
13	0	0	0	0	476	511	0	0	4	2			
14	0	0	0	0	480	508	0	0	3	2			
15	0	0	0	0	480	511	0	0	3	2			
0	0	0	0	0	476	515	0	0	3	2			
1	0	0	0	0	476	510	0	0	4	2			
2	0	0	0	0	478	504	0	0	3	2			
3	0	0	0	0	480	511	0	0	3	2			
4	0	0	0	0	476	508	0	0	3	2			
5	0	0	0	0	476	511	0	0	3	2			
6	0	0	0	0	478	513	0	0	3	2			
7	0	0	0	0	476	504	0	0	3	2			
8	0	0	0	0	480	508	0	0	3	2			
9	0	0	0	0	473	511	0	0	3	2			
10	0	0	0	0	480	508	0	0	3	2			
11	0	0	0	0	476	512	0	0	3	2			
12	0	0	0	0	476	504	0	0	3	2			
13	0	0	0	0	476	508	0	0	3	2			
14	0	0	0	0	481	511	0	0	3	2			
15	0	0	0	0	478	512	0	0	3	2			
0	0	0	0	0	480	508	0	0	3	2			
1	0	0	0	0	480	508	0	0	4	2			
2	0	0	0	0	483	508	0	0	3	2			
3	0	0	0	0	481	511	0	0	3	2			
4	0	0	0	0	480	511	0	0	3	2			
5	0	0	0	0	480	512	0	0	3	2			
6	0	0	0	0	476	508	0	0	3	2			
7	0	0	0	0	480	508	0	0	3	2			
8	0	0	0	0	480	508	0	0	3	2			
9	0	0	0	0	472	512	0	0	4	2			
10	0	0	0	0	470	508	0	0	3	2			
11	0	0	0	0	467	504	0	0	3	2			
12	0	0	0	0	472	510	0	0	3	2			
13	0	0	0	0	473	512	0	0	3	2			
14	0	0	0	0	476	511	0	0	3	2			
15	0	0	0	0	472	510	0	0	3	2			
0	0	0	0	0	472	512	0	0	3	2			
1	0	0	0	0	472	504	0	0	3	2			
2	0	0	0	0	465	504	0	0	3	2			
3	0	0	0	0	472	504	0	0	3	2			
4	0	0	0	0	463	511	0	0	3	2			
5	0	0	0	0	472	508	0	0	3	2			
6	0	0	0	0	480	510	0	0	3	2			
7	0	0	0	0	481	508	0	0	3	2			
8	0	0	0	0	476	510	0	0	3	2			
9	0	0	0	0	467	511	0	0	3	2			
10	0	0	0	0	467	508	0	0	3	2			
11	0	0	0	0	476	511	0	0	3	2			
12	0	0	0	0	473	510	0	0	3	2			
13	0	0	0	0	476	508	0	0	3	2			
14	0	0	0	0	480	511	0	0	3	2			
15	0	0	0	0	481	508	0	0	3	2			
0	0	0	0	0	487	504	0	0	3	2			
1	0	0	0	0	487	508	0	0	3	2			
2	0	0	0	0	480	515	0	0	3	2			
3	0	0	0	0	476	511	0	0	4	2			
4	0	0	0	0	476	508	0	0	3	2			
5	0	0	0	0	476	508	0	0	3	2			
6	0	0	0	0	472	512	0	0	4	2			
7	0	0	0	0	476	508	0	0	3	2			
8	0	0	0	0	476	510	0	0	3	2			
9	0	0	0	0	472	508	0	0	3	2			
10	0	0	0	0	476	508	0	0	3	2			
11	0	0	0	0	472	510	0	0	3	2			
12	0	0	0	0	472	510	0	0	3	2			
13	0	0	0	0	473	512	0	0	3	2			
14	0	0	0	0	480	508	0	0	3	2			
15	0	0	0	0	483	508	0	0	3	2			
0	0	0	0	0	480	511	0	0	3	2			
1	0	0	0	0	480	504	0	0	3	2			
2	0	0	0	0	472	512	0	0	3	2			
3	0	0	0	0	472	505	0	0	3	2			
4	0	0	0	0	472	508	0	0	4	2			
5	0	0	0	0	463	511	0	0	3	2			
6	0	0	0	0	463	511	0	0	3	2			
7	0	0	0	0	465	511	0	0	3	2			
8	0	0	0	0	472	512	0	0	3	2			
9	0	0	0	0	467	504	0	0	3	2			
10	0	0	0	0	467	508	0	0	3	2			
11	0	0	0	0	473	510	0	0	4	2			
12	0	0	0	0	476	513	0	0	3	2			
13	0	0	0	0	476	510	0	0	3	2			
14	0	0	0	0	481	508	0	0	3	2			
15	0	0	0	0	486	511	0	0	3	2			
0	0	0	0	0	492	513	0	0	3	2			
1	0	0	0	0	489	511	0	0	3	2			
2	0	0	0	0	487	511	0	0	3	2			
3	0	0	0	0	481	499	0	0	3	2			
4	0	0	0	0	478	504	0	0	3	2			
5	0	0	0	0	480	504	0	0	3	2			
6	0	0	0	0	467	511	0	0	3	2			
7	0	0	0	0	463	504	0	0	3	2			
8	0	0	0	0	470	504	0	0	3	2			
9	0	0	0	0	465	510	0	0	3	2			
10	0	0	0	0	467	512	0	0	3	2			
11	0	0	0	0	467	515	0	0	3	2			
12	0	0	0	0	472	512	0	0	3	2			
13	0	0	0	0	476	512	0	0	3	2			
14	0	0	0	0	473	512	0	0	3	2			
15	0	0	0	0	472	513	0	0	3	2			
0	0	0	0	0	476	513	0	0	3	2			
1	0	0	0	0	478	511	0	0	3	2			
2	0	0	0	0	480	508	0	0	3	2			
3	0	0	0	0	480	510	0	0	3	2			
4	0	0	0	0	483	508	0	0	3	2			
5	0	0	0	0	480	508	0	0	3	2			
6	0	0	0	0	476	504	0	0	3	2			
7	0	0	0	0	480	504	0	0	3	2			
8	0	0	0	0	472	504	0	0	3	2			
9	0	0	0	0	480	499	0	0	3	2			
10	0	0	0	0	472	510	0	0	3	2			
11	0	0	0	0	472	508	0	0	3	2			
12	0	0	0	0	476	505	0	0	4	2			
13	0	0	0	0	472	511	0	0	3	2			
14	0	0	0	0	472	512	0	0	3	2			
15	0	0	0	0	472	513	0	0	3	2			
0	0	0	0	0	472	510	0	0	3	2			
1	0	0	0	0	476	510	0	0	3	2			
2	0	0	0	0	472	511	0	0	4	2			
3	0	0	0	0	476	512	0	0	3	2			
4	0	0	0	0	478	510	0	0	3	2			
5	0	0	0	0	480	510	0	0	3	2			
6	0	0	0	0	483	511	0	0	3	2			
7	0	0	0	0	487	510	0	0	3	2			
8	0	0	0	0	478	515	0	0	3	2			
9	0	0	0	0	480	508	0	0	3	2			
10	0	0	0	0	480	508	0	0	3	2			
11	0	0	0	0	480	504	0	0	3	2			
12	0	0	0	0	472	504	0	0	3	2			
13	0	0	0	0	472	508	0	0	3	2			
14	0	0	0	0	472	512	0	0	3	2			
15	0	0	0	0	472	508	0	0	3	2			
0	0	0	0	0	472	510	0	0	3	2			
1	0	0	0	0	463	510	0	0	4	2			
2	0	0	0	0	460	515	0	0	3	2			
3	0	0	0	0	463	511	0	0	3	2			
4	0	0	0	0	465	508	0	0	3	2			
5	0	0	0	0	473	511	0	0	3	2			
6	0	0	0	0	473	512	0	0	3	2			
7	0	0	0	0	486	508	0	0	3	2			
8	0	0	0	0	492	511	0	1	3	2			
9	0	0	0	0	496	508	0	0	3	2			
10	0	0	0	0	492	504	0	0	3	2			
11	0	0	0	0	480	508	0	0	3	2			
12	0	0	0	0	476	511	0	0	3	2			
13	0	0	0	0	476	512	0	0	3	2			
14	0	0	0	0	473	508	0	0	3	2			
15	0	0	0	0	476	505	0	0	3	2			
0	0	0	0	0	467	512	0	0	3	2			
1	0	0	0	0	478	508	0	0	3	2			
2	0	0	0	0	476	512	0	0	3	2			
3	0	0	0	0	473	504	0	0	3	2			
4	0	0	0	0	476	504	0	0	3	2			
5	0	0	0	0	472	508	0	0	3	2			
6	0	0	0	0	476	512	0	0	3	2			
7	0	0	0	0	480	511	0	0	4	2			
8	0	0	0	0	481	511	0	0	3	2			
9	0	0	0	0	480	508	0	0	3	2			
10	0	0	0	0	476	508	0	0	3	2			
11	0	0	0	0	476	511	0	0	3	2			
12	0	0	0	0	476	512	0	0	3	2			
13	0	0	0	0	476	511	0	0	3	2			
14	0	0	0	0	480	510	0	0	3	2			
15	0	0	0	0	476	513	0	0	3	2			
0	0	0	0	0	467	511	0	0	3	2			
1	0	0	0	0	465	511	0	0	4	2			
2	0	0	0	0	472	508	0	0	3	2			
3	0	0	0	0	472	504	0	0	3	2			
4	0	0	0	0	467	504	0	0	3	2			
5	0	0	0	0	476	504	0	0	3	2			
6	0	0	0	0	472	508	0	0	3	2			
7	0	0	0	0	472	508	0	0	3	2			
8	0	0	0	0	486	510	0	0	3	2			
9	0	0	0	0	480	508	0	0	3	2			
10	0	0	0	0	478	508	0	0	3	2			
11	0	0	0	0	476	513	0	0	3	2			
12	0	0	0	0	476	511	0	0	3	2			
13	0	0	0	0	480	511	0	0	3	2			
14	0	0	0	0	476	511	0	0	3	2			
15	0	0	0	0	476	513	0	0	3	2			
0	0	0	0	0	472	515	0	0	3	2			
1	0	0	0	0	476	511	0	0	3	2			
2	0	0	0	0	480	512	0	0	3	2			
3	0	0	0	0	472	511	0	0	3	2			
4	0	0	0	0	480	499	0	0	4	2			
5	0	0	0	0	472	511	0	0	3	2			
6	0	0	0	0	476	504	0	0	3	2			
7	0	0	0	0	480	504	0	0	3	2			
8	0	0	0	0	476	510	0	0	3	2			
9	0	0	0	0	478	510	0	0	3	2			
10	0	0	0	0	478	512	0	0	3	2			
11	0	0	0	0	480	511	0	0	3	2			
12	0	0	0	0	480	511	0	0	3	2			
13	0	0	0	0	472	512	0	0	3	2			
14	0	0	0	0	472	512	0	0	3	2			
15	0	0	0	0	472	512	0	0	3	2			
0	0	0	0	0	472	510	0	0	3	2			
1	0	0	0	0	480	508	0	0	3	2			
2	0	0	0	0	476	512	0	0	3	2			
3	0	0	0	0	480	508	0	0	3	2			
4	0	0	0	0	480	511	0	0	3	2			
5	0	0	0	0	478	504	0	0	3	2			
6	0	0	0	0	481	504	0	0	3	2			
7	0	0	0	0	480	504	0	0	3	2			
8	0	0	0	0	486	497	0	0	3	2			
9	0	0	0	0	480	505	0	0	3	2			
10	0	0	0	0	472	504	0	0	3	2			
11	0	0	0	0	476	508	0	0	3	2			
12	0	0	0	0	472	510	0	0	3	2			
13	0	0	0	0	470	511	0	0	3	2			
14	0	0	0	0	472	513	0	0	3	2			
15	0	0	0	0	467	511	0	0	3	2			
0	0	0	0	0	472	510	0	0	3	2			
1	0	0	0	0	472	511	0	0	3	2			
2	0	0	0	0	472	513	0	0	3	2			
3	0	0	0	0	472	512	0	0	3	2			
4	0	0	0	0	472	512	0	0	3	2			
5	0	0	0	0	476	510	0	0	3	2			
6	0	0	0	0	480	512	0	0	3	2			
7	0	0	0	0	472	513	0	0	3	2			
8	0	0	0	0	476	508	0	0	3	2			
9	0	0	0	0	480	510	0	0	3	2			
10	0	0	0	0	480	504	0	0	3	2			
11	0	0	0	0	478	508	0	0	3	2			
12	0	0	0	0	476	511	0	0	3	2			
13	0	0	0	0	478	513	0	0	3	2			
14	0	0	0	0	476	508	0	0	3	2			
15	0	0	0	0	478	508	0	0	4	2			
0	0	0	0	0	480	508	0	0	3	2			
1	0	0	0	0	472	511	0	0	4	2			
2	0	0	0	0	472	508	0	0	3	2			
3	0	0	0	0	472	499	0	0	3	2			
4	0	0	0	0	467	510	0	0	4	2			
5	0	0	0	0	463	508	0	0	3	2			
6	0	0	0	0	465	511	0	0	3	2			
7	0	0	0	0	467	512	0	0	4	2			
8	0	0	0	0	472	508	0	0	3	2			
9	0	0	0	0	480	512	0	0	3	2			
10	0	0	0	0	472	511	0	0	3	2			
11	0	0	0	0	480	508	0	0	3	2			
12	0	0	0	0	487	510	0	0	3	2			
13	0	0	0	0	487	508	0	0	3	2			
14	0	0	0	0	481	504	0	0	3	2			
15	0	0	0	0	476	510	0	0	3	2			
0	0	0	0	0	472	510	0	0	3	2			
1	0	0	0	0	472	511	0	0	3	2			
2	0	0	0	0	473	508	0	0	3	2			
3	0	0	0	0	476	510	0	0	3	2			
4	0	0	0	0	467	510	0	0	3	2			
5	0	0	0	0	476	504	0	0	4	2			
6	0	0	0	0	472	511	0	0	3	2			
7	0	0	0	0	472	504	0	0	3	2			
8	0	0	0	0	472	504	0	0	3	2			
9	0	0	0	0	472	511	0	0	3	2			
10	0	0	0	0	472	512	0	0	3	2			
11	0	0	0	0	472	512	0	0	4	2			
12	0	0	0	0	480	512	0	0	3	2			
13	0	0	0	0	487	511	0	0	3	2			
14	0	0	0	0	487	512	0	0	3	2			
15	0	0	0	0	487	512	0	0	3	2			
0	0	0	0	0	487	512	0	0	3	2			
1	0	0	0	0	483	511	0	0	3	2			
2	0	0	0	0	483	508	0	0	3	2			
3	0	0	0	0	476	511	0	0	3	2			
4	0	0	0	0	476	510	0	0	3	2			
5	0	0	0	0	476	510	0	0	3	2			
6	0	0	0	0	473	505	0	0	3	2			
7	0	0	0	0	476	504	0	0	3	2			
8	0	0	0	0	473	508	0	0	3	2			
9	0	0	0	0	473	510	0	0	3	2			
10	0	0	0	0	472	511	0	0	3	2			
11	0	0	0	0	472	508	0	0	4	2			
12	0	0	0	0	476	508	0	0	3	2			
13	0	0	0	0	467	510	0	0	3	2			
14	0	0	0	0	465	511	0	0	3	2			
15	0	0	0	0	465	511	0	0	3	2			
0	0	0	0	0	472	504	0	0	3	2			
1	0	0	0	0	476	508	0	0	3	2			
2	0	0	0	0	472	511	0	0	3	2			
3	0	0	0	0	476	513	0	0	3	2			
4	0	0	0	0	480	511	0	0	3	2			
5	0	0	0	0	480	505	0	0	3	2			
6	0	0	0	0	480	504	0	0	3	2			
7	0	0	0	0	472	510	0	0	3	2			
8	0	0	0	0	476	508	0	0	3	2			
9	0	0	0	0	472	511	0	0	3	2			
10	0	0	0	0	472	505	0	0	3	2			
11	0	0	0	0	472	504	0	0	3	2			
12	0	0	0	0	463	508	0	0	3	2			
13	0	0	0	0	463	510	0	0	3	2			
14	0	0	0	0	465	508	0	0	3	2			
15	0	0	0	0	467	510	0	0	3	2			
0	0	0	0	0	472	508	0	0	3	2			
1	0	0	0	0	473	510	0	0	4	2			
2	0	0	0	0	472	513	0	0	3	2			
3	0	0	0	0	480	504	0	0	3	2			
4	0	0	0	0	480	508	0	0	3	2			
5	0	0	0	0	480	504	0	0	3	2			
6	0	0	0	0	480	504	0	0	3	2			
7	0	0	0	0	472	512	0	0	3	2			
8	0	0	0	0	473	505	0	0	3	2			
9	0	0	0	0	480	510	0	0	3	2			
10	0	0	0	0	480	504	0	0	3	2			
11	0	0	0	0	487	510	0	0	3	2			
12	0	0	0	0	480	515	0	0	3	2			
13	0	0	0	0	480	508	0	0	3	2			
14	0	0	0	0	480	510	0	0	3	2			
15	0	0	0	0	478	504	0	0	3	2			
0	0	0	0	0	480	505	0	0	3	2			
1	0	0	0	0	472	512	0	0	4	2			
2	0	0	0	0	472	513	0	0	3	2			
3	0	0	0	0	473	511	0	0	3	2			
4	0	0	0	0	476	512	0	0	3	2			
5	0	0	0	0	472	515	0	0	3	2			
6	0	0	0	0	473	518	0	0	4	2			
7	0	0	0	0	478	519	0	0	3	2			
8	0	0	0	0	478	515	0	0	3	2			
9	0	0	0	0	480	512	0	0	3	2			
10	0	0	0	0	476	515	0	0	3	2			
11	0	0	0	0	467	519	0	0	3	2			
12	0	0	0	0	472	512	0	0	3	2			
13	0	0	0	0	476	510	0	0	3	2			
14	0	0	0	0	480	512	0	0	3	2			
15	0	0	0	0	478	511	0	0	3	2			
0	0	0	0	0	480	508	0	0	4	2			
1	0	0	0	0	487	510	0	0	3	2			
2	0	0	0	0	494	508	0	0	3	2			
3	0	0	0	0	494	504	0	0	3	2			
4	0	0	0	0	480	508	0	0	3	2			
5	0	0	0	0	472	512	0	0	3	2			
6	0	0	0	0	472	512	0	0	3	2			
7	0	0	0	0	472	508	0	0	3	2			
8	0	0	0	0	473	508	0	0	3	2			
9	0	0	0	0	472	512	0	0	3	2			
10	0	0	0	0	472	513	0	0	3	2			
11	0	0	0	0	472	511	0	0	3	2			
12	0	0	0	0	472	508	0	0	3	2			
13	0	0	0	0	480	508	0	0	3	2			
14	0	0	0	0	472	511	0	0	3	2			
15	0	0	0	0	472	512	0	0	3	2			
0	0	0	0	0	472	511	0	0	3	2			
1	0	0	0	0	472	508	0	0	3	2			
2	0	0	0	0	478	508	0	0	3	2			
3	0	0	0	0	472	510	0	0	3	2			
4	0	0	0	0	467	511	0	0	3	2			
5	0	0	0	0	472	511	0	0	3	2			
6	0	0	0	0	472	508	0	0	4	2			
7	0	0	0	0	478	505	0	0	3	2			
8	0	0	0	0	476	511	0	0	3	2			
9	0	0	0	0	478	511	0	0	3	2			
10	0	0	0	0	476	508	0	0	3	2			
11	0	0	0	0	478	508	0	0	3	2			
12	0	0	0	0	481	504	0	0	3	2			
13	0	0	0	0	476	508	0	0	3	2			
14	0	0	0	0	472	510	0	0	3	2			
15	0	0	0	0	472	511	0	0	4	2			
0	0	0	0	0	476	508	0	0	3	2			
1	0	0	0	0	480	508	0	0	4	2			
2	0	0	0	0	481	505	0	0	3	2			
3	0	0	0	0	476	512	0	0	3	2			
4	0	0	0	0	480	508	0	0	3	2			
5	0	0	0	0	481	508	0	0	3	2			
6	0	0	0	0	480	504	0	0	3	2			
7	0	0	0	0	480	504	0	0	3	2			
8	0	0	0	0	476	511	0	0	3	2			
9	0	0	0	0	480	504	0	0	3	2			
10	0	0	0	0	480	510	0	0	3	2			
11	0	0	0	0	480	504	0	0	3	2			
12	0	0	0	0	480	504	0	0	3	2			
13	0	0	0	0	472	511	0	0	3	2			
14	0	0	0	0	476	508	0	0	3	2			
15	0	0	0	0	480	510	0	0	3	2			
0	0	0	0	0	480	505	0	0	3	2			
1	0	0	0	0	472	508	0	0	4	2			
2	0	0	0	0	472	512	0	0	3	2			
3	0	0	0	0	476	518	0	0	3	2			
4	0	0	0	0	473	512	0	0	3	2			
5	0	0	0	0	476	512	0	0	3	2			
6	0	0	0	0	467	513	0	0	4	2			
7	0	0	0	0	465	518	0	0	3	2			
8	0	0	0	0	472	515	0	0	3	2			
9	0	0	0	0	472	515	0	0	3	2			
10	0	0	0	0	476	508	0	0	3	2			
11	0	0	0	0	473	508	0	0	3	2			
12	0	0	0	0	476	510	0	0	3	2			
13	0	0	0	0	476	512	0	0	3	2			
14	0	0	0	0	480	512	0	0	3	2			
15	0	0	0	0	486	511	0	0	3	2			
0	0	0	0	0	478	510	0	0	3	2			
1	0	0	0	0	472	508	0	0	3	2			
2	0	0	0	0	472	512	0	0	3	2			
3	0	0	0	0	476	504	0	0	3	2			
4	0	0	0	0	476	512	0	0	3	2			
5	0	0	0	0	467	510	0	0	3	2			
6	0	0	0	0	463	512	0	0	3	2			
7	0	0	0	0	467	515	0	0	3	2			
8	0	0	0	0	472	510	0	0	3	2			
9	0	0	0	0	476	510	0	0	3	2			
10	0	0	0	0	473	512	0	0	3	2			
11	0	0	0	0	480	511	0	0	3	2			
12	0	0	0	0	480	511	0	0	3	2			
13	0	0	0	0	480	504	0	0	3	2			
14	0	0	0	0	480	504	0	0	3	2			
15	0	0	0	0	476	510	0	0	3	2			
0	0	0	0	0	476	511	0	0	3	2			
1	0	0	0	0	480	510	0	0	3	2			
2	0	0	0	0	480	508	0	0	3	2			
3	0	0	0	0	476	499	0	0	4	2			
4	0	0	0	0	472	504	0	0	3	2			
5	0	0	0	0	476	505	0	0	3	2			
6	0	0	0	0	472	511	0	0	3	2			
7	0	0	0	0	472	502	0	0	3	2			
8	0	0	0	0	476	504	0	0	3	2			
9	0	0	0	0	472	511	0	0	3	2			
10	0	0	0	0	472	513	0	0	3	2			
11	0	0	0	0	476	515	0	0	3	2			
12	0	0	0	0	476	510	0	0	3	2			
13	0	0	0	0	470	510	0	0	3	2			
14	0	0	0	0	463	511	0	0	3	2			
15	0	0	0	0	465	512	0	0	3	2			
0	0	0	0	0	472	511	0	0	3	2			
1	0	0	0	0	478	508	0	0	3	2			
2	0	0	0	0	481	508	0	0	3	2			
3	0	0	0	0	480	510	0	0	3	2			
4	0	0	0	0	496	508	0	0	3	2			
5	0	0	0	0	492	508	0	0	3	2			
6	0	0	0	0	481	504	0	0	3	2			
7	0	0	0	0	481	504	0	0	3	2			
8	0	0	0	0	472	505	0	0	3	2			
9	0	0	0	0	480	499	0	0	3	2			
10	0	0	0	0	473	510	0	0	3	2			
11	0	0	0	0	478	504	0	0	4	2			
12	0	0	0	0	480	504	0	0	3	2			
13	0	0	0	0	472	510	0	0	3	2			
14	0	0	0	0	472	512	0	0	3	2			
15	0	0	0	0	472	513	0	0	3	2			
0	0	0	0	0	472	510	0	0	3	2			
1	0	0	0	0	476	508	0	0	3	2			
2	0	0	0	0	472	511	0	0	3	2			
3	0	0	0	0	472	512	0	0	3	2			
4	0	0	0	0	476	512	0	0	3	2			
5	0	0	0	0	480	508	0	0	3	2			
6	0	0	0	0	487	508	0	0	3	2			
7	0	0	0	0	486	511	0	0	3	2			
8	0	0	0	0	476	512	0	0	3	2			
9	0	0	0	0	476	504	0	0	3	2			
10	0	0	0	0	478	510	0	0	3	2			
11	0	0	0	0	472	504	0	0	4	2			
12	0	0	0	0	467	505	0	0	3	2			
13	0	0	0	0	472	508	0	0	3	2			
14	0	0	0	0	472	515	0	0	3	2			
15	0	0	0	0	472	510	0	0	3	2			
0	0	0	0	0	472	511	0	0	3	2			
1	0	0	0	0	467	511	0	0	4	2			
2	0	0	0	0	472	508	0	0	3	2			
3	0	0	0	0	480	511	0	0	4	2			
4	0	0	0	0	483	511	0	0	3	2			
5	0	0	0	0	487	511	0	0	3	2			
6	0	0	0	0	480	515	0	0	3	2			
7	0	0	0	0	480	508	0	0	3	2			
8	0	0	0	0	476	508	0	0	3	2			
9	0	0	0	0	476	504	0	0	3	2			
10	0	0	0	0	480	504	0	0	3	2			
11	0	0	0	0	480	510	0	0	4	2			
12	0	0	0	0	481	511	0	0	4	2			
13	0	0	0	0	480	513	0	0	3	2			
14	0	0	0	0	476	511	0	0	3	2			
15	0	0	0	0	476	510	0	0	3	2			
0	0	0	0	0	467	511	0	0	3	2			
1	0	0	0	0	473	508	0	0	3	2			
2	0	0	0	0	472	512	0	0	3	2			
3	0	0	0	0	472	504	0	0	3	2			
4	0	0	0	0	476	504	0	0	3	2			
5	0	0	0	0	472	510	0	0	3	2			
6	0	0	0	0	472	511	0	0	4	2			
7	0	0	0	0	476	512	0	0	3	2			
8	0	0	0	0	480	512	0	0	3	2			
9	0	0	0	0	480	508	0	0	3	2			
10	0	0	0	0	473	508	0	0	3	2			
11	0	0	0	0	476	512	0	0	3	2			
12	0	0	0	0	476	513	0	0	3	2			
13	0	0	0	0	476	505	0	0	3	2			
14	0	0	0	0	478	508	0	0	3	2			
15	0	0	0	0	472	511	0	0	3	2			
0	0	0	0	0	472	511	0	0	3	2			
1	0	0	0	0	476	510	0	0	3	2			
2	0	0	0	0	480	508	0	0	3	2			
3	0	0	0	0	480	499	0	0	3	2			
4	0	0	0	0	473	504	0	0	3	2			
5	0	0	0	0	476	504	0	0	3	2			
6	0	0	0	0	467	508	0	0	3	2			
7	0	0	0	0	472	504	0	0	3	2			
8	0	0	0	0	472	511	0	0	3	2			
9	0	0	0	0	467	508	0	0	3	2			
10	0	0	0	0	463	508	0	0	3	2			
11	0	0	0	0	455	512	0	0	3	2			
12	0	0	0	0	455	510	0	0	3	2			
13	0	0	0	0	462	511	0	0	3	2			
14	0	0	0	0	463	513	0	0	4	2			
15	0	0	0	0	465	515	0	0	3	2			
0	0	0	0	0	467	515	0	0	3	2			
1	0	0	0	0	472	512	0	0	3	2			
2	0	0	0	0	487	513	0	0	3	2			
3	0	0	0	0	487	511	0	0	3	2			
4	0	0	0	0	492	505	0	0	3	2			
5	0	0	0	0	487	510	0	0	3	2			
6	0	0	0	0	487	511	0	0	3	2			
7	0	0	0	0	480	508	0	0	4	2			
8	0	0	0	0	480	511	0	0	3	2			
9	0	0	0	0	483	512	0	0	3	2			
10	0	0	0	0	480	515	0	0	3	2			
11	0	0	0	0	480	512	0	0	3	2			
12	0	0	0	0	483	511	0	0	3	2			
13	0	0	0	0	480	511	0	0	3	2			
14	0	0	0	0	480	512	0	0	3	2			
15	0	0	0	0	476	515	0	0	3	2			
0	0	0	0	0	476	508	0	0	3	2			
1	0	0	0	0	478	508	0	0	3	2			
2	0	0	0	0	476	508	0	0	3	2			
3	0	0	0	0	472	508	0	0	3	2			
4	0	0	0	0	476	511	0	0	3	2			
5	0	0	0	0	476	510	0	0	3	2			
6	0	0	0	0	476	504	0	0	3	2			
7	0	0	0	0	481	504	0	0	3	2			
8	0	0	0	0	480	511	0	0	3	2			
9	0	0	0	0	480	508	0	0	3	2			
10	0	0	0	0	473	504	0	0	4	2			
11	0	0	0	0	480	504	0	0	3	2			
12	0	0	0	0	472	508	0	0	3	2			
13	0	0	0	0	472	512	0	0	3	2			
14	0	0	0	0	472	512	0	0	4	2			
15	0	0	0	0	473	511	0	0	3	2			
0	0	0	0	0	476	508	0	0	3	2			
1	0	0	0	0	472	511	0	0	3	2			
2	0	0	0	0	480	510	0	0	3	2			
3	0	0	0	0	473	513	0	0	3	2			
4	0	0	0	0	472	508	0	0	3	2			
5	0	0	0	0	476	508	0	0	3	2			
6	0	0	0	0	472	511	0	0	3	2			
7	0	0	0	0	472	512	0	0	3	2			
8	0	0	0	0	476	511	0	0	3	2			
9	0	0	0	0	478	512	0	0	3	2			
10	0	0	0	0	476	505	0	0	3	2			
11	0	0	0	0	473	508	0	0	3	2			
12	0	0	0	0	476	508	0	0	3	2			
13	0	0	0	0	480	510	0	0	3	2			
14	0	0	0	0	480	505	0	0	3	2			
15	0	0	0	0	481	508	0	0	3	2			
0	0	0	0	0	476	508	0	0	3	2			
1	0	0	0	0	480	505	0	0	3	2			
2	0	0	0	0	481	511	0	0	3	2			
3	0	0	0	0	476	508	0	0	3	2			
4	0	0	0	0	480	505	0	0	3	2			
5	0	0	0	0	472	511	0	0	3	2			
6	0	0	0	0	472	511	0	0	3	2			
7	0	0	0	0	476	513	0	0	4	2			
8	0	0	0	0	472	511	0	1	4	2			
9	0	0	0	0	476	510	0	0	3	2			
10	0	0	0	0	476	510	0	0	3	2			
11	0	0	0	0	472	515	0	0	3	2			
12	0	0	0	0	472	508	0	0	3	2			
13	0	0	0	0	476	504	0	0	4	2			
14	0	0	0	0	478	508	0	0	3	2			
15	0	0	0	0	472	510	0	0	3	2			
0	0	0	0	0	472	510	0	0	3	2			
1	0	0	0	0	476	511	0	0	3	2			
2	0	0	0	0	476	512	0	0	3	2			
3	0	0	0	0	480	504	0	0	3	2			
4	0	0	0	0	476	504	0	0	3	2			
5	0	0	0	0	480	504	0	0	4	2			
6	0	0	0	0	472	511	0	0	4	2			
7	0	0	0	0	472	504	0	0	3	2			
8	0	0	0	0	476	504	0	0	3	2			
9	0	0	0	0	470	510	0	0	3	2			
10	0	0	0	0	467	512	0	0	3	2			
11	0	0	0	0	463	515	0	0	3	2			
12	0	0	0	0	463	511	0	0	3	2			
13	0	0	0	0	467	508	0	0	3	2			
14	0	0	0	0	470	511	0	0	3	2			
15	0	0	0	0	472	513	0	0	3	2			
0	0	0	0	0	476	512	0	0	3	2			
1	0	0	0	0	476	515	0	0	4	2			
2	0	0	0	0	480	511	0	0	3	2			
3	0	0	0	0	486	512	0	0	3	2			
4	0	0	0	0	496	504	0	0	3	2			
5	0	0	0	0	487	508	0	0	3	2			
6	0	0	0	0	481	504	0	0	3	2			
7	0	0	0	0	483	504	0	0	3	2			
8	0	0	0	0	472	504	0	0	3	2			
9	0	0	0	0	480	499	0	0	3	2			
10	0	0	0	0	472	510	0	0	3	2			
11	0	0	0	0	476	508	0	0	4	2			
12	0	0	0	0	476	508	0	0	3	2			
13	0	0	0	0	472	511	0	0	3	2			
14	0	0	0	0	472	511	0	0	3	2			
15	0	0	0	0	472	513	0	0	3	2			
0	0	0	0	0	472	510	0	0	3	2			
1	0	0	0	0	476	512	0	0	3	2			
2	0	0	0	0	473	511	0	0	3	2			
3	0	0	0	0	476	513	0	0	3	2			
4	0	0	0	0	480	512	0	0	3	2			
5	0	0	0	0	480	510	0	0	3	2			
6	0	0	0	0	483	508	0	0	3	2			
7	0	0	0	0	486	510	0	0	3	2			
8	0	0	0	0	480	511	0	0	3	2			
9	0	0	0	0	483	504	0	0	3	2			
10	0	0	0	0	481	508	0	0	3	2			
11	0	0	0	0	480	499	0	0	3	2			
12	0	0	0	0	472	504	0	0	3	2			
13	0	0	0	0	473	510	0	0	3	2			
14	0	0	0	0	472	511	0	0	3	2			
15	0	0	0	0	467	508	0	0	3	2			
0	0	0	0	0	472	511	0	0	3	2			
1	0	0	0	0	472	510	0	0	3	2			
2	0	0	0	0	472	510	0	0	3	2			
3	0	0	0	0	476	511	0	0	4	2			
4	0	0	0	0	476	512	0	0	3	2			
5	0	0	0	0	480	510	0	0	3	2			
6	0	0	0	0	476	512	0	0	3	2			
7	0	0	0	0	480	512	0	0	3	2			
8	0	0	0	0	480	515	0	0	3	2			
9	0	0	0	0	476	510	0	0	3	2			
10	0	0	0	0	480	508	0	0	3	2			
11	0	0	0	0	476	511	0	0	3	2			
12	0	0	0	0	476	511	0	0	3	2			
13	0	0	0	0	476	512	0	0	3	2			
14	0	0	0	0	476	510	0	0	3	2			
15	0	0	0	0	478	508	0	0	3	2			
0	0	0	0	0	472	511	0	0	3	2			
1	0	0	0	0	472	510	0	0	3	2			
2	0	0	0	0	472	510	0	0	3	2			
3	0	0	0	0	472	508	0	0	3	2			
4	0	0	0	0	472	508	0	0	3	2			
5	0	0	0	0	472	510	0	0	3	2			
6	0	0	0	0	472	511	0	0	3	2			
7	0	0	0	0	470	510	0	0	3	2			
8	0	0	0	0	472	508	0	0	3	2			
9	0	0	0	0	476	511	0	0	3	2			
10	0	0	0	0	473	511	0	0	3	2			
11	0	0	0	0	472	512	0	0	3	2			
12	0	0	0	0	476	511	0	0	3	2			
13	0	0	0	0	480	508	0	0	3	2			
14	0	0	0	0	483	508	0	0	3	2			
15	0	0	0	0	478	510	0	0	3	2			
0	0	0	0	0	473	508	0	0	3	2			
1	0	0	0	0	473	510	0	0	3	2			
2	0	0	0	0	472	508	0	0	4	2			
3	0	0	0	0	476	504	0	0	3	2			
4	0	0	0	0	472	508	0	0	3	2			
5	0	0	0	0	472	508	0	0	3	2			
6	0	0	0	0	472	508	0	0	3	2			
7	0	0	0	0	472	504	0	0	3	2			
8	0	0	0	0	472	505	0	0	3	2			
9	0	0	0	0	472	511	0	0	3	2			
10	0	0	0	0	472	511	0	0	3	2			
11	0	0	0	0	476	512	0	0	4	2			
12	0	0	0	0	472	508	0	0	3	2			
13	0	0	0	0	473	508	0	0	3	2			
14	0	0	0	0	463	510	0	0	3	2			
15	0	0	0	0	463	510	0	0	3	2			
0	0	0	0	0	467	508	0	0	3	2			
1	0	0	0	0	478	510	0	0	3	2			
2	0	0	0	0	478	504	0	0	3	2			
3	0	0	0	0	480	504	0	0	3	2			
4	0	0	0	0	476	508	0	0	3	2			
5	0	0	0	0	483	504	0	0	3	2			
6	0	0	0	0	496	504	0	0	3	2			
7	0	0	0	0	487	504	0	0	3	2			
8	0	0	0	0	483	504	0	0	3	2			
9	0	0	0	0	480	508	0	0	3	2			
10	0	0	0	0	480	512	0	0	3	2			
11	0	0	0	0	480	512	0	0	3	2			
12	0	0	0	0	476	508	0	0	3	2			
13	0	0	0	0	476	510	0	0	3	2			
14	0	0	0	0	472	515	0	0	3	2			
15	0	0	0	0	476	512	0	0	3	2			
0	0	0	0	0	480	513	0	0	3	2			
1	0	0	0	0	480	505	0	0	3	2			
2	0	0	0	0	480	510	0	0	3	2			
3	0	0	0	0	472	515	0	0	3	2			
4	0	0	0	0	476	511	0	0	3	2			
5	0	0	0	0	480	512	0	0	3	2			
6	0	0	0	0	480	508	0	0	3	2			
7	0	0	0	0	481	508	0	0	3	2			
8	0	0	0	0	476	515	0	0	3	2			
9	0	0	0	0	480	508	0	0	3	2			
10	0	0	0	0	476	508	0	0	3	2			
11	0	0	0	0	478	505	0	0	3	2			
12	0	0	0	0	476	512	0	0	3	2			
13	0	0	0	0	476	513	0	0	3	2			
14	0	0	0	0	473	515	0	0	3	2			
15	0	0	0	0	473	512	0	0	3	2			
0	0	0	0	0	476	510	0	0	3	2			
1	0	0	0	0	472	511	0	0	3	2			
2	0	0	0	0	480	508	0	0	3	2			
3	0	0	0	0	480	515	0	0	4	2			
4	0	0	0	0	483	505	0	0	3	2			
5	0	0	0	0	486	508	0	0	3	2			
6	0	0	0	0	481	511	0	0	3	2			
7	0	0	0	0	472	513	0	0	3	2			
8	0	0	0	0	472	508	0	0	3	2			
9	0	0	0	0	472	508	0	0	3	2			
10	0	0	0	0	476	510	0	0	3	2			
11	0	0	0	0	472	512	0	0	3	2			
12	0	0	0	0	472	512	0	0	3	2			
13	0	0	0	0	472	515	0	0	3	2			
14	0	0	0	0	472	511	0	0	3	2			
15	0	0	0	0	476	510	0	0	3	2			
0	0	0	0	0	480	511	0	0	3	2			
1	0	0	0	0	476	513	0	0	3	2			
2	0	0	0	0	476	508	0	0	3	2			
3	0	0	0	0	472	505	0	0	3	2			
4	0	0	0	0	472	508	0	0	3	2			
5	0	0	0	0	467	512	0	0	3	2			
6	0	0	0	0	467	512	0	0	3	2			
7	0	0	0	0	472	512	0	0	3	2			
8	0	0	0	0	480	512	0	0	3	2			
9	0	0	0	0	476	504	0	0	3	2			
10	0	0	0	0	476	504	0	0	3	2			
11	0	0	0	0	480	510	0	0	4	2			
12	0	0	0	0	480	513	0	0	3	2			
13	0	0	0	0	480	508	0	0	3	2			
14	0	0	0	0	480	504	0	0	3	2			
15	0	0	0	0	480	511	0	0	3	2			
0	0	0	0	0	480	512	0	0	3	2			
1	0	0	0	0	480	511	0	0	3	2			
2	0	0	0	0	480	510	0	0	3	2			
3	0	0	0	0	476	499	0	0	3	2			
4	0	0	0	0	472	504	0	0	3	2			
5	0	0	0	0	480	504	0	0	3	2			
6	0	0	0	0	472	510	0	0	4	2			
7	0	0	0	0	467	504	0	0	3	2			
8	0	0	0	0	472	504	0	0	3	2			
9	0	0	0	0	472	508	0	0	3	2			
10	0	0	0	0	472	510	0	0	3	2			
11	0	0	0	0	472	512	0	0	3	2			
12	0	0	0	0	472	512	0	0	3	2			
13	0	0	0	0	473	512	0	0	3	2			
14	0	0	0	0	472	512	0	0	4	2			
15	0	0	0	0	472	512	0	0	4	2			
0	0	0	0	0	472	513	0	0	3	2			
1	0	0	0	0	476	512	0	0	3	2			
2	0	0	0	0	480	508	0	0	3	2			
3	0	0	0	0	472	508	0	0	3	2			
4	0	0	0	0	480	505	0	0	3	2			
5	0	0	0	0	480	511	0	0	3	2			
6	0	0	0	0	472	504	0	0	3	2			
7	0	0	0	0	467	504	0	0	3	2			
8	0	0	0	0	462	504	0	0	3	2			
9	0	0	0	0	467	499	0	0	3	2			
10	0	0	0	0	463	508	0	0	3	2			
11	0	0	0	0	472	508	0	0	4	2			
12	0	0	0	0	480	510	0	0	3	2			
13	0	0	0	0	476	512	0	0	3	2			
14	0	0	0	0	481	512	0	0	3	2			
15	0	0	0	0	483	515	0	0	4	2			
0	0	0	0	0	481	511	0	0	3	2			
1	0	0	0	0	483	511	0	0	3	2			
2	0	0	0	0	480	512	0	0	3	2			
3	0	0	0	0	480	511	0	0	3	2			
4	0	0	0	0	480	513	0	0	3	2			
5	0	0	0	0	480	510	0	0	3	2			
6	0	0	0	0	483	504	0	0	4	2			
7	0	0	0	0	483	508	0	0	3	2			
8	0	0	0	0	480	511	0	0	3	2			
9	0	0	0	0	481	508	0	0	3	2			
10	0	0	0	0	483	508	0	0	3	2			
11	0	0	0	0	483	504	0	0	3	2			
12	0	0	0	0	478	504	0	0	3	2			
13	0	0	0	0	476	508	0	0	3	2			
14	0	0	0	0	472	511	0	0	3	2			
15	0	0	0	0	472	510	0	0	3	2			
0	0	0	0	0	472	512	0	0	3	2			
1	0	0	0	0	467	511	0	0	3	2			
2	0	0	0	0	472	508	0	0	3	2			
3	0	0	0	0	478	511	0	0	3	2			
4	0	0	0	0	476	510	0	0	3	2			
5	0	0	0	0	478	504	0	0	3	2			
6	0	0	0	0	476	511	0	0	3	2			
7	0	0	0	0	478	512	0	0	3	2			
8	0	0	0	0	476	519	0	0	3	2			
9	0	0	0	0	472	510	0	0	3	2			
10	0	0	0	0	476	512	0	0	3	2			
11	0	0	0	0	472	512	0	0	3	2			
12	0	0	0	0	476	510	0	0	3	2			
13	0	0	0	0	480	510	0	0	3	2			
14	0	0	0	0	476	508	0	0	3	2			
15	0	0	0	0	476	508	0	0	3	2			
0	0	0	0	0	481	511	0	0	3	2			
1	0	0	0	0	476	513	0	0	3	2			
2	0	0	0	0	476	510	0	0	3	2			
3	0	0	0	0	476	508	0	0	3	2			
4	0	0	0	0	476	508	0	0	3	2			
5	0	0	0	0	472	508	0	0	3	2			
6	0	0	0	0	473	513	0	0	3	2			
7	0	0	0	0	480	513	0	0	3	2			
8	0	0	0	0	481	513	0	0	3	2			
9	0	0	0	0	480	504	0	0	3	2			
10	0	0	0	0	476	511	0	0	4	2			
11	0	0	0	0	472	511	0	0	3	2			
12	0	0	0	0	472	512	0	0	3	2			
13	0	0	0	0	472	508	0	0	3	2			
14	0	0	0	0	473	508	0	0	3	2			
15	0	0	0	0	472	511	0	0	3	2			
0	0	0	0	0	472	511	0	0	3	2			
1	0	0	0	0	476	512	0	0	4	2			
2	0	0	0	0	480	510	0	0	3	2			
3	0	0	0	0	478	504	0	0	3	2			
4	0	0	0	0	472	504	0	0	3	2			
5	0	0	0	0	480	504	0	0	3	2			
6	0	0	0	0	476	511	0	0	3	2			
7	0	0	0	0	480	508	0	0	3	2			
8	0	0	0	0	480	511	0	0	3	2			
9	0	0	0	0	472	510	0	0	3	2			
10	0	0	0	0	472	510	0	0	3	2			
11	0	0	0	0	472	513	0	0	4	2			
12	0	0	0	0	476	511	0	0	3	2			
13	0	0	0	0	480	511	0	0	3	2			
14	0	0	0	0	472	511	0	0	3	2			
15	0	0	0	0	472	511	0	0	3	2			
0	0	0	0	0	472	511	0	0	3	2			
1	0	0	0	0	476	510	0	0	4	2			
2	0	0	0	0	480	512	0	0	3	2			
3	0	0	0	0	476	511	0	0	3	2			
4	0	0	0	0	480	504	0	0	3	2			
5	0	0	0	0	478	511	0	0	3	2			
6	0	0	0	0	478	504	0	0	4	2			
7	0	0	0	0	480	504	0	0	3	2			
8	0	0	0	0	476	508	0	0	3	2			
9	0	0	0	0	476	512	0	0	3	2			
10	0	0	0	0	472	513	0	0	3	2			
11	0	0	0	0	472	512	0	0	3	2			
12	0	0	0	0	472	508	0	0	3	2			
13	0	0	0	0	463	511	0	0	3	2			
14	0	0	0	0	463	512	0	0	3	2			
15	0	0	0	0	467	512	0	0	3	2			
0	0	0	0	0	470	511	0	0	3	2			
1	0	0	0	0	476	508	0	0	4	2			
2	0	0	0	0	473	511	0	0	3	2			
3	0	0	0	0	480	508	0	0	3	2			
4	0	0	0	0	481	512	0	0	3	2			
5	0	0	0	0	480	504	0	0	3	2			
6	0	0	0	0	481	505	0	0	4	2			
7	0	0	0	0	472	504	0	0	3	2			
8	0	0	0	0	472	499	0	0	3	2			
9	0	0	0	0	467	510	0	0	3	2			
10	0	0	0	0	472	504	0	0	3	2			
11	0	0	0	0	478	504	0	0	3	2			
12	0	0	0	0	476	508	0	0	3	2			
13	0	0	0	0	476	511	0	0	4	2			
14	0	0	0	0	476	515	0	0	3	2			
15	0	0	0	0	486	508	0	0	3	2			
0	0	0	0	0	494	510	0	0	3	2			
1	0	0	0	0	481	512	0	0	3	2			
2	0	0	0	0	476	511	0	0	3	2			
3	0	0	0	0	476	512	0	0	4	2			
4	0	0	0	0	476	511	0	0	3	2			
5	0	0	0	0	480	510	0	0	3	2			
6	0	0	0	0	480	511	0	0	3	2			
7	0	0	0	0	472	515	0	0	3	2			
8	0	0	0	0	473	505	0	0	3	2			
9	0	0	0	0	480	508	0	0	3	2			
10	0	0	0	0	480	504	0	0	3	2			
11	0	0	0	0	476	508	0	0	3	2			
12	0	0	0	0	476	510	0	0	3	2			
13	0	0	0	0	478	512	0	0	3	2			
14	0	0	0	0	480	510	0	0	3	2			
15	0	0	0	0	480	508	0	0	3	2			
0	0	0	0	0	480	510	0	0	3	2			
1	0	0	0	0	476	512	0	0	3	2			
2	0	0	0	0	476	511	0	0	3	2			
3	0	0	0	0	473	508	0	0	3	2			
4	0	0	0	0	476	505	0	0	3	2			
5	0	0	0	0	472	513	0	0	3	2			
6	0	0	0	0	472	511	0	0	3	2			
7	0	0	0	0	467	512	0	0	3	2			
8	0	0	0	0	476	512	0	0	3	2			
9	0	0	0	0	473	505	0	0	3	2			
10	0	0	0	0	467	508	0	0	3	2			
11	0	0	0	0	472	511	0	0	3	2			
12	0	0	0	0	472	515	0	0	3	2			
13	0	0	0	0	472	511	0	0	3	2			
14	0	0	0	0	476	508	0	0	4	2			
15	0	0	0	0	476	512	0	0	3	2			
0	0	0	0	0	472	511	0	0	3	2			
1	0	0	0	0	476	511	0	0	3	2			
2	0	0	0	0	478	512	0	0	3	2			
3	0	0	0	0	476	504	0	0	3	2			
4	0	0	0	0	472	508	0	0	3	2			
5	0	0	0	0	480	504	0	0	3	2			
6	0	0	0	0	476	511	0	0	4	2			
7	0	0	0	0	472	504	0	0	3	2			
8	0	0	0	0	472	504	0	0	3	2			
9	0	0	0	0	472	511	0	0	3	2			
10	0	0	0	0	472	513	0	0	3	2			
11	0	0	0	0	476	515	0	0	3	2			
12	0	0	0	0	481	511	0	0	3	2			
13	0	0	0	0	487	511	0	0	3	2			
14	0	0	0	0	481	511	0	0	3	2			
15	0	0	0	0	480	512	0	0	3	2			
0	0	0	0	0	478	511	0	0	3	2			
1	0	0	0	0	476	510	0	0	3	2			
2	0	0	0	0	476	508	0	0	3	2			
3	0	0	0	0	467	508	0	0	3	2			
4	0	0	0	0	476	508	0	0	3	2			
5	0	0	0	0	480	510	0	0	3	2			
6	0	0	0	0	476	504	0	0	3	2			
7	0	0	0	0	480	505	0	0	3	2			
8	0	0	0	0	472	504	0	0	3	2			
9	0	0	0	0	483	497	0	0	3	2			
10	0	0	0	0	480	511	0	0	3	2			
11	0	0	0	0	476	508	0	0	4	2			
12	0	0	0	0	473	508	0	0	3	2			
13	0	0	0	0	470	511	0	0	3	2			
14	0	0	0	0	467	513	0	0	4	2			
15	0	0	0	0	472	513	0	0	3	2			
0	0	0	0	0	472	512	0	0	3	2			
1	0	0	0	0	476	510	0	0	3	2			
2	0	0	0	0	472	511	0	0	3	2			
3	0	0	0	0	476	512	0	0	4	2			
4	0	0	0	0	476	512	0	0	3	2			
5	0	0	0	0	480	511	0	0	3	2			
6	0	0	0	0	492	508	0	0	3	2			
7	0	0	0	0	496	511	0	0	3	2			
8	0	0	0	0	486	513	0	0	3	2			
9	0	0	0	0	480	504	0	0	4	2			
10	0	0	0	0	480	508	0	0	3	2			
11	0	0	0	0	480	504	0	0	3	2			
12	0	0	0	0	472	504	0	0	3	2			
13	0	0	0	0	472	508	0	0	3	2			
14	0	0	0	0	472	512	0	0	3	2			
15	0	0	0	0	472	510	0	0	4	2			
0	0	0	0	0	476	511	0	0	3	2			
1	0	0	0	0	467	508	0	0	3	2			
2	0	0	0	0	463	508	0	0	3	2			
3	0	0	0	0	467	511	0	0	3	2			
4	0	0	0	0	465	510	0	0	3	2			
5	0	0	0	0	476	508	0	0	3	2			
6	0	0	0	0	476	511	0	0	3	2			
7	0	0	0	0	476	512	0	0	3	2			
8	0	0	0	0	476	513	0	0	3	2			
9	0	0	0	0	476	510	0	0	3	2			
10	0	0	0	0	483	508	0	0	3	2			
11	0	0	0	0	487	510	0	0	4	2			
12	0	0	0	0	480	513	0	0	3	2			
13	0	0	0	0	476	508	0	0	3	2			
14	0	0	0	0	472	504	0	0	3	2			
15	0	0	0	0	476	508	0	0	3	2			
0	0	0	0	0	472	504	0	0	3	2			
1	0	0	0	0	472	504	0	0	3	2			
2	0	0	0	0	472	511	0	0	3	2			
3	0	0	0	0	472	508	0	0	3	2			
4	0	0	0	0	476	505	0	0	3	2			
5	0	0	0	0	472	511	0	0	3	2			
6	0	0	0	0	472	512	0	0	3	2			
7	0	0	0	0	473	512	0	0	4	2			
8	0	0	0	0	476	511	0	0	3	2			
9	0	0	0	0	476	512	0	0	3	2			
10	0	0	0	0	472	513	0	0	3	2			
11	0	0	0	0	472	508	0	0	3	2			
12	0	0	0	0	476	511	0	0	3	2			
13	0	0	0	0	476	508	0	0	3	2			
14	0	0	0	0	480	508	0	0	4	2			
15	0	0	0	0	483	511	0	0	4	2			
0	0	0	0	0	480	515	0	0	3	2			
1	0	0	0	0	480	510	0	0	3	2			
2	0	0	0	0	480	502	0	1	4	2			
3	0	0	0	0	480	510	0	0	3	2			
4	0	0	0	0	473	508	0	0	3	2			
5	0	0	0	0	472	510	0	0	3	2			
6	0	0	0	0	472	511	0	0	3	2			
7	0	0	0	0	472	510	0	0	3	2			
8	0	0	0	0	472	510	0	0	3	2			
9	0	0	0	0	470	511	0	0	3	2			
10	0	0	0	0	467	511	0	0	3	2			
11	0	0	0	0	472	512	0	0	3	2			
12	0	0	0	0	472	511	0	0	3	2			
13	0	0	0	0	476	510	0	0	3	2			
14	0	0	0	0	472	512	0	0	3	2			
15	0	0	0	0	478	511	0	0	4	2			
0	0	0	0	0	480	511	0	0	3	2			
1	0	0	0	0	476	508	0	0	3	2			
2	0	0	0	0	478	504	0	0	3	2			
3	0	0	0	0	472	508	0	0	3	2			
4	0	0	0	0	472	510	0	0	3	2			
5	0	0	0	0	472	511	0	0	3	2			
6	0	0	0	0	472	505	0	0	3	2			
7	0	0	0	0	476	505	0	0	3	2			
8	0	0	0	0	472	508	0	0	3	2			
9	0	0	0	0	472	510	0	0	3	2			
10	0	0	0	0	480	512	0	0	3	2			
11	0	0	0	0	480	510	0	0	3	2			
12	0	0	0	0	480	508	0	0	3	2			
13	0	0	0	0	472	511	0	0	3	2			
14	0	0	0	0	472	511	0	0	3	2			
15	0	0	0	0	467	511	0	0	3	2			
0	0	0	0	0	467	510	0	0	3	2			
1	0	0	0	0	480	508	0	0	4	2			
2	0	0	0	0	487	510	0	0	3	2			
3	0	0	0	0	480	512	0	0	3	2			
4	0	0	0	0	480	504	0	0	4	2			
5	0	0	0	0	481	504	0	0	3	2			
6	0	0	0	0	483	504	0	0	3	2			
7	0	0	0	0	467	508	0	0	3	2			
8	0	0	0	0	463	508	0	0	3	2			
9	0	0	0	0	463	508	0	0	3	2			
10	0	0	0	0	463	504	0	0	3	2			
11	0	0	0	0	467	508	0	0	3	2			
12	0	0	0	0	465	508	0	0	3	2			
13	0	0	0	0	472	511	0	0	3	2			
14	0	0	0	0	476	510	0	0	3	2			
15	0	0	0	0	487	508	0	0	3	2			
0	0	0	0	0	492	508	0	0	3	2			
1	0	0	0	0	481	510	0	0	3	2			
2	0	0	0	0	478	511	0	0	3	2			
3	0	0	0	0	473	511	0	0	3	2			
4	0	0	0	0	472	508	0	0	3	2			
5	0	0	0	0	472	508	0	0	3	2			
6	0	0	0	0	472	508	0	0	3	2			
7	0	0	0	0	472	508	0	0	4	2			
8	0	0	0	0	476	510	0	0	3	2			
9	0	0	0	0	480	508	0	0	3	2			
10	0	0	0	0	483	508	0	0	3	2			
11	0	0	0	0	487	508	0	0	3	2			
12	0	0	0	0	486	515	0	0	3	2			
13	0	0	0	0	483	505	0	0	3	2			
14	0	0	0	0	480	504	0	0	3	2			
15	0	0	0	0	480	504	0	0	3	2			
0	0	0	0	0	472	508	0	0	3	2			
1	0	0	0	0	467	508	0	0	3	2			
2	0	0	0	0	467	512	0	0	3	2			
3	0	0	0	0	467	508	0	0	3	2			
4	0	0	0	0	472	510	0	0	3	2			
5	0	0	0	0	472	512	0	0	3	2			
6	0	0	0	0	472	511	0	0	3	2			
7	0	0	0	0	472	512	0	0	3	2			
8	0	0	0	0	472	510	0	0	3	2			
9	0	0	0	0	480	508	0	0	4	2			
10	0	0	0	0	480	511	0	0	3	2			
11	0	0	0	0	478	512	0	0	3	2			
12	0	0	0	0	472	512	0	0	3	2			
13	0	0	0	0	472	508	0	0	3	2			
14	0	0	0	0	476	508	0	0	3	2			
15	0	0	0	0	480	508	0	0	3	2			
0	0	0	0	0	472	511	0	0	3	2			
1	0	0	0	0	473	508	0	0	3	2			
2	0	0	0	0	478	508	0	0	3	2			
3	0	0	0	0	480	504	0	0	4	2			
4	0	0	0	0	483	504	0	0	3	2			
5	0	0	0	0	480	511	0	0	3	2			
6	0	0	0	0	480	510	0	0	3	2			
7	0	0	0	0	480	510	0	0	3	2			
8	0	0	0	0	480	504	0	0	3	2			
9	0	0	0	0	480	508	0	0	3	2			
10	0	0	0	0	476	515	0	0	3	2			
11	0	0	0	0	480	511	0	0	4	2			
12	0	0	0	0	483	512	0	0	3	2			
13	0	0	0	0	480	508	0	0	4	2			
14	0	0	0	0	480	510	0	0	3	2			
15	0	0	0	0	472	519	0	0	3	2			
0	0	0	0	0	476	512	0	0	3	2			
1	0	0	0	0	480	515	0	0	3	2			
2	0	0	0	0	480	510	0	0	3	2			
3	0	0	0	0	483	512	0	0	3	2			
4	0	0	0	0	480	519	0	0	3	2			
5	0	0	0	0	480	512	0	0	3	2			
6	0	0	0	0	480	512	0	0	3	2			
7	0	0	0	0	480	508	0	0	3	2			
8	0	0	0	0	480	508	0	0	3	2			
9	0	0	0	0	472	513	0	0	3	2			
10	0	0	0	0	472	511	0	0	3	2			
11	0	0	0	0	472	510	0	0	3	2			
12	0	0	0	0	472	510	0	0	3	2			
13	0	0	0	0	467	512	0	0	3	2			
14	0	0	0	0	472	518	0	0	3	2			
15	0	0	0	0	472	519	0	0	3	2			
0	0	0	0	0	472	515	0	0	3	2			
1	0	0	0	0	472	515	0	0	3	2			
2	0	0	0	0	467	511	0	0	3	2			
3	0	0	0	0	467	510	0	0	3	2			
4	0	0	0	0	463	515	0	0	3	2			
5	0	0	0	0	463	510	0	0	3	2			
6	0	0	0	0	465	510	0	0	4	2			
7	0	0	0	0	463	510	0	0	3	2			
8	0	0	0	0	465	511	0	0	3	2			
9	0	0	0	0	467	511	0	0	3	2			
10	0	0	0	0	472	508	0	0	3	2			
11	0	0	0	0	481	508	0	0	3	2			
12	0	0	0	0	487	510	0	0	3	2			
13	0	0	0	0	504	499	0	0	3	2			
14	0	0	0	0	487	505	0	0	3	2			
15	0	0	0	0	480	504	0	0	3	2			
0	0	0	0	0	480	505	0	0	3	2			
1	0	0	0	0	480	513	0	0	3	2			
2	0	0	0	0	480	511	0	0	4	2			
3	0	0	0	0	480	512	0	0	3	2			
4	0	0	0	0	480	512	0	0	3	2			
5	0	0	0	0	481	510	0	0	3	2			
6	0	0	0	0	480	512	0	0	3	2			
7	0	0	0	0	480	511	0	0	3	2			
8	0	0	0	0	480	515	0	0	3	2			
9	0	0	0	0	480	510	0	0	3	2			
10	0	0	0	0	480	508	0	0	3	2			
11	0	0	0	0	480	512	0	0	3	2			
12	0	0	0	0	483	508	0	0	3	2			
13	0	0	0	0	480	508	0	0	3	2			
14	0	0	0	0	476	504	0	0	3	2			
15	0	0	0	0	480	504	0	0	3	2			
0	0	0	0	0	472	508	0	0	3	2			
1	0	0	0	0	467	504	0	0	3	2			
2	0	0	0	0	467	510	0	0	3	2			
3	0	0	0	0	467	508	0	0	3	2			
4	0	0	0	0	472	508	0	0	3	2			
5	0	0	0	0	467	510	0	0	3	2			
6	0	0	0	0	465	513	0	0	3	2			
7	0	0	0	0	463	515	0	0	3	2			
8	0	0	0	0	467	512	0	0	3	2			
9	0	0	0	0	480	515	0	0	3	2			
10	0	0	0	0	476	512	0	0	3	2			
11	0	0	0	0	472	508	0	0	3	2			
12	0	0	0	0	472	511	0	0	3	2			
13	0	0	0	0	476	504	0	0	3	2			
14	0	0	0	0	480	508	0	0	3	2			
15	0	0	0	0	487	508	0	0	3	2			
0	0	0	0	0	487	511	0	0	3	2			
1	0	0	0	0	480	504	0	0	4	2			
2	0	0	0	0	480	499	0	0	3	2			
3	0	0	0	0	483	508	0	0	3	2			
4	0	0	0	0	480	508	0	0	3	2			
5	0	0	0	0	480	512	0	0	3	2			
6	0	0	0	0	476	511	0	0	3	2			
7	0	0	0	0	472	508	0	0	3	2			
8	0	0	0	0	472	508	0	0	3	2			
9	0	0	0	0	467	510	0	0	3	2			
10	0	0	0	0	473	510	0	0	3	2			
11	0	0	0	0	472	515	0	0	3	2			
12	0	0	0	0	472	508	0	0	3	2			
13	0	0	0	0	473	508	0	0	3	2			
14	0	0	0	0	478	510	0	0	3	2			
15	0	0	0	0	472	513	0	0	4	2			
0	0	0	0	0	472	508	0	0	3	2			
1	0	0	0	0	472	505	0	0	3	2			
2	0	0	0	0	480	505	0	0	3	2			
3	0	0	0	0	480	511	0	0	3	2			
4	0	0	0	0	476	512	0	0	3	2			
5	0	0	0	0	476	515	0	0	3	2			
6	0	0	0	0	472	508	0	0	3	2			
7	0	0	0	0	476	508	0	0	3	2			
8	0	0	0	0	480	511	0	0	3	2			
9	0	0	0	0	472	513	0	0	3	2			
10	0	0	0	0	472	505	0	0	3	2			
11	0	0	0	0	472	504	0	0	3	2			
12	0	0	0	0	478	504	0	0	3	2			
13	0	0	0	0	472	511	0	0	4	2			
14	0	0	0	0	472	510	0	0	3	2			
15	0	0	0	0	472	515	0	0	4	2			
0	0	0	0	0	472	510	0	0	3	2			
1	0	0	0	0	473	508	0	0	4	2			
2	0	0	0	0	476	511	0	0	3	2			
3	0	0	0	0	472	515	0	0	3	2			
4	0	0	0	0	473	510	0	0	3	2			
5	0	0	0	0	476	511	0	0	3	2			
6	0	0	0	0	472	504	0	0	3	2			
7	0	0	0	0	472	508	0	0	3	2			
8	0	0	0	0	472	508	0	0	3	2			
9	0	0	0	0	476	510	0	0	3	2			
10	0	0	0	0	476	510	0	0	3	2			
11	0	0	0	0	476	508	0	0	3	2			
12	0	0	0	0	472	511	0	0	3	2			
13	0	0	0	0	472	512	0	0	3	2			
14	0	0	0	0	480	513	0	0	3	2			
15	0	0	0	0	483	510	0	0	3	2			
0	0	0	0	0	480	508	0	0	3	2			
1	0	0	0	0	465	510	0	0	3	2			
2	0	0	0	0	467	512	0	0	3	2			
3	0	0	0	0	472	512	0	0	3	2			
4	0	0	0	0	476	512	0	0	3	2			
5	0	0	0	0	481	512	0	0	3	2			
6	0	0	0	0	480	511	0	0	3	2			
7	0	0	0	0	487	504	0	0	3	2			
8	0	0	0	0	496	508	0	0	3	2			
9	0	0	0	0	492	504	0	0	3	2			
10	0	0	0	0	487	504	0	0	3	2			
11	0	0	0	0	480	508	0	0	3	2			
12	0	0	0	0	472	512	0	0	3	2			
13	0	0	0	0	472	511	0	0	3	2			
14	0	0	0	0	472	508	0	0	4	2			
15	0	0	0	0	476	508	0	0	3	2			
0	0	0	0	0	476	511	0	0	4	2			
1	0	0	0	0	481	505	0	0	4	2			
2	0	0	0	0	476	513	0	0	3	2			
3	0	0	0	0	476	508	0	0	4	2			
4	0	0	0	0	476	504	0	0	3	2			
5	0	0	0	0	472	512	0	0	3	2			
6	0	0	0	0	472	512	0	0	3	2			
7	0	0	0	0	473	511	0	0	3	2			
8	0	0	0	0	476	511	0	0	3	2			
9	0	0	0	0	472	504	0	0	3	2			
10	0	0	0	0	472	510	0	0	3	2			
11	0	0	0	0	472	511	0	0	4	2			
12	0	0	0	0	476	511	0	0	3	2			
13	0	0	0	0	476	508	0	0	3	2			
14	0	0	0	0	478	508	0	0	4	2			
15	0	0	0	0	476	508	0	0	3	2			
0	0	0	0	0	476	508	0	0	3	2			
1	0	0	0	0	472	510	0	0	3	2			
2	0	0	0	0	472	508	0	0	3	2			
3	0	0	0	0	478	510	0	0	3	2			
4	0	0	0	0	472	508	0	0	3	2			
5	0	0	0	0	472	499	0	0	3	2			
6	0	0	0	0	467	510	0	0	3	2			
7	0	0	0	0	472	504	0	0	3	2			
8	0	0	0	0	473	504	0	0	3	2			
9	0	0	0	0	472	510	0	0	3	2			
10	0	0	0	0	472	512	0	0	3	2			
11	0	0	0	0	476	519	0	0	3	2			
12	0	0	0	0	473	512	0	0	3	2			
13	0	0	0	0	476	512	0	0	3	2			
14	0	0	0	0	472	512	0	0	3	2			
15	0	0	0	0	476	515	0	0	3	2			
0	0	0	0	0	472	515	0	0	3	2			
1	0	0	0	0	472	511	0	0	3	2			
2	0	0	0	0	480	508	0	0	3	2			
3	0	0	0	0	476	511	0	0	3	2			
4	0	0	0	0	480	508	0	0	3	2			
5	0	0	0	0	478	511	0	0	3	2			
6	0	0	0	0	476	505	0	0	3	2			
7	0	0	0	0	480	505	0	0	3	2			
8	0	0	0	0	480	504	0	0	3	2			
9	0	0	0	0	483	497	0	0	3	2			
10	0	0	0	0	476	508	0	0	3	2			
11	0	0	0	0	473	504	0	0	3	2			
12	0	0	0	0	476	508	0	0	3	2			
13	0	0	0	0	467	511	0	0	3	2			
14	0	0	0	0	467	512	0	0	3	2			
15	0	0	0	0	472	512	0	0	3	2			
0	0	0	0	0	472	511	0	0	3	2			
1	0	0	0	0	480	511	0	0	3	2			
2	0	0	0	0	472	511	0	0	3	2			
3	0	0	0	0	472	512	0	0	3	2			
4	0	0	0	0	472	512	0	0	3	2			
5	0	0	0	0	478	511	0	0	3	2			
6	0	0	0	0	481	508	0	0	3	2			
7	0	0	0	0	483	508	0	0	3	2			
8	0	0	0	0	478	511	0	0	3	2			
9	0	0	0	0	478	504	0	0	3	2			
10	0	0	0	0	476	508	0	0	3	2			
11	0	0	0	0	472	499	0	0	3	2			
12	0	0	0	0	463	504	0	0	3	2			
13	0	0	0	0	460	508	0	0	3	2			
14	0	0	0	0	463	510	0	0	3	2			
15	0	0	0	0	467	510	0	0	3	2			
0	0	0	0	0	476	512	0	0	3	2			
1	0	0	0	0	476	512	0	0	4	2			
2	0	0	0	0	487	511	0	0	3	2			
3	0	0	0	0	494	513	0	0	4	2			
4	0	0	0	0	496	508	0	0	3	2			
5	0	0	0	0	496	515	0	0	3	2			
6	0	0	0	0	487	511	0	0	3	2			
7	0	0	0	0	486	512	0	0	3	2			
8	0	0	0	0	481	512	0	0	3	2			
9	0	0	0	0	480	510	0	0	3	2			
10	0	0	0	0	483	511	0	0	3	2			
11	0	0	0	0	476	512	0	0	3	2			
12	0	0	0	0	476	504	0	0	3	2			
13	0	0	0	0	478	511	0	0	3	2			
14	0	0	0	0	480	505	0	0	3	2			
15	0	0	0	0	480	508	0	0	3	2			
0	0	0	0	0	478	511	0	0	3	2			
1	0	0	0	0	481	504	0	0	3	2			
2	0	0	0	0	476	512	0	0	3	2			
3	0	0	0	0	472	504	0	0	3	2			
4	0	0	0	0	472	504	0	0	3	2			
5	0	0	0	0	467	510	0	0	3	2			
6	0	0	0	0	467	511	0	0	3	2			
7	0	0	0	0	472	512	0	0	3	2			
8	0	0	0	0	476	512	0	0	3	2			
9	0	0	0	0	480	508	0	0	3	2			
10	0	0	0	0	478	508	0	0	3	2			
11	0	0	0	0	478	512	0	0	3	2			
12	0	0	0	0	480	513	0	0	3	2			
13	0	0	0	0	480	508	0	0	3	2			
14	0	0	0	0	480	508	0	0	3	2			
15	0	0	0	0	476	512	0	0	3	2			
0	0	0	0	0	476	511	0	0	3	2			
1	0	0	0	0	476	511	0	0	4	2			
2	0	0	0	0	478	511	0	0	3	2			
3	0	0	0	0	476	504	0	0	3	2			
4	0	0	0	0	472	508	0	0	3	2			
5	0	0	0	0	476	504	0	0	3	2			
6	0	0	0	0	472	508	0	0	3	2			
7	0	0	0	0	472	505	0	0	3	2			
8	0	0	0	0	472	511	0	0	3	2			
9	0	0	0	0	463	508	0	0	3	2			
10	0	0	0	0	463	508	0	0	3	2			
11	0	0	0	0	463	513	0	0	3	2			
12	0	0	0	0	467	510	0	0	3	2			
13	0	0	0	0	472	511	0	0	3	2			
14	0	0	0	0	472	512	0	0	3	2			
15	0	0	0	0	480	512	0	0	3	2			
0	0	0	0	0	481	513	0	0	3	2			
1	0	0	0	0	483	511	0	0	3	2			
2	0	0	0	0	483	511	0	0	3	2			
3	0	0	0	0	476	511	0	0	3	2			
4	0	0	0	0	472	505	0	0	3	2			
5	0	0	0	0	472	508	0	0	3	2			
6	0	0	0	0	478	508	0	0	3	2			
7	0	0	0	0	472	502	0	0	3	2			
8	0	0	0	0	472	504	0	0	3	2			
9	0	0	0	0	472	508	0	0	3	2			
10	0	0	0	0	472	511	0	0	3	2			
11	0	0	0	0	473	510	0	0	3	2			
12	0	0	0	0	478	508	0	0	3	2			
13	0	0	0	0	472	510	0	0	3	2			
14	0	0	0	0	472	512	0	0	3	2			
15	0	0	0	0	476	512	0	0	3	2			
0	0	0	0	0	480	512	0	0	3	2			
1	0	0	0	0	480	504	0	0	3	2			
2	0	0	0	0	473	508	0	0	3	2			
3	0	0	0	0	472	508	0	0	3	2			
4	0	0	0	0	476	511	0	0	4	2			
5	0	0	0	0	472	510	0	0	3	2			
6	0	0	0	0	480	504	0	0	3	2			
7	0	0	0	0	472	510	0	0	3	2			
8	0	0	0	0	467	512	0	0	3	2			
9	0	0	0	0	472	511	0	0	3	2			
10	0	0	0	0	472	512	0	0	3	2			
11	0	0	0	0	472	504	0	0	3	2			
12	0	0	0	0	467	504	0	0	3	2			
13	0	0	0	0	467	510	0	0	3	2			
14	0	0	0	0	470	512	0	0	3	2			
15	0	0	0	0	476	508	0	0	3	2			
0	0	0	0	0	487	511	0	0	3	2			
1	0	0	0	0	487	511	0	0	3	2			
2	0	0	0	0	473	515	0	0	3	2			
3	0	0	0	0	472	508	0	0	3	2			
4	0	0	0	0	472	510	0	0	3	2			
5	0	0	0	0	472	508	0	0	3	2			
6	0	0	0	0	472	512	0	0	3	2			
7	0	0	0	0	478	510	0	0	3	2			
8	0	0	0	0	476	511	0	0	3	2			
9	0	0	0	0	480	508	0	0	3	2			
10	0	0	0	0	494	508	0	0	3	2			
11	0	0	0	0	494	511	0	0	3	2			
12	0	0	0	0	487	511	0	0	3	2			
13	0	0	0	0	483	512	0	0	3	2			
14	0	0	0	0	480	510	0	0	3	2			
15	0	0	0	0	483	508	0	0	3	2			
0	0	0	0	0	480	511	0	0	3	2			
1	0	0	0	0	480	505	0	0	3	2			
2	0	0	0	0	476	512	0	0	3	2			
3	0	0	0	0	473	508	0	0	3	2			
4	0	0	0	0	476	504	0	0	3	2			
5	0	0	0	0	472	512	0	0	3	2			
6	0	0	0	0	476	511	0	0	3	2			
7	0	0	0	0	480	511	0	0	4	2			
8	0	0	0	0	483	510	0	0	3	2			
9	0	0	0	0	480	504	0	0	3	2			
10	0	0	0	0	480	508	0	0	3	2			
11	0	0	0	0	480	511	0	0	3	2			
12	0	0	0	0	480	512	0	0	3	2			
13	0	0	0	0	480	511	0	0	3	2			
14	0	0	0	0	480	508	0	0	3	2			
15	0	0	0	0	473	511	0	0	3	2			
0	0	0	0	0	476	508	0	0	3	2			
1	0	0	0	0	476	511	0	0	3	2			
2	0	0	0	0	476	504	0	0	3	2			
3	0	0	0	0	480	504	0	0	3	2			
4	0	0	0	0	472	508	0	0	3	2			
5	0	0	0	0	472	508	0	0	3	2			
6	0	0	0	0	472	510	0	0	4	2			
7	0	0	0	0	467	508	0	0	3	2			
8	0	0	0	0	472	508	0	0	3	2			
9	0	0	0	0	472	511	0	0	3	2			
10	0	0	0	0	472	511	0	0	3	2			
11	0	0	0	0	472	512	0	0	3	2			
12	0	0	0	0	476	512	0	0	3	2			
13	0	0	0	0	480	508	0	0	3	2			
14	0	0	0	0	467	508	0	0	3	2			
15	0	0	0	0	463	510	0	0	3	2			
0	0	0	0	0	463	510	0	0	3	2			
1	0	0	0	0	465	510	0	0	4	2			
2	0	0	0	0	472	508	0	0	3	2			
3	0	0	0	0	472	508	0	0	3	2			
4	0	0	0	0	472	508	0	0	3	2			
5	0	0	0	0	473	508	0	0	3	2			
6	0	0	0	0	476	508	0	0	3	2			
7	0	0	0	0	483	504	0	0	3	2			
8	0	0	0	0	480	508	0	0	3	2			
9	0	0	0	0	476	510	0	0	3	2			
10	0	0	0	0	476	510	0	0	3	2			
11	0	0	0	0	472	510	0	0	4	2			
12	0	0	0	0	478	508	0	0	3	2			
13	0	0	0	0	472	511	0	0	3	2			
14	0	0	0	0	472	510	0	0	3	2			
15	0	0	0	0	472	508	0	0	3	2			
0	0	0	0	0	472	510	0	0	3	2			
1	0	0	0	0	476	510	0	0	3	2			
2	0	0	0	0	480	510	0	0	3	2			
3	0	0	0	0	476	513	0	0	3	2			
4	0	0	0	0	480	504	0	0	3	2			
5	0	0	0	0	480	504	0	0	3	2			
6	0	0	0	0	480	499	0	0	3	2			
7	0	0	0	0	480	504	0	0	3	2			
8	0	0	0	0	473	511	0	0	3	2			
9	0	0	0	0	480	508	0	0	4	2			
10	0	0	0	0	480	508	0	0	3	2			
11	0	0	0	0	476	504	0	0	3	2			
12	0	0	0	0	478	504	0	0	3	2			
13	0	0	0	0	472	511	0	0	4	2			
14	0	0	0	0	476	508	0	0	3	2			
15	0	0	0	0	473	510	0	0	3	2			
0	0	0	0	0	472	512	0	0	3	2			
1	0	0	0	0	467	512	0	0	3	2			
2	0	0	0	0	462	515	0	0	4	2			
3	0	0	0	0	463	511	0	0	3	2			
4	0	0	0	0	467	512	0	0	3	2			
5	0	0	0	0	467	508	0	0	3	2			
6	0	0	0	0	472	510	0	0	3	2			
7	0	0	0	0	473	515	0	0	3	2			
8	0	0	0	0	487	510	0	0	3	2			
9	0	0	0	0	487	511	0	0	3	2			
10	0	0	0	0	487	511	0	0	4	2			
11	0	0	0	0	480	513	0	0	3	2			
12	0	0	0	0	480	515	0	0	3	2			
13	0	0	0	0	478	519	0	0	3	2			
14	0	0	0	0	476	512	0	0	3	2			
15	0	0	0	0	480	511	0	0	3	2			
0	0	0	0	0	476	512	0	0	3	2			
1	0	0	0	0	472	513	0	0	3	2			
2	0	0	0	0	472	512	0	0	3	2			
3	0	0	0	0	472	511	0	0	3	2			
4	0	0	0	0	478	508	0	0	3	2			
5	0	0	0	0	478	510	0	0	3	2			
6	0	0	0	0	487	508	0	0	4	2			
7	0	0	0	0	483	510	0	0	3	2			
8	0	0	0	0	481	504	0	0	3	2			
9	0	0	0	0	483	505	0	0	3	2			
10	0	0	0	0	483	510	0	0	3	2			
11	0	0	0	0	483	504	0	0	3	2			
12	0	0	0	0	483	511	0	0	3	2			
13	0	0	0	0	480	508	0	0	3	2			
14	0	0	0	0	480	508	0	0	3	2			
15	0	0	0	0	476	510	0	0	3	2			
0	0	0	0	0	480	508	0	0	3	2			
1	0	0	0	0	476	512	0	0	3	2			
2	0	0	0	0	476	504	0	0	3	2			
3	0	0	0	0	480	504	0	0	3	2			
4	0	0	0	0	472	511	0	0	3	2			
5	0	0	0	0	472	508	0	0	3	2			
6	0	0	0	0	467	511	0	0	3	2			
7	0	0	0	0	472	508	0	0	3	2			
8	0	0	0	0	472	508	0	0	3	2			
9	0	0	0	0	472	511	0	0	4	2			
10	0	0	0	0	465	515	0	0	3	2			
11	0	0	0	0	463	512	0	0	4	2			
12	0	0	0	0	463	508	0	0	3	2			
13	0	0	0	0	472	508	0	0	3	2			
14	0	0	0	0	470	510	0	0	4	2			
15	0	0	0	0	472	512	0	0	3	2			
0	0	0	0	0	476	512	0	0	3	2			
1	0	0	0	0	481	511	0	0	3	2			
2	0	0	0	0	483	504	0	0	3	2			
3	0	0	0	0	480	508	0	0	3	2			
4	0	0	0	0	480	511	0	0	3	2			
5	0	0	0	0	480	511	0	0	3	2			
6	0	0	0	0	478	508	0	0	4	2			
7	0	0	0	0	480	511	0	0	3	2			
8	0	0	0	0	472	511	0	0	3	2			
9	0	0	0	0	472	504	0	0	3	2			
10	0	0	0	0	476	512	0	0	3	2			
11	0	0	0	0	476	508	0	0	3	2			
12	0	0	0	0	480	510	0	0	3	2			
13	0	0	0	0	476	513	0	0	3	2			
14	0	0	0	0	478	512	0	0	3	2			
15	0	0	0	0	478	512	0	0	3	2			
0	0	0	0	0	480	510	0	0	3	2			
1	0	0	0	0	480	512	0	0	3	2			
2	0	0	0	0	472	511	0	0	3	2			
3	0	0	0	0	467	510	0	0	3	2			
4	0	0	0	0	472	511	0	0	3	2			
5	0	0	0	0	472	510	0	0	3	2			
6	0	0	0	0	476	504	0	0	3	2			
7	0	0	0	0	480	508	0	0	3	2			
8	0	0	0	0	472	512	0	0	3	2			
9	0	0	0	0	476	510	0	0	3	2			
10	0	0	0	0	480	505	0	0	3	2			
11	0	0	0	0	481	505	0	0	3	2			
12	0	0	0	0	472	511	0	0	3	2			
13	0	0	0	0	463	513	0	0	3	2			
14	0	0	0	0	460	513	0	0	3	2			
15	0	0	0	0	460	511	0	0	3	2			
0	0	0	0	0	463	508	0	0	4	2			
1	0	0	0	0	472	511	0	0	3	2			
2	0	0	0	0	467	515	0	0	3	2			
3	0	0	0	0	472	511	0	0	3	2			
4	0	0	0	0	480	508	0	0	3	2			
5	0	0	0	0	496	508	0	0	4	2			
6	0	0	0	0	492	512	0	0	3	2			
7	0	0	0	0	492	508	0	0	3	2			
8	0	0	0	0	483	511	0	0	3	2			
9	0	0	0	0	480	504	0	0	3	2			
10	0	0	0	0	483	504	0	0	3	2			
11	0	0	0	0	480	508	0	0	3	2			
12	0	0	0	0	480	512	0	0	3	2			
13	0	0	0	0	480	512	0	0	3	2			
14	0	0	0	0	480	508	0	0	3	2			
15	0	0	0	0	480	504	0	0	3	2			
0	0	0	0	0	472	510	0	0	3	2			
1	0	0	0	0	480	505	0	0	3	2			
2	0	0	0	0	472	512	0	0	3	2			
3	0	0	0	0	472	504	0	0	3	2			
4	0	0	0	0	476	508	0	0	3	2			
5	0	0	0	0	472	513	0	0	3	2			
6	0	0	0	0	472	510	0	0	4	2			
7	0	0	0	0	472	510	0	0	3	2			
8	0	0	0	0	472	508	0	0	3	2			
9	0	0	0	0	480	508	0	0	3	2			
10	0	0	0	0	480	510	0	0	3	2			
11	0	0	0	0	472	513	0	0	4	2			
12	0	0	0	0	472	508	0	0	3	2			
13	0	0	0	0	472	505	0	0	3	2			
14	0	0	0	0	476	511	0	0	3	2			
15	0	0	0	0	467	508	0	0	3	2			
0	0	0	0	0	472	504	0	0	3	2			
1	0	0	0	0	472	512	0	0	3	2			
2	0	0	0	0	476	508	0	0	3	2			
3	0	0	0	0	480	508	0	0	3	2			
4	0	0	0	0	478	508	0	0	3	2			
5	0	0	0	0	480	510	0	0	3	2			
6	0	0	0	0	480	510	0	0	4	2			
7	0	0	0	0	481	510	0	0	4	2			
8	0	0	0	0	481	512	0	0	3	2			
9	0	0	0	0	472	510	0	0	3	2			
10	0	0	0	0	467	508	0	0	3	2			
11	0	0	0	0	467	512	0	0	3	2			
12	0	0	0	0	467	508	0	0	3	2			
13	0	0	0	0	472	510	0	0	3	2			
14	0	0	0	0	467	512	0	0	3	2			
15	0	0	0	0	467	513	0	0	3	2			
0	0	0	0	0	472	511	0	0	4	2			
1	0	0	0	0	480	511	0	0	4	2			
2	0	0	0	0	487	511	0	0	3	2			
3	0	0	0	0	480	510	0	0	3	2			
4	0	0	0	0	480	505	0	0	3	2			
5	0	0	0	0	480	508	0	0	3	2			
6	0	0	0	0	476	505	0	0	3	2			
7	0	0	0	0	472	504	0	0	3	2			
8	0	0	0	0	473	508	0	0	3	2			
9	0	0	0	0	476	510	0	0	3	2			
10	0	0	0	0	476	512	0	0	3	2			
11	0	0	0	0	476	508	0	0	3	2			
12	0	0	0	0	476	508	0	0	3	2			
13	0	0	0	0	472	512	0	0	4	2			
14	0	0	0	0	472	512	0	0	3	2			
15	0	0	0	0	472	515	0	0	4	2			
0	0	0	0	0	472	510	0	0	3	2			
1	0	0	0	0	476	510	0	0	3	2			
2	0	0	0	0	472	512	0	0	3	2			
3	0	0	0	0	472	512	0	0	3	2			
4	0	0	0	0	478	511	0	0	3	2			
5	0	0	0	0	480	512	0	0	3	2			
6	0	0	0	0	476	508	0	0	3	2			
7	0	0	0	0	480	508	0	0	3	2			
8	0	0	0	0	472	510	0	0	3	2			
9	0	0	0	0	463	508	0	0	3	2			
10	0	0	0	0	463	508	0	0	3	2			
11	0	0	0	0	472	504	0	0	3	2			
12	0	0	0	0	472	511	0	0	3	2			
13	0	0	0	0	476	512	0	0	3	2			
14	0	0	0	0	480	512	0	0	3	2			
15	0	0	0	0	480	510	0	0	3	2			
0	0	0	0	0	494	508	0	0	3	2			
1	0	0	0	0	494	510	0	0	3	2			
2	0	0	0	0	480	512	0	0	3	2			
3	0	0	0	0	476	508	0	0	3	2			
4	0	0	0	0	478	504	0	0	3	2			
5	0	0	0	0	480	505	0	0	3	2			
6	0	0	0	0	476	512	0	0	3	2			
7	0	0	0	0	476	508	0	0	3	2			
8	0	0	0	0	480	510	0	0	3	2			
9	0	0	0	0	481	508	0	0	3	2			
10	0	0	0	0	480	504	0	0	3	2			
11	0	0	0	0	478	508	0	0	3	2			
12	0	0	0	0	476	510	0	0	3	2			
13	0	0	0	0	473	512	0	0	3	2			
14	0	0	0	0	472	510	0	0	3	2			
15	0	0	0	0	472	510	0	0	3	2			
0	0	0	0	0	478	508	0	0	3	2			
1	0	0	0	0	472	512	0	0	3	2			
2	0	0	0	0	473	510	0	0	3	2			
3	0	0	0	0	473	508	0	0	3	2			
4	0	0	0	0	476	508	0	0	3	2			
5	0	0	0	0	472	510	0	0	3	2			
6	0	0	0	0	472	511	0	0	3	2			
7	0	0	0	0	472	513	0	0	3	2			
8	0	0	0	0	467	511	0	0	3	2			
9	0	0	0	0	472	510	0	0	3	2			
10	0	0	0	0	476	511	0	0	3	2			
11	0	0	0	0	472	515	0	0	3	2			
12	0	0	0	0	472	508	0	0	3	2			
13	0	0	0	0	476	504	0	0	3	2			
14	0	0	0	0	480	511	0	0	3	2			
15	0	0	0	0	476	508	0	0	3	2			
0	0	0	0	0	480	504	0	0	3	2			
1	0	0	0	0	480	511	0	0	3	2			
2	0	0	0	0	476	508	0	0	3	2			
3	0	0	0	0	480	508	0	0	3	2			
4	0	0	0	0	470	515	0	0	3	2			
5	0	0	0	0	465	511	0	0	3	2			
6	0	0	0	0	463	510	0	0	3	2			
7	0	0	0	0	463	510	0	0	3	2			
8	0	0	0	0	467	510	0	0	3	2			
9	0	0	0	0	463	512	0	0	3	2			
10	0	0	0	0	463	511	0	0	3	2			
11	0	0	0	0	467	515	0	0	4	2			
12	0	0	0	0	472	512	0	0	3	2			
