# OpenSignals Text File Format. Version 1
# {"98:D3:31:B2:12:BA": {"position": 0, "device": "bitalino", "device name": "98:D3:31:B2:12:BA", "device connection": "BTH98:D3:31:B2:12:BA", "sampling rate": 1000, "resolution": [4, 1, 1, 1, 1, 10, 10, 10, 10], "firmware version": 771, "comments": "", "keywords": "", "mode": 0, "sync interval": 2, "date": "2022-7-28", "time": "13:1:6.186", "channels": [1, 2, 3, 4], "sensor": ["EMGBIT", "EMGBIT", "RAW", "RAW"], "label": ["A1", "A2", "A3", "A4"], "column": ["nSeq", "I1", "I2", "I3", "I4", "A1", "A2", "A3", "A4"], "special": [{}, {}, {}, {}], "digital IO": [0, 0, 0, 0, 1, 1, 1, 1]}}
# EndOfHeader
0	0	0	0	0	476	510	0	0	
1	0	0	0	0	480	511	0	0	
2	0	0	0	0	481	508	0	0	
3	0	0	0	0	483	510	0	0	
4	0	0	0	0	487	510	0	0	
5	0	0	0	0	487	508	0	0	
6	0	0	0	0	476	511	0	0	
7	0	0	0	0	463	511	0	0	
8	0	0	0	0	463	511	0	0	
9	0	0	0	0	463	508	0	0	
10	0	0	0	0	455	508	0	0	
11	0	0	0	0	460	511	0	0	
12	0	0	0	0	465	510	0	0	
13	0	0	0	0	472	512	0	0	
14	0	0	0	0	473	512	0	0	
15	0	0	0	0	473	512	0	0	
0	0	0	0	0	480	512	0	0	
1	0	0	0	0	483	511	0	0	
2	0	0	0	0	480	512	0	0	
3	0	0	0	0	483	512	0	0	
4	0	0	0	0	483	512	0	0	
5	0	0	0	0	480	511	0	0	
6	0	0	0	0	480	508	0	0	
7	0	0	0	0	476	510	0	0	
8	0	0	0	0	472	511	0	0	
9	0	0	0	0	470	505	0	0	
10	0	0	0	0	467	510	0	0	
11	0	0	0	0	467	510	0	0	
12	0	0	0	0	467	510	0	0	
13	0	0	0	0	472	511	0	0	
14	0	0	0	0	467	510	0	0	
15	0	0	0	0	463	511	0	0	
0	0	0	0	0	463	511	0	0	
1	0	0	0	0	467	511	0	0	
2	0	0	0	0	472	511	0	0	
3	0	0	0	0	472	508	0	0	
4	0	0	0	0	480	510	0	0	
5	0	0	0	0	480	512	0	0	
6	0	0	0	0	481	512	0	0	
7	0	0	0	0	487	510	0	0	
8	0	0	0	0	487	510	0	0	
9	0	0	0	0	487	508	0	0	
10	0	0	0	0	487	510	0	0	
11	0	0	0	0	483	511	0	0	
12	0	0	0	0	478	510	0	0	
13	0	0	0	0	472	510	0	0	
14	0	0	0	0	470	508	0	0	
15	0	0	0	0	467	508	0	0	
0	0	0	0	0	463	510	0	0	
1	0	0	0	0	462	508	0	0	
2	0	0	0	0	455	508	0	0	
3	0	0	0	0	455	505	0	0	
4	0	0	0	0	463	511	0	0	
5	0	0	0	0	472	510	0	0	
6	0	0	0	0	472	508	0	0	
7	0	0	0	0	472	504	0	0	
8	0	0	0	0	480	508	0	0	
9	0	0	0	0	483	511	0	0	
10	0	0	0	0	487	515	0	0	
11	0	0	0	0	489	513	0	0	
12	0	0	0	0	487	512	0	0	
13	0	0	0	0	487	511	0	0	
14	0	0	0	0	496	508	0	0	
15	0	0	0	0	492	510	0	0	
0	0	0	0	0	492	512	0	0	
1	0	0	0	0	481	511	0	0	
2	0	0	0	0	472	504	0	0	
3	0	0	0	0	467	504	0	0	
4	0	0	0	0	467	504	0	0	
5	0	0	0	0	460	505	0	0	
6	0	0	0	0	448	504	0	0	
7	0	0	0	0	448	510	0	0	
8	0	0	0	0	455	510	0	0	
9	0	0	0	0	460	510	0	0	
10	0	0	0	0	463	515	0	0	
11	0	0	0	0	472	512	0	0	
12	0	0	0	0	476	513	0	0	
13	0	0	0	0	483	512	0	0	
14	0	0	0	0	487	511	0	0	
15	0	0	0	0	487	510	0	0	
0	0	0	0	0	487	510	0	0	
1	0	0	0	0	480	512	0	0	
2	0	0	0	0	480	510	0	0	
3	0	0	0	0	480	508	0	0	
4	0	0	0	0	483	505	0	0	
5	0	0	0	0	480	508	0	0	
6	0	0	0	0	476	508	0	0	
7	0	0	0	0	472	510	0	0	
8	0	0	0	0	472	510	0	0	
9	0	0	0	0	472	511	0	0	
10	0	0	0	0	467	511	0	0	
11	0	0	0	0	467	508	0	0	
12	0	0	0	0	463	508	0	0	
13	0	0	0	0	462	511	0	0	
14	0	0	0	0	472	511	0	0	
15	0	0	0	0	476	508	0	0	
0	0	0	0	0	473	512	0	0	
1	0	0	0	0	480	511	0	0	
2	0	0	0	0	481	511	0	0	
3	0	0	0	0	483	511	0	0	
4	0	0	0	0	481	510	0	0	
5	0	0	0	0	476	511	0	0	
6	0	0	0	0	478	508	0	0	
7	0	0	0	0	476	505	0	0	
8	0	0	0	0	478	504	0	0	
9	0	0	0	0	478	504	0	0	
10	0	0	0	0	476	508	0	0	
11	0	0	0	0	472	508	0	0	
12	0	0	0	0	472	510	0	0	
13	0	0	0	0	472	508	0	0	
14	0	0	0	0	472	505	0	0	
15	0	0	0	0	463	512	0	0	
0	0	0	0	0	463	511	0	0	
1	0	0	0	0	467	511	0	0	
2	0	0	0	0	472	512	0	0	
3	0	0	0	0	476	511	0	0	
4	0	0	0	0	483	508	0	0	
5	0	0	0	0	483	512	0	0	
6	0	0	0	0	483	512	0	0	
7	0	0	0	0	483	511	0	0	
8	0	0	0	0	480	510	0	0	
9	0	0	0	0	481	513	0	0	
10	0	0	0	0	487	510	0	0	
11	0	0	0	0	487	508	0	0	
12	0	0	0	0	480	504	0	0	
13	0	0	0	0	476	504	0	0	
14	0	0	0	0	467	504	0	0	
15	0	0	0	0	467	504	0	0	
0	0	0	0	0	463	512	0	0	
1	0	0	0	0	455	510	0	0	
2	0	0	0	0	460	511	0	0	
3	0	0	0	0	463	510	0	0	
4	0	0	0	0	463	511	0	0	
5	0	0	0	0	472	511	0	0	
6	0	0	0	0	481	508	0	0	
7	0	0	0	0	487	510	0	0	
8	0	0	0	0	487	510	0	0	
9	0	0	0	0	487	508	0	0	
10	0	0	0	0	496	508	0	0	
11	0	0	0	0	494	511	0	0	
12	0	0	0	0	487	512	0	0	
13	0	0	0	0	487	511	0	0	
14	0	0	0	0	476	508	0	0	
15	0	0	0	0	472	510	0	0	
0	0	0	0	0	472	511	0	0	
1	0	0	0	0	473	510	0	0	
2	0	0	0	0	476	511	0	0	
3	0	0	0	0	476	508	0	0	
4	0	0	0	0	472	508	0	0	
5	0	0	0	0	472	504	0	0	
6	0	0	0	0	478	510	0	0	
7	0	0	0	0	480	511	0	0	
8	0	0	0	0	473	510	0	0	
9	0	0	0	0	476	510	0	0	
10	0	0	0	0	480	511	0	0	
11	0	0	0	0	476	511	0	0	
12	0	0	0	0	480	512	0	0	
13	0	0	0	0	483	511	0	0	
14	0	0	0	0	486	511	0	0	
15	0	0	0	0	480	511	0	0	
0	0	0	0	0	480	511	0	0	
1	0	0	0	0	478	512	0	0	
2	0	0	0	0	472	510	0	0	
3	0	0	0	0	472	511	0	0	
4	0	0	0	0	467	508	0	0	
5	0	0	0	0	463	508	0	0	
6	0	0	0	0	463	512	0	0	
7	0	0	0	0	465	510	0	0	
8	0	0	0	0	463	508	0	0	
9	0	0	0	0	463	508	0	0	
10	0	0	0	0	463	508	0	0	
11	0	0	0	0	463	510	0	0	
12	0	0	0	0	465	512	0	0	
13	0	0	0	0	472	511	0	0	
14	0	0	0	0	476	511	0	0	
15	0	0	0	0	480	511	0	0	
0	0	0	0	0	480	511	0	0	
1	0	0	0	0	480	511	0	0	
2	0	0	0	0	480	511	0	0	
3	0	0	0	0	480	511	0	0	
4	0	0	0	0	481	512	0	0	
5	0	0	0	0	486	510	0	0	
6	0	0	0	0	487	511	0	0	
7	0	0	0	0	487	511	0	0	
8	0	0	0	0	487	510	0	0	
9	0	0	0	0	483	510	0	0	
10	0	0	0	0	480	508	0	0	
11	0	0	0	0	476	508	0	0	
12	0	0	0	0	467	508	0	0	
13	0	0	0	0	463	508	0	0	
14	0	0	0	0	472	508	0	0	
15	0	0	0	0	467	508	0	0	
0	0	0	0	0	463	510	0	0	
1	0	0	0	0	465	511	0	0	
2	0	0	0	0	472	510	0	0	
3	0	0	0	0	480	510	0	0	
4	0	0	0	0	481	511	0	0	
5	0	0	0	0	486	513	0	0	
6	0	0	0	0	483	508	0	0	
7	0	0	0	0	481	508	0	0	
8	0	0	0	0	480	508	0	0	
9	0	0	0	0	486	508	0	0	
10	0	0	0	0	473	511	0	0	
11	0	0	0	0	463	510	0	0	
12	0	0	0	0	467	508	0	0	
13	0	0	0	0	470	508	0	0	
14	0	0	0	0	465	510	0	0	
15	0	0	0	0	467	511	0	0	
0	0	0	0	0	465	508	0	0	
1	0	0	0	0	460	508	0	0	
2	0	0	0	0	455	508	0	0	
3	0	0	0	0	460	508	0	0	
4	0	0	0	0	467	508	0	0	
5	0	0	0	0	472	511	0	0	
6	0	0	0	0	472	512	0	0	
7	0	0	0	0	480	512	0	0	
8	0	0	0	0	480	513	0	0	
9	0	0	0	0	480	511	0	0	
10	0	0	0	0	481	513	0	0	
11	0	0	0	0	483	512	0	0	
12	0	0	0	0	487	512	0	0	
13	0	0	0	0	487	511	0	0	
14	0	0	0	0	487	508	0	0	
15	0	0	0	0	480	505	0	0	
0	0	0	0	0	480	512	0	0	
1	0	0	0	0	480	511	0	0	
2	0	0	0	0	476	510	0	0	
3	0	0	0	0	472	508	0	0	
4	0	0	0	0	463	508	0	0	
5	0	0	0	0	462	508	0	0	
6	0	0	0	0	463	511	0	0	
7	0	0	0	0	472	510	0	0	
8	0	0	0	0	472	511	0	0	
9	0	0	0	0	480	511	0	0	
10	0	0	0	0	480	512	0	0	
11	0	0	0	0	476	513	0	0	
12	0	0	0	0	476	513	0	0	
13	0	0	0	0	480	512	0	0	
14	0	0	0	0	481	511	0	0	
15	0	0	0	0	480	511	0	0	
0	0	0	0	0	483	510	0	0	
1	0	0	0	0	487	508	0	0	
2	0	0	0	0	480	504	0	0	
3	0	0	0	0	476	504	0	0	
4	0	0	0	0	480	504	0	0	
5	0	0	0	0	480	504	0	0	
6	0	0	0	0	476	512	0	0	
7	0	0	0	0	472	511	0	0	
8	0	0	0	0	472	510	0	0	
9	0	0	0	0	472	504	0	0	
10	0	0	0	0	463	504	0	0	
11	0	0	0	0	455	508	0	0	
12	0	0	0	0	454	511	0	0	
13	0	0	0	0	462	510	0	0	
14	0	0	0	0	472	508	0	0	
15	0	0	0	0	472	510	0	0	
0	0	0	0	0	480	512	0	0	
1	0	0	0	0	480	512	0	0	
2	0	0	0	0	480	510	0	0	
3	0	0	0	0	480	510	0	0	
4	0	0	0	0	480	510	0	0	
5	0	0	0	0	481	512	0	0	
6	0	0	0	0	480	511	0	0	
7	0	0	0	0	480	511	0	0	
8	0	0	0	0	481	508	0	0	
9	0	0	0	0	480	510	0	0	
10	0	0	0	0	472	510	0	0	
11	0	0	0	0	470	508	0	0	
12	0	0	0	0	470	505	0	0	
13	0	0	0	0	473	505	0	0	
14	0	0	0	0	478	508	0	0	
15	0	0	0	0	472	510	0	0	
0	0	0	0	0	467	508	0	0	
1	0	0	0	0	472	511	0	0	
2	0	0	0	0	472	510	0	0	
3	0	0	0	0	473	510	0	0	
4	0	0	0	0	473	511	0	0	
5	0	0	0	0	473	513	0	0	
6	0	0	0	0	486	512	0	0	
7	0	0	0	0	487	510	0	0	
8	0	0	0	0	487	504	0	0	
9	0	0	0	0	486	504	0	0	
10	0	0	0	0	480	508	0	0	
11	0	0	0	0	472	510	0	0	
12	0	0	0	0	467	510	0	0	
13	0	0	0	0	472	518	0	0	
14	0	0	0	0	480	515	0	0	
15	0	0	0	0	483	508	0	0	
0	0	0	0	0	480	508	0	0	
1	0	0	0	0	481	508	0	0	
2	0	0	0	0	480	508	0	0	
3	0	0	0	0	481	512	0	0	
4	0	0	0	0	480	512	0	0	
5	0	0	0	0	463	510	0	0	
6	0	0	0	0	455	510	0	0	
7	0	0	0	0	455	511	0	0	
8	0	0	0	0	455	512	0	0	
9	0	0	0	0	460	510	0	0	
10	0	0	0	0	467	510	0	0	
11	0	0	0	0	476	508	0	0	
12	0	0	0	0	480	511	0	0	
13	0	0	0	0	480	513	0	0	
14	0	0	0	0	481	513	0	0	
15	0	0	0	0	476	510	0	0	
0	0	0	0	0	476	508	0	0	
1	0	0	0	0	472	508	0	0	
2	0	0	0	0	465	504	0	0	
3	0	0	0	0	465	511	0	0	
4	0	0	0	0	472	510	0	0	
5	0	0	0	0	472	508	0	0	
6	0	0	0	0	472	508	0	0	
7	0	0	0	0	476	504	0	0	
8	0	0	0	0	480	510	0	0	
9	0	0	0	0	480	511	0	0	
10	0	0	0	0	480	513	0	0	
11	0	0	0	0	472	511	0	0	
12	0	0	0	0	476	511	0	0	
13	0	0	0	0	472	511	0	0	
14	0	0	0	0	476	511	0	0	
15	0	0	0	0	480	508	0	0	
0	0	0	0	0	480	511	0	0	
1	0	0	0	0	483	510	0	0	
2	0	0	0	0	483	508	0	0	
3	0	0	0	0	483	505	0	0	
4	0	0	0	0	480	504	0	0	
5	0	0	0	0	476	508	0	0	
6	0	0	0	0	472	508	0	0	
7	0	0	0	0	472	508	0	0	
8	0	0	0	0	476	505	0	0	
9	0	0	0	0	478	510	0	0	
10	0	0	0	0	460	511	0	0	
11	0	0	0	0	460	508	0	0	
12	0	0	0	0	462	508	0	0	
13	0	0	0	0	465	508	0	0	
14	0	0	0	0	472	511	0	0	
15	0	0	0	0	480	508	0	0	
0	0	0	0	0	480	510	0	0	
1	0	0	0	0	480	510	0	0	
2	0	0	0	0	483	511	0	0	
3	0	0	0	0	483	508	0	0	
4	0	0	0	0	487	510	0	0	
5	0	0	0	0	492	511	0	0	
6	0	0	0	0	487	510	0	0	
7	0	0	0	0	483	511	0	0	
8	0	0	0	0	487	510	0	0	
9	0	0	0	0	480	511	0	0	
10	0	0	0	0	472	508	0	0	
11	0	0	0	0	465	508	0	0	
12	0	0	0	0	470	510	0	0	
13	0	0	0	0	472	508	0	0	
14	0	0	0	0	472	510	0	0	
15	0	0	0	0	465	508	0	0	
0	0	0	0	0	465	505	0	0	
1	0	0	0	0	472	511	0	0	
2	0	0	0	0	476	510	0	0	
3	0	0	0	0	478	511	0	0	
4	0	0	0	0	476	512	0	0	
5	0	0	0	0	481	511	0	0	
6	0	0	0	0	480	510	0	0	
7	0	0	0	0	472	512	0	0	
8	0	0	0	0	467	511	0	0	
9	0	0	0	0	465	512	0	0	
10	0	0	0	0	465	513	0	0	
11	0	0	0	0	467	508	0	0	
12	0	0	0	0	467	510	0	0	
13	0	0	0	0	465	510	0	0	
14	0	0	0	0	463	511	0	0	
15	0	0	0	0	463	510	0	0	
0	0	0	0	0	463	504	0	0	
1	0	0	0	0	463	504	0	0	
2	0	0	0	0	467	508	0	0	
3	0	0	0	0	467	508	0	0	
4	0	0	0	0	467	508	0	0	
5	0	0	0	0	472	508	0	0	
6	0	0	0	0	476	512	0	0	
7	0	0	0	0	480	515	0	0	
8	0	0	0	0	481	511	0	0	
9	0	0	0	0	483	511	0	0	
10	0	0	0	0	487	508	0	0	
11	0	0	0	0	494	504	0	0	
12	0	0	0	0	496	510	0	0	
13	0	0	0	0	494	508	0	0	
14	0	0	0	0	494	508	0	0	
15	0	0	0	0	487	508	0	0	
0	0	0	0	0	483	508	0	0	
1	0	0	0	0	481	511	0	0	
2	0	0	0	0	472	511	0	0	
3	0	0	0	0	460	508	0	0	
4	0	0	0	0	455	505	0	0	
5	0	0	0	0	462	504	0	0	
6	0	0	0	0	462	511	0	0	
7	0	0	0	0	463	512	0	0	
8	0	0	0	0	473	512	0	0	
9	0	0	0	0	480	508	0	0	
10	0	0	0	0	473	508	0	0	
11	0	0	0	0	476	510	0	0	
12	0	0	0	0	480	513	0	0	
13	0	0	0	0	480	512	0	0	
14	0	0	0	0	480	510	0	0	
15	0	0	0	0	480	508	0	0	
0	0	0	0	0	480	510	0	0	
1	0	0	0	0	483	512	0	0	
2	0	0	0	0	480	512	0	0	
3	0	0	0	0	476	511	0	0	
4	0	0	0	0	472	508	0	0	
5	0	0	0	0	465	508	0	0	
6	0	0	0	0	463	508	0	0	
7	0	0	0	0	463	511	0	0	
8	0	0	0	0	463	508	0	0	
9	0	0	0	0	463	508	0	0	
10	0	0	0	0	463	508	0	0	
11	0	0	0	0	463	508	0	0	
12	0	0	0	0	465	510	0	0	
13	0	0	0	0	472	512	0	0	
14	0	0	0	0	476	512	0	0	
15	0	0	0	0	483	510	0	0	
0	0	0	0	0	487	510	0	0	
1	0	0	0	0	492	508	0	0	
2	0	0	0	0	496	511	0	0	
3	0	0	0	0	492	511	0	0	
4	0	0	0	0	487	510	0	0	
5	0	0	0	0	480	508	0	0	
6	0	0	0	0	473	508	0	0	
7	0	0	0	0	478	505	0	0	
8	0	0	0	0	472	508	0	0	
9	0	0	0	0	463	511	0	0	
10	0	0	0	0	463	511	0	0	
11	0	0	0	0	462	511	0	0	
12	0	0	0	0	460	513	0	0	
13	0	0	0	0	462	508	0	0	
14	0	0	0	0	460	510	0	0	
15	0	0	0	0	455	508	0	0	
0	0	0	0	0	462	508	0	0	
1	0	0	0	0	467	511	0	0	
2	0	0	0	0	472	510	0	0	
3	0	0	0	0	476	510	0	0	
4	0	0	0	0	476	508	0	0	
5	0	0	0	0	480	511	0	0	
6	0	0	0	0	480	510	0	0	
7	0	0	0	0	480	511	0	0	
8	0	0	0	0	483	512	0	0	
9	0	0	0	0	487	511	0	0	
10	0	0	0	0	486	510	0	0	
11	0	0	0	0	476	505	0	0	
12	0	0	0	0	476	510	0	0	
13	0	0	0	0	472	515	0	0	
14	0	0	0	0	472	511	0	0	
15	0	0	0	0	472	508	0	0	
0	0	0	0	0	472	510	0	0	
1	0	0	0	0	472	508	0	0	
2	0	0	0	0	476	510	0	0	
3	0	0	0	0	472	510	0	0	
4	0	0	0	0	472	508	0	0	
5	0	0	0	0	480	511	0	0	
6	0	0	0	0	480	511	0	0	
7	0	0	0	0	480	512	0	0	
8	0	0	0	0	480	512	0	0	
9	0	0	0	0	480	512	0	0	
10	0	0	0	0	476	512	0	0	
11	0	0	0	0	480	511	0	0	
12	0	0	0	0	483	510	0	0	
13	0	0	0	0	487	511	0	0	
14	0	0	0	0	486	510	0	0	
15	0	0	0	0	483	510	0	0	
0	0	0	0	0	483	508	0	0	
1	0	0	0	0	480	508	0	0	
2	0	0	0	0	476	508	0	0	
3	0	0	0	0	472	508	0	0	
4	0	0	0	0	467	508	0	0	
5	0	0	0	0	467	508	0	0	
6	0	0	0	0	465	508	0	0	
7	0	0	0	0	463	505	0	0	
8	0	0	0	0	465	508	0	0	
9	0	0	0	0	470	508	0	0	
10	0	0	0	0	472	508	0	0	
11	0	0	0	0	483	511	0	0	
12	0	0	0	0	483	508	0	0	
13	0	0	0	0	487	508	0	0	
14	0	0	0	0	492	511	0	0	
15	0	0	0	0	492	511	0	0	
0	0	0	0	0	487	510	0	0	
1	0	0	0	0	483	508	0	0	
2	0	0	0	0	480	508	0	0	
3	0	0	0	0	481	508	0	0	
4	0	0	0	0	480	508	0	0	
5	0	0	0	0	472	508	0	0	
6	0	0	0	0	472	511	0	0	
7	0	0	0	0	472	508	0	0	
8	0	0	0	0	463	511	0	0	
9	0	0	0	0	460	513	0	0	
10	0	0	0	0	463	513	0	0	
11	0	0	0	0	463	512	0	0	
12	0	0	0	0	462	511	0	0	
13	0	0	0	0	463	510	0	0	
14	0	0	0	0	472	508	0	0	
15	0	0	0	0	476	511	0	0	
0	0	0	0	0	480	510	0	0	
1	0	0	0	0	483	512	0	0	
2	0	0	0	0	487	512	0	0	
3	0	0	0	0	487	510	0	0	
4	0	0	0	0	487	510	0	0	
5	0	0	0	0	492	510	0	0	
6	0	0	0	0	483	512	0	0	
7	0	0	0	0	480	510	0	0	
8	0	0	0	0	472	504	0	0	
9	0	0	0	0	472	508	0	0	
10	0	0	0	0	472	504	0	0	
11	0	0	0	0	472	508	0	0	
12	0	0	0	0	472	508	0	0	
13	0	0	0	0	465	508	0	0	
14	0	0	0	0	463	510	0	0	
15	0	0	0	0	463	508	0	0	
0	0	0	0	0	455	510	0	0	
1	0	0	0	0	451	510	0	0	
2	0	0	0	0	460	510	0	0	
3	0	0	0	0	463	511	0	0	
4	0	0	0	0	467	510	0	0	
5	0	0	0	0	472	511	0	0	
6	0	0	0	0	476	513	0	0	
7	0	0	0	0	483	511	0	0	
8	0	0	0	0	487	510	0	0	
9	0	0	0	0	489	508	0	0	
10	0	0	0	0	487	511	0	0	
11	0	0	0	0	481	511	0	0	
12	0	0	0	0	480	508	0	0	
13	0	0	0	0	476	508	0	0	
14	0	0	0	0	476	508	0	0	
15	0	0	0	0	472	508	0	0	
0	0	0	0	0	465	505	0	0	
1	0	0	0	0	463	511	0	0	
2	0	0	0	0	472	510	0	0	
3	0	0	0	0	472	510	0	0	
4	0	0	0	0	476	505	0	0	
5	0	0	0	0	481	511	0	0	
6	0	0	0	0	487	512	0	0	
7	0	0	0	0	487	515	0	0	
8	0	0	0	0	480	511	0	0	
9	0	0	0	0	476	512	0	0	
10	0	0	0	0	472	511	0	0	
11	0	0	0	0	455	511	0	0	
12	0	0	0	0	454	510	0	0	
13	0	0	0	0	472	510	0	0	
14	0	0	0	0	480	510	0	0	
15	0	0	0	0	480	510	0	0	
0	0	0	0	0	481	510	0	0	
1	0	0	0	0	480	508	0	0	
2	0	0	0	0	480	510	0	0	
3	0	0	0	0	480	508	0	0	
4	0	0	0	0	480	508	0	0	
5	0	0	0	0	476	508	0	0	
6	0	0	0	0	472	508	0	0	
7	0	0	0	0	455	510	0	0	
8	0	0	0	0	451	510	0	0	
9	0	0	0	0	462	511	0	0	
10	0	0	0	0	463	511	0	0	
11	0	0	0	0	473	508	0	0	
12	0	0	0	0	480	511	0	0	
13	0	0	0	0	481	512	0	0	
14	0	0	0	0	481	512	0	0	
15	0	0	0	0	486	511	0	0	
0	0	0	0	0	487	510	0	0	
1	0	0	0	0	481	508	0	0	
2	0	0	0	0	481	508	0	0	
3	0	0	0	0	480	511	0	0	
4	0	0	0	0	473	513	0	0	
5	0	0	0	0	472	510	0	0	
6	0	0	0	0	472	510	0	0	
7	0	0	0	0	472	508	0	0	
8	0	0	0	0	472	511	0	0	
9	0	0	0	0	472	511	0	0	
10	0	0	0	0	472	508	0	0	
11	0	0	0	0	473	510	0	0	
12	0	0	0	0	472	511	0	0	
13	0	0	0	0	472	513	0	0	
14	0	0	0	0	476	513	0	0	
15	0	0	0	0	480	510	0	0	
0	0	0	0	0	480	508	0	0	
1	0	0	0	0	476	508	0	0	
2	0	0	0	0	480	510	0	0	
3	0	0	0	0	480	510	0	0	
4	0	0	0	0	480	510	0	0	
5	0	0	0	0	483	511	0	0	
6	0	0	0	0	483	511	0	0	
7	0	0	0	0	487	510	0	0	
8	0	0	0	0	483	511	0	0	
9	0	0	0	0	480	511	0	0	
10	0	0	0	0	480	511	0	0	
11	0	0	0	0	480	511	0	0	
12	0	0	0	0	476	505	0	0	
13	0	0	0	0	472	508	0	0	
14	0	0	0	0	467	508	0	0	
15	0	0	0	0	462	510	0	0	
0	0	0	0	0	451	508	0	0	
1	0	0	0	0	460	511	0	0	
2	0	0	0	0	462	512	0	0	
3	0	0	0	0	463	510	0	0	
4	0	0	0	0	476	508	0	0	
5	0	0	0	0	478	505	0	0	
6	0	0	0	0	480	508	0	0	
7	0	0	0	0	487	510	0	0	
8	0	0	0	0	492	510	0	0	
9	0	0	0	0	489	508	0	0	
10	0	0	0	0	492	510	0	0	
11	0	0	0	0	492	508	0	0	
12	0	0	0	0	487	510	0	0	
13	0	0	0	0	492	508	0	0	
14	0	0	0	0	487	513	0	0	
15	0	0	0	0	480	511	0	0	
0	0	0	0	0	463	511	0	0	
1	0	0	0	0	455	511	0	0	
2	0	0	0	0	455	510	0	0	
3	0	0	0	0	455	510	0	0	
4	0	0	0	0	448	510	0	0	
5	0	0	0	0	460	508	0	0	
6	0	0	0	0	472	511	0	0	
7	0	0	0	0	473	508	0	0	
8	0	0	0	0	478	508	0	0	
9	0	0	0	0	480	511	0	0	
10	0	0	0	0	481	510	0	0	
11	0	0	0	0	480	510	0	0	
12	0	0	0	0	478	511	0	0	
13	0	0	0	0	476	508	0	0	
14	0	0	0	0	480	508	0	0	
15	0	0	0	0	476	508	0	0	
0	0	0	0	0	472	510	0	0	
1	0	0	0	0	472	511	0	0	
2	0	0	0	0	472	511	0	0	
3	0	0	0	0	472	510	0	0	
4	0	0	0	0	472	511	0	0	
5	0	0	0	0	480	508	0	0	
6	0	0	0	0	476	508	0	0	
7	0	0	0	0	467	508	0	0	
8	0	0	0	0	473	510	0	0	
9	0	0	0	0	476	510	0	0	
10	0	0	0	0	476	511	0	0	
11	0	0	0	0	476	512	0	0	
12	0	0	0	0	472	512	0	0	
13	0	0	0	0	472	510	0	0	
14	0	0	0	0	476	508	0	0	
15	0	0	0	0	480	510	0	0	
0	0	0	0	0	476	510	0	0	
1	0	0	0	0	483	511	0	0	
2	0	0	0	0	483	512	0	0	
3	0	0	0	0	481	512	0	0	
4	0	0	0	0	478	510	0	0	
5	0	0	0	0	472	511	0	0	
6	0	0	0	0	472	508	0	0	
7	0	0	0	0	472	508	0	0	
8	0	0	0	0	467	504	0	0	
9	0	0	0	0	465	504	0	0	
10	0	0	0	0	465	508	0	0	
11	0	0	0	0	463	510	0	0	
12	0	0	0	0	463	505	0	0	
13	0	0	0	0	463	504	0	0	
14	0	0	0	0	476	511	0	0	
15	0	0	0	0	480	510	0	0	
0	0	0	0	0	483	510	0	0	
1	0	0	0	0	483	512	0	0	
2	0	0	0	0	487	511	0	0	
3	0	0	0	0	492	508	0	0	
4	0	0	0	0	487	511	0	0	
5	0	0	0	0	492	508	0	0	
6	0	0	0	0	487	508	0	0	
7	0	0	0	0	480	508	0	0	
8	0	0	0	0	478	510	0	0	
9	0	0	0	0	476	504	0	0	
10	0	0	0	0	467	505	0	0	
11	0	0	0	0	463	508	0	0	
12	0	0	0	0	465	508	0	0	
13	0	0	0	0	467	510	0	0	
14	0	0	0	0	467	510	0	0	
15	0	0	0	0	463	511	0	0	
0	0	0	0	0	460	511	0	0	
1	0	0	0	0	463	511	0	0	
2	0	0	0	0	470	511	0	0	
3	0	0	0	0	476	510	0	0	
4	0	0	0	0	481	511	0	0	
5	0	0	0	0	487	511	0	0	
6	0	0	0	0	492	508	0	0	
7	0	0	0	0	494	510	0	0	
8	0	0	0	0	492	511	0	0	
9	0	0	0	0	494	511	0	0	
10	0	0	0	0	487	511	0	0	
11	0	0	0	0	483	508	0	0	
12	0	0	0	0	467	510	0	0	
13	0	0	0	0	455	510	0	0	
14	0	0	0	0	455	510	0	0	
15	0	0	0	0	460	511	0	0	
0	0	0	0	0	455	508	0	0	
1	0	0	0	0	462	508	0	0	
2	0	0	0	0	463	508	0	0	
3	0	0	0	0	465	508	0	0	
4	0	0	0	0	467	512	0	0	
5	0	0	0	0	472	510	0	0	
6	0	0	0	0	476	510	0	0	
7	0	0	0	0	480	511	0	0	
8	0	0	0	0	476	511	0	0	
9	0	0	0	0	480	511	0	0	
10	0	0	0	0	487	510	0	0	
11	0	0	0	0	489	511	0	0	
12	0	0	0	0	487	511	0	0	
13	0	0	0	0	487	510	0	0	
14	0	0	0	0	492	510	0	0	
15	0	0	0	0	483	510	0	0	
0	0	0	0	0	480	510	0	0	
1	0	0	0	0	480	510	0	0	
2	0	0	0	0	472	512	0	0	
3	0	0	0	0	472	510	0	0	
4	0	0	0	0	467	511	0	0	
5	0	0	0	0	470	510	0	0	
6	0	0	0	0	476	508	0	0	
7	0	0	0	0	478	511	0	0	
8	0	0	0	0	478	511	0	0	
9	0	0	0	0	480	512	0	0	
10	0	0	0	0	476	511	0	0	
11	0	0	0	0	480	508	0	0	
12	0	0	0	0	476	511	0	0	
13	0	0	0	0	476	511	0	0	
14	0	0	0	0	480	511	0	0	
15	0	0	0	0	480	512	0	0	
0	0	0	0	0	478	512	0	0	
1	0	0	0	0	480	511	0	0	
2	0	0	0	0	483	512	0	0	
3	0	0	0	0	481	510	0	0	
4	0	0	0	0	476	508	0	0	
5	0	0	0	0	467	508	0	0	
6	0	0	0	0	463	508	0	0	
7	0	0	0	0	463	510	0	0	
8	0	0	0	0	460	508	0	0	
9	0	0	0	0	462	508	0	0	
10	0	0	0	0	463	510	0	0	
11	0	0	0	0	463	508	0	0	
12	0	0	0	0	467	505	0	0	
13	0	0	0	0	472	511	0	0	
14	0	0	0	0	476	510	0	0	
15	0	0	0	0	480	508	0	0	
0	0	0	0	0	478	504	0	0	
1	0	0	0	0	480	504	0	0	
2	0	0	0	0	480	508	0	0	
3	0	0	0	0	480	512	0	0	
4	0	0	0	0	480	515	0	0	
5	0	0	0	0	480	512	0	0	
6	0	0	0	0	480	510	0	0	
7	0	0	0	0	481	511	0	0	
8	0	0	0	0	480	508	0	0	
9	0	0	0	0	476	505	0	0	
10	0	0	0	0	472	508	0	0	
11	0	0	0	0	472	508	0	0	
12	0	0	0	0	472	510	0	0	
13	0	0	0	0	467	510	0	0	
14	0	0	0	0	463	510	0	0	
15	0	0	0	0	465	510	0	0	
0	0	0	0	0	467	510	0	0	
1	0	0	0	0	467	510	0	0	
2	0	0	0	0	472	511	0	0	
3	0	0	0	0	480	510	0	0	
4	0	0	0	0	478	512	0	0	
5	0	0	0	0	480	510	0	0	
6	0	0	0	0	483	511	0	0	
7	0	0	0	0	483	508	0	0	
8	0	0	0	0	483	512	0	0	
9	0	0	0	0	483	511	0	0	
10	0	0	0	0	480	508	0	0	
11	0	0	0	0	473	508	0	0	
12	0	0	0	0	472	508	0	0	
13	0	0	0	0	467	508	0	0	
14	0	0	0	0	463	510	0	0	
15	0	0	0	0	467	510	0	0	
0	0	0	0	0	472	510	0	0	
1	0	0	0	0	472	511	0	0	
2	0	0	0	0	467	511	0	0	
3	0	0	0	0	463	508	0	0	
4	0	0	0	0	463	511	0	0	
5	0	0	0	0	467	511	0	0	
6	0	0	0	0	472	508	0	0	
7	0	0	0	0	480	510	0	0	
8	0	0	0	0	487	512	0	0	
9	0	0	0	0	487	513	0	0	
10	0	0	0	0	496	513	0	0	
11	0	0	0	0	492	512	0	0	
12	0	0	0	0	487	508	0	0	
13	0	0	0	0	483	508	0	0	
14	0	0	0	0	476	510	0	0	
15	0	0	0	0	472	510	0	0	
0	0	0	0	0	476	508	0	0	
1	0	0	0	0	472	510	0	0	
2	0	0	0	0	472	505	0	0	
3	0	0	0	0	480	505	0	0	
4	0	0	0	0	473	511	0	0	
5	0	0	0	0	465	513	0	0	
6	0	0	0	0	467	511	0	0	
7	0	0	0	0	472	510	0	0	
8	0	0	0	0	480	508	0	0	
9	0	0	0	0	480	508	0	0	
10	0	0	0	0	476	511	0	0	
11	0	0	0	0	476	510	0	0	
12	0	0	0	0	480	508	0	0	
13	0	0	0	0	480	510	0	0	
14	0	0	0	0	473	511	0	0	
15	0	0	0	0	472	511	0	0	
0	0	0	0	0	467	511	0	0	
1	0	0	0	0	470	504	0	0	
2	0	0	0	0	472	508	0	0	
3	0	0	0	0	472	504	0	0	
4	0	0	0	0	472	510	0	0	
5	0	0	0	0	467	510	0	0	
6	0	0	0	0	472	512	0	0	
7	0	0	0	0	465	508	0	0	
8	0	0	0	0	463	510	0	0	
9	0	0	0	0	463	508	0	0	
10	0	0	0	0	470	508	0	0	
11	0	0	0	0	465	508	0	0	
12	0	0	0	0	465	508	0	0	
13	0	0	0	0	470	508	0	0	
14	0	0	0	0	476	511	0	0	
15	0	0	0	0	480	512	0	0	
0	0	0	0	0	483	510	0	0	
1	0	0	0	0	472	511	0	0	
2	0	0	0	0	480	511	0	0	
3	0	0	0	0	481	510	0	0	
4	0	0	0	0	480	508	0	0	
5	0	0	0	0	481	504	0	0	
6	0	0	0	0	481	508	0	0	
7	0	0	0	0	483	504	0	0	
8	0	0	0	0	480	508	0	0	
9	0	0	0	0	480	508	0	0	
10	0	0	0	0	476	508	0	0	
11	0	0	0	0	467	512	0	0	
12	0	0	0	0	463	512	0	0	
13	0	0	0	0	463	510	0	0	
14	0	0	0	0	463	508	0	0	
15	0	0	0	0	463	508	0	0	
0	0	0	0	0	463	504	0	0	
1	0	0	0	0	467	508	0	0	
2	0	0	0	0	480	508	0	0	
3	0	0	0	0	483	510	0	0	
4	0	0	0	0	483	511	0	0	
5	0	0	0	0	486	512	0	0	
6	0	0	0	0	487	513	0	0	
7	0	0	0	0	492	511	0	0	
8	0	0	0	0	492	511	0	0	
9	0	0	0	0	496	511	0	0	
10	0	0	0	0	487	510	0	0	
11	0	0	0	0	476	510	0	0	
12	0	0	0	0	473	510	0	0	
13	0	0	0	0	472	510	0	0	
14	0	0	0	0	472	508	0	0	
15	0	0	0	0	476	508	0	0	
0	0	0	0	0	472	508	0	0	
1	0	0	0	0	467	504	0	0	
2	0	0	0	0	472	508	0	0	
3	0	0	0	0	467	504	0	0	
4	0	0	0	0	467	511	0	0	
5	0	0	0	0	472	511	0	0	
6	0	0	0	0	476	510	0	0	
7	0	0	0	0	480	510	0	0	
8	0	0	0	0	480	510	0	0	
9	0	0	0	0	480	508	0	0	
10	0	0	0	0	483	511	0	0	
11	0	0	0	0	487	510	0	0	
12	0	0	0	0	487	510	0	0	
13	0	0	0	0	487	508	0	0	
14	0	0	0	0	487	510	0	0	
15	0	0	0	0	487	510	0	0	
0	0	0	0	0	487	508	0	0	
1	0	0	0	0	483	511	0	0	
2	0	0	0	0	480	510	0	0	
3	0	0	0	0	472	508	0	0	
4	0	0	0	0	460	508	0	0	
5	0	0	0	0	451	508	0	0	
6	0	0	0	0	451	510	0	0	
7	0	0	0	0	448	508	0	0	
8	0	0	0	0	449	508	0	0	
9	0	0	0	0	455	508	0	0	
10	0	0	0	0	462	510	0	0	
11	0	0	0	0	467	510	0	0	
12	0	0	0	0	476	510	0	0	
13	0	0	0	0	483	513	0	0	
14	0	0	0	0	487	512	0	0	
15	0	0	0	0	487	512	0	0	
0	0	0	0	0	483	512	0	0	
1	0	0	0	0	483	512	0	0	
2	0	0	0	0	472	511	0	0	
3	0	0	0	0	463	510	0	0	
4	0	0	0	0	467	508	0	0	
5	0	0	0	0	467	508	0	0	
6	0	0	0	0	467	508	0	0	
7	0	0	0	0	463	508	0	0	
8	0	0	0	0	463	511	0	0	
9	0	0	0	0	463	508	0	0	
10	0	0	0	0	463	510	0	0	
11	0	0	0	0	463	511	0	0	
12	0	0	0	0	463	510	0	0	
13	0	0	0	0	467	508	0	0	
14	0	0	0	0	472	510	0	0	
15	0	0	0	0	476	510	0	0	
0	0	0	0	0	483	512	0	0	
1	0	0	0	0	486	511	0	0	
2	0	0	0	0	480	511	0	0	
3	0	0	0	0	483	512	0	0	
4	0	0	0	0	486	510	0	0	
5	0	0	0	0	487	510	0	0	
6	0	0	0	0	487	511	0	0	
7	0	0	0	0	487	511	0	0	
8	0	0	0	0	483	511	0	0	
9	0	0	0	0	480	510	0	0	
10	0	0	0	0	480	510	0	0	
11	0	0	0	0	472	508	0	0	
12	0	0	0	0	472	508	0	0	
13	0	0	0	0	476	504	0	0	
14	0	0	0	0	476	504	0	0	
15	0	0	0	0	467	504	0	0	
0	0	0	0	0	472	504	0	0	
1	0	0	0	0	472	508	0	0	
2	0	0	0	0	476	513	0	0	
3	0	0	0	0	480	512	0	0	
4	0	0	0	0	480	508	0	0	
5	0	0	0	0	480	508	0	0	
6	0	0	0	0	480	505	0	0	
7	0	0	0	0	480	508	0	0	
8	0	0	0	0	480	504	0	0	
9	0	0	0	0	478	505	0	0	
10	0	0	0	0	467	505	0	0	
11	0	0	0	0	462	504	0	0	
12	0	0	0	0	455	510	0	0	
13	0	0	0	0	460	511	0	0	
14	0	0	0	0	460	510	0	0	
15	0	0	0	0	463	505	0	0	
0	0	0	0	0	472	508	0	0	
1	0	0	0	0	472	510	0	0	
2	0	0	0	0	476	511	0	0	
3	0	0	0	0	472	513	0	0	
4	0	0	0	0	467	512	0	0	
5	0	0	0	0	467	508	0	0	
6	0	0	0	0	472	511	0	0	
7	0	0	0	0	472	511	0	0	
8	0	0	0	0	476	510	0	0	
9	0	0	0	0	480	510	0	0	
10	0	0	0	0	486	508	0	0	
11	0	0	0	0	487	511	0	0	
12	0	0	0	0	487	510	0	0	
13	0	0	0	0	492	511	0	0	
14	0	0	0	0	487	510	0	0	
15	0	0	0	0	481	508	0	0	
0	0	0	0	0	472	510	0	0	
1	0	0	0	0	463	511	0	0	
2	0	0	0	0	463	512	0	0	
3	0	0	0	0	463	510	0	0	
4	0	0	0	0	463	511	0	0	
5	0	0	0	0	463	510	0	0	
6	0	0	0	0	463	510	0	0	
7	0	0	0	0	463	511	0	0	
8	0	0	0	0	472	510	0	0	
9	0	0	0	0	472	512	0	0	
10	0	0	0	0	476	511	0	0	
11	0	0	0	0	480	512	0	0	
12	0	0	0	0	480	511	0	0	
13	0	0	0	0	480	511	0	0	
14	0	0	0	0	483	508	0	0	
15	0	0	0	0	483	504	0	0	
0	0	0	0	0	483	508	0	0	
1	0	0	0	0	486	512	0	0	
2	0	0	0	0	487	512	0	0	
3	0	0	0	0	487	511	0	0	
4	0	0	0	0	480	504	0	0	
5	0	0	0	0	480	504	0	0	
6	0	0	0	0	478	508	0	0	
7	0	0	0	0	472	508	0	0	
8	0	0	0	0	472	511	0	0	
9	0	0	0	0	467	508	0	0	
10	0	0	0	0	467	508	0	0	
11	0	0	0	0	472	510	0	0	
12	0	0	0	0	472	508	0	0	
13	0	0	0	0	472	508	0	0	
14	0	0	0	0	476	512	0	0	
15	0	0	0	0	472	512	0	0	
0	0	0	0	0	472	511	0	0	
1	0	0	0	0	480	511	0	0	
2	0	0	0	0	481	512	0	0	
3	0	0	0	0	483	512	0	0	
4	0	0	0	0	487	512	0	0	
5	0	0	0	0	483	511	0	0	
6	0	0	0	0	480	511	0	0	
7	0	0	0	0	480	511	0	0	
8	0	0	0	0	480	508	0	0	
9	0	0	0	0	476	508	0	0	
10	0	0	0	0	472	510	0	0	
11	0	0	0	0	472	508	0	0	
12	0	0	0	0	467	508	0	0	
13	0	0	0	0	472	510	0	0	
14	0	0	0	0	472	510	0	0	
15	0	0	0	0	472	510	0	0	
0	0	0	0	0	480	510	0	0	
1	0	0	0	0	476	508	0	0	
2	0	0	0	0	480	511	0	0	
3	0	0	0	0	481	511	0	0	
4	0	0	0	0	476	508	0	0	
5	0	0	0	0	467	508	0	0	
6	0	0	0	0	472	504	0	0	
7	0	0	0	0	472	510	0	0	
8	0	0	0	0	476	510	0	0	
9	0	0	0	0	480	508	0	0	
10	0	0	0	0	476	510	0	0	
11	0	0	0	0	478	508	0	0	
12	0	0	0	0	480	505	0	0	
13	0	0	0	0	480	508	0	0	
14	0	0	0	0	472	513	0	0	
15	0	0	0	0	465	513	0	0	
0	0	0	0	0	467	512	0	0	
1	0	0	0	0	467	505	0	0	
2	0	0	0	0	462	510	0	0	
3	0	0	0	0	455	510	0	0	
4	0	0	0	0	463	511	0	0	
5	0	0	0	0	472	508	0	0	
6	0	0	0	0	476	510	0	0	
7	0	0	0	0	476	508	0	0	
8	0	0	0	0	480	511	0	0	
9	0	0	0	0	486	511	0	0	
10	0	0	0	0	481	511	0	0	
11	0	0	0	0	480	512	0	0	
12	0	0	0	0	483	512	0	0	
13	0	0	0	0	483	508	0	0	
14	0	0	0	0	481	508	0	0	
15	0	0	0	0	483	511	0	0	
0	0	0	0	0	480	508	0	0	
1	0	0	0	0	478	508	0	0	
2	0	0	0	0	472	505	0	0	
3	0	0	0	0	472	508	0	0	
4	0	0	0	0	467	508	0	0	
5	0	0	0	0	463	510	0	0	
6	0	0	0	0	455	508	0	0	
7	0	0	0	0	455	508	0	0	
8	0	0	0	0	462	512	0	0	
9	0	0	0	0	465	512	0	0	
10	0	0	0	0	472	511	0	0	
11	0	0	0	0	480	511	0	0	
12	0	0	0	0	486	511	0	0	
13	0	0	0	0	487	512	0	0	
14	0	0	0	0	487	511	0	0	
15	0	0	0	0	483	511	0	0	
0	0	0	0	0	487	512	0	0	
1	0	0	0	0	487	515	0	0	
2	0	0	0	0	487	512	0	0	
3	0	0	0	0	483	513	0	0	
4	0	0	0	0	480	513	0	0	
5	0	0	0	0	472	510	0	0	
6	0	0	0	0	472	511	0	0	
7	0	0	0	0	472	510	0	0	
8	0	0	0	0	472	511	0	0	
9	0	0	0	0	465	510	0	0	
10	0	0	0	0	467	508	0	0	
11	0	0	0	0	465	510	0	0	
12	0	0	0	0	472	511	0	0	
13	0	0	0	0	476	511	0	0	
14	0	0	0	0	463	512	0	0	
15	0	0	0	0	463	511	0	0	
0	0	0	0	0	480	508	0	0	
1	0	0	0	0	480	510	0	0	
2	0	0	0	0	483	511	0	0	
3	0	0	0	0	487	508	0	0	
4	0	0	0	0	487	508	0	0	
5	0	0	0	0	489	505	0	0	
6	0	0	0	0	487	508	0	0	
7	0	0	0	0	483	510	0	0	
8	0	0	0	0	480	511	0	0	
9	0	0	0	0	483	508	0	0	
10	0	0	0	0	467	508	0	0	
11	0	0	0	0	463	504	0	0	
12	0	0	0	0	467	504	0	0	
13	0	0	0	0	472	510	0	0	
14	0	0	0	0	480	510	0	0	
15	0	0	0	0	476	508	0	0	
0	0	0	0	0	472	508	0	0	
1	0	0	0	0	476	508	0	0	
2	0	0	0	0	480	510	0	0	
3	0	0	0	0	480	511	0	0	
4	0	0	0	0	480	511	0	0	
5	0	0	0	0	476	511	0	0	
6	0	0	0	0	470	510	0	0	
7	0	0	0	0	472	505	0	0	
8	0	0	0	0	476	504	0	0	
9	0	0	0	0	480	512	0	0	
10	0	0	0	0	480	513	0	0	
11	0	0	0	0	478	513	0	0	
12	0	0	0	0	476	511	0	0	
13	0	0	0	0	472	511	0	0	
14	0	0	0	0	467	505	0	0	
15	0	0	0	0	462	504	0	0	
0	0	0	0	0	463	508	0	0	
1	0	0	0	0	462	505	0	0	
2	0	0	0	0	455	508	0	0	
3	0	0	0	0	460	508	0	0	
4	0	0	0	0	467	510	0	0	
5	0	0	0	0	472	510	0	0	
6	0	0	0	0	480	510	0	0	
7	0	0	0	0	480	508	0	0	
8	0	0	0	0	480	511	0	0	
9	0	0	0	0	476	511	0	0	
10	0	0	0	0	480	511	0	0	
11	0	0	0	0	483	511	0	0	
12	0	0	0	0	483	512	0	0	
13	0	0	0	0	487	511	0	0	
14	0	0	0	0	481	511	0	0	
15	0	0	0	0	478	510	0	0	
0	0	0	0	0	478	508	0	0	
1	0	0	0	0	472	508	0	0	
2	0	0	0	0	463	510	0	0	
3	0	0	0	0	462	510	0	0	
4	0	0	0	0	462	508	0	0	
5	0	0	0	0	465	511	0	0	
6	0	0	0	0	467	511	0	0	
7	0	0	0	0	465	510	0	0	
8	0	0	0	0	472	510	0	0	
9	0	0	0	0	472	511	0	0	
10	0	0	0	0	476	512	0	0	
11	0	0	0	0	483	511	0	0	
12	0	0	0	0	483	512	0	0	
13	0	0	0	0	486	511	0	0	
14	0	0	0	0	483	510	0	0	
15	0	0	0	0	487	513	0	0	
0	0	0	0	0	483	512	0	0	
1	0	0	0	0	486	511	0	0	
2	0	0	0	0	481	512	0	0	
3	0	0	0	0	476	508	0	0	
4	0	0	0	0	476	510	0	0	
5	0	0	0	0	472	511	0	0	
6	0	0	0	0	472	510	0	0	
7	0	0	0	0	472	508	0	0	
8	0	0	0	0	472	510	0	0	
9	0	0	0	0	472	505	0	0	
10	0	0	0	0	472	508	0	0	
11	0	0	0	0	472	508	0	0	
12	0	0	0	0	473	511	0	0	
13	0	0	0	0	472	510	0	0	
14	0	0	0	0	476	511	0	0	
15	0	0	0	0	480	510	0	0	
0	0	0	0	0	487	508	0	0	
1	0	0	0	0	480	511	0	0	
2	0	0	0	0	480	508	0	0	
3	0	0	0	0	483	508	0	0	
4	0	0	0	0	480	508	0	0	
5	0	0	0	0	481	511	0	0	
6	0	0	0	0	483	510	0	0	
7	0	0	0	0	480	510	0	0	
8	0	0	0	0	472	508	0	0	
9	0	0	0	0	470	510	0	0	
10	0	0	0	0	467	508	0	0	
11	0	0	0	0	465	510	0	0	
12	0	0	0	0	463	511	0	0	
13	0	0	0	0	463	504	0	0	
14	0	0	0	0	463	504	0	0	
15	0	0	0	0	465	508	0	0	
0	0	0	0	0	478	508	0	0	
1	0	0	0	0	486	504	0	0	
2	0	0	0	0	483	508	0	0	
3	0	0	0	0	487	511	0	0	
4	0	0	0	0	487	513	0	0	
5	0	0	0	0	480	512	0	0	
6	0	0	0	0	472	515	0	0	
7	0	0	0	0	472	512	0	0	
8	0	0	0	0	463	511	0	0	
9	0	0	0	0	463	508	0	0	
10	0	0	0	0	472	510	0	0	
11	0	0	0	0	476	510	0	0	
12	0	0	0	0	480	510	0	0	
13	0	0	0	0	472	508	0	0	
14	0	0	0	0	465	508	0	0	
15	0	0	0	0	467	511	0	0	
0	0	0	0	0	476	510	0	0	
1	0	0	0	0	473	510	0	0	
2	0	0	0	0	467	508	0	0	
3	0	0	0	0	467	511	0	0	
4	0	0	0	0	472	511	0	0	
5	0	0	0	0	481	513	0	0	
6	0	0	0	0	480	512	0	0	
7	0	0	0	0	480	510	0	0	
8	0	0	0	0	480	508	0	0	
9	0	0	0	0	476	508	0	0	
10	0	0	0	0	480	513	0	0	
11	0	0	0	0	487	513	0	0	
12	0	0	0	0	483	513	0	0	
13	0	0	0	0	483	511	0	0	
14	0	0	0	0	483	511	0	0	
15	0	0	0	0	481	504	0	0	
0	0	0	0	0	476	502	0	0	
1	0	0	0	0	476	505	0	0	
2	0	0	0	0	476	508	0	0	
3	0	0	0	0	476	512	0	0	
4	0	0	0	0	472	508	0	0	
5	0	0	0	0	463	510	0	0	
6	0	0	0	0	463	508	0	0	
7	0	0	0	0	472	511	0	0	
8	0	0	0	0	476	508	0	0	
9	0	0	0	0	472	511	0	0	
10	0	0	0	0	487	513	0	0	
11	0	0	0	0	492	512	0	0	
12	0	0	0	0	487	511	0	0	
13	0	0	0	0	487	511	0	0	
14	0	0	0	0	483	510	0	0	
15	0	0	0	0	480	511	0	0	
0	0	0	0	0	480	511	0	0	
1	0	0	0	0	476	512	0	0	
2	0	0	0	0	480	510	0	0	
3	0	0	0	0	480	508	0	0	
4	0	0	0	0	476	508	0	0	
5	0	0	0	0	467	508	0	0	
6	0	0	0	0	467	505	0	0	
7	0	0	0	0	467	508	0	0	
8	0	0	0	0	467	508	0	0	
9	0	0	0	0	472	511	0	0	
10	0	0	0	0	472	511	0	0	
11	0	0	0	0	463	508	0	0	
12	0	0	0	0	455	508	0	0	
13	0	0	0	0	463	511	0	0	
14	0	0	0	0	472	510	0	0	
15	0	0	0	0	472	511	0	0	
0	0	0	0	0	480	511	0	0	
1	0	0	0	0	483	511	0	0	
2	0	0	0	0	480	510	0	0	
3	0	0	0	0	478	510	0	0	
4	0	0	0	0	476	508	0	0	
5	0	0	0	0	480	505	0	0	
6	0	0	0	0	480	508	0	0	
7	0	0	0	0	478	508	0	0	
8	0	0	0	0	476	508	0	0	
9	0	0	0	0	473	508	0	0	
10	0	0	0	0	472	510	0	0	
11	0	0	0	0	472	510	0	0	
12	0	0	0	0	472	510	0	0	
13	0	0	0	0	472	508	0	0	
14	0	0	0	0	463	511	0	0	
15	0	0	0	0	470	510	0	0	
0	0	0	0	0	473	513	0	0	
1	0	0	0	0	476	512	0	0	
2	0	0	0	0	470	511	0	0	
3	0	0	0	0	472	510	0	0	
4	0	0	0	0	473	508	0	0	
5	0	0	0	0	480	508	0	0	
6	0	0	0	0	481	512	0	0	
7	0	0	0	0	483	511	0	0	
8	0	0	0	0	480	510	0	0	
9	0	0	0	0	476	508	0	0	
10	0	0	0	0	480	505	0	0	
11	0	0	0	0	480	505	0	0	
12	0	0	0	0	476	508	0	0	
13	0	0	0	0	472	510	0	0	
14	0	0	0	0	472	508	0	0	
15	0	0	0	0	467	511	0	0	
0	0	0	0	0	463	511	0	0	
1	0	0	0	0	463	510	0	0	
2	0	0	0	0	467	511	0	0	
3	0	0	0	0	467	511	0	0	
4	0	0	0	0	467	510	0	0	
5	0	0	0	0	472	508	0	0	
6	0	0	0	0	476	508	0	0	
7	0	0	0	0	476	508	0	0	
8	0	0	0	0	476	508	0	0	
9	0	0	0	0	480	510	0	0	
10	0	0	0	0	481	511	0	0	
11	0	0	0	0	486	511	0	0	
12	0	0	0	0	487	510	0	0	
13	0	0	0	0	483	510	0	0	
14	0	0	0	0	486	510	0	0	
15	0	0	0	0	481	512	0	0	
0	0	0	0	0	476	512	0	0	
1	0	0	0	0	472	511	0	0	
2	0	0	0	0	465	511	0	0	
3	0	0	0	0	467	504	0	0	
4	0	0	0	0	463	508	0	0	
5	0	0	0	0	463	508	0	0	
6	0	0	0	0	463	510	0	0	
7	0	0	0	0	460	505	0	0	
8	0	0	0	0	463	508	0	0	
9	0	0	0	0	472	513	0	0	
10	0	0	0	0	480	512	0	0	
11	0	0	0	0	480	512	0	0	
12	0	0	0	0	483	511	0	0	
13	0	0	0	0	487	508	0	0	
14	0	0	0	0	492	510	0	0	
15	0	0	0	0	494	511	0	0	
0	0	0	0	0	492	510	0	0	
1	0	0	0	0	481	505	0	0	
2	0	0	0	0	472	508	0	0	
3	0	0	0	0	467	508	0	0	
4	0	0	0	0	463	508	0	0	
5	0	0	0	0	463	508	0	0	
6	0	0	0	0	463	508	0	0	
7	0	0	0	0	463	508	0	0	
8	0	0	0	0	472	508	0	0	
9	0	0	0	0	478	508	0	0	
10	0	0	0	0	476	510	0	0	
11	0	0	0	0	472	510	0	0	
12	0	0	0	0	472	512	0	0	
13	0	0	0	0	470	512	0	0	
14	0	0	0	0	476	511	0	0	
15	0	0	0	0	481	511	0	0	
0	0	0	0	0	480	511	0	0	
1	0	0	0	0	476	512	0	0	
2	0	0	0	0	472	511	0	0	
3	0	0	0	0	476	511	0	0	
4	0	0	0	0	480	511	0	0	
5	0	0	0	0	481	510	0	0	
6	0	0	0	0	480	511	0	0	
7	0	0	0	0	480	508	0	0	
8	0	0	0	0	480	511	0	0	
9	0	0	0	0	476	511	0	0	
10	0	0	0	0	476	510	0	0	
11	0	0	0	0	478	504	0	0	
12	0	0	0	0	467	511	0	0	
13	0	0	0	0	455	508	0	0	
14	0	0	0	0	463	505	0	0	
15	0	0	0	0	463	510	0	0	
0	0	0	0	0	472	508	0	0	
1	0	0	0	0	472	510	0	0	
2	0	0	0	0	478	510	0	0	
3	0	0	0	0	480	511	0	0	
4	0	0	0	0	481	511	0	0	
5	0	0	0	0	483	511	0	0	
6	0	0	0	0	483	512	0	0	
7	0	0	0	0	481	510	0	0	
8	0	0	0	0	487	511	0	0	
9	0	0	0	0	489	508	0	0	
10	0	0	0	0	486	510	0	0	
11	0	0	0	0	483	508	0	0	
12	0	0	0	0	480	505	0	0	
13	0	0	0	0	472	508	0	0	
14	0	0	0	0	467	508	0	0	
15	0	0	0	0	462	505	0	0	
0	0	0	0	0	460	508	0	0	
1	0	0	0	0	463	510	0	0	
2	0	0	0	0	463	511	0	0	
3	0	0	0	0	463	510	0	0	
4	0	0	0	0	455	511	0	0	
5	0	0	0	0	462	508	0	0	
6	0	0	0	0	472	510	0	0	
7	0	0	0	0	480	511	0	0	
8	0	0	0	0	483	511	0	0	
9	0	0	0	0	480	512	0	0	
10	0	0	0	0	481	511	0	0	
11	0	0	0	0	483	511	0	0	
12	0	0	0	0	483	508	0	0	
13	0	0	0	0	480	512	0	0	
14	0	0	0	0	480	510	0	0	
15	0	0	0	0	480	508	0	0	
0	0	0	0	0	476	508	0	0	
1	0	0	0	0	472	508	0	0	
2	0	0	0	0	467	504	0	0	
3	0	0	0	0	463	508	0	0	
4	0	0	0	0	460	504	0	0	
5	0	0	0	0	462	504	0	0	
6	0	0	0	0	463	505	0	0	
7	0	0	0	0	467	508	0	0	
8	0	0	0	0	470	510	0	0	
9	0	0	0	0	472	510	0	0	
10	0	0	0	0	476	512	0	0	
11	0	0	0	0	480	510	0	0	
12	0	0	0	0	481	515	0	0	
13	0	0	0	0	487	511	0	0	
14	0	0	0	0	496	511	0	0	
15	0	0	0	0	492	511	0	0	
0	0	0	0	0	492	511	0	0	
1	0	0	0	0	496	511	0	0	
2	0	0	0	0	492	511	0	0	
3	0	0	0	0	486	510	0	0	
4	0	0	0	0	486	508	0	0	
5	0	0	0	0	483	511	0	0	
6	0	0	0	0	478	510	0	0	
7	0	0	0	0	472	504	0	0	
8	0	0	0	0	465	508	0	0	
9	0	0	0	0	467	508	0	0	
10	0	0	0	0	463	510	0	0	
11	0	0	0	0	460	510	0	0	
12	0	0	0	0	472	508	0	0	
13	0	0	0	0	465	505	0	0	
14	0	0	0	0	472	508	0	0	
15	0	0	0	0	478	511	0	0	
0	0	0	0	0	481	511	0	0	
1	0	0	0	0	480	510	0	0	
2	0	0	0	0	481	510	0	0	
3	0	0	0	0	481	512	0	0	
4	0	0	0	0	476	513	0	0	
5	0	0	0	0	472	511	0	0	
6	0	0	0	0	463	510	0	0	
7	0	0	0	0	460	510	0	0	
8	0	0	0	0	460	510	0	0	
9	0	0	0	0	462	508	0	0	
10	0	0	0	0	465	508	0	0	
11	0	0	0	0	463	508	0	0	
12	0	0	0	0	472	510	0	0	
13	0	0	0	0	472	510	0	0	
14	0	0	0	0	463	508	0	0	
15	0	0	0	0	465	508	0	0	
0	0	0	0	0	472	508	0	0	
1	0	0	0	0	476	510	0	0	
2	0	0	0	0	480	511	0	0	
3	0	0	0	0	483	512	0	0	
4	0	0	0	0	483	512	0	0	
5	0	0	0	0	481	511	0	0	
6	0	0	0	0	480	511	0	0	
7	0	0	0	0	487	510	0	0	
8	0	0	0	0	487	508	0	0	
9	0	0	0	0	486	510	0	0	
10	0	0	0	0	487	511	0	0	
11	0	0	0	0	487	508	0	0	
12	0	0	0	0	480	505	0	0	
13	0	0	0	0	473	510	0	0	
14	0	0	0	0	476	510	0	0	
15	0	0	0	0	473	508	0	0	
0	0	0	0	0	472	504	0	0	
1	0	0	0	0	467	508	0	0	
2	0	0	0	0	460	511	0	0	
3	0	0	0	0	455	510	0	0	
4	0	0	0	0	467	512	0	0	
5	0	0	0	0	467	511	0	0	
6	0	0	0	0	472	511	0	0	
7	0	0	0	0	476	511	0	0	
8	0	0	0	0	480	511	0	0	
9	0	0	0	0	480	511	0	0	
10	0	0	0	0	483	511	0	0	
11	0	0	0	0	483	510	0	0	
12	0	0	0	0	487	508	0	0	
13	0	0	0	0	487	510	0	0	
14	0	0	0	0	480	508	0	0	
15	0	0	0	0	480	508	0	0	
0	0	0	0	0	480	508	0	0	
1	0	0	0	0	472	511	0	0	
2	0	0	0	0	472	510	0	0	
3	0	0	0	0	472	511	0	0	
4	0	0	0	0	463	510	0	0	
5	0	0	0	0	463	510	0	0	
6	0	0	0	0	463	510	0	0	
7	0	0	0	0	467	511	0	0	
8	0	0	0	0	472	511	0	0	
9	0	0	0	0	476	511	0	0	
10	0	0	0	0	480	508	0	0	
11	0	0	0	0	483	511	0	0	
12	0	0	0	0	480	508	0	0	
13	0	0	0	0	480	511	0	0	
14	0	0	0	0	483	511	0	0	
15	0	0	0	0	487	510	0	0	
0	0	0	0	0	487	510	0	0	
1	0	0	0	0	487	508	0	0	
2	0	0	0	0	483	508	0	0	
3	0	0	0	0	487	508	0	0	
4	0	0	0	0	486	505	0	0	
5	0	0	0	0	480	508	0	0	
6	0	0	0	0	476	508	0	0	
7	0	0	0	0	472	515	0	0	
8	0	0	0	0	467	511	0	0	
9	0	0	0	0	472	508	0	0	
10	0	0	0	0	478	510	0	0	
11	0	0	0	0	480	510	0	0	
12	0	0	0	0	472	510	0	0	
13	0	0	0	0	467	510	0	0	
14	0	0	0	0	472	508	0	0	
15	0	0	0	0	478	508	0	0	
0	0	0	0	0	478	508	0	0	
1	0	0	0	0	480	510	0	0	
2	0	0	0	0	480	511	0	0	
3	0	0	0	0	480	510	0	0	
4	0	0	0	0	483	511	0	0	
5	0	0	0	0	480	510	0	0	
6	0	0	0	0	478	511	0	0	
7	0	0	0	0	476	511	0	0	
8	0	0	0	0	476	512	0	0	
9	0	0	0	0	472	511	0	0	
10	0	0	0	0	472	508	0	0	
11	0	0	0	0	472	508	0	0	
12	0	0	0	0	467	510	0	0	
13	0	0	0	0	462	508	0	0	
14	0	0	0	0	455	508	0	0	
15	0	0	0	0	455	511	0	0	
0	0	0	0	0	455	510	0	0	
1	0	0	0	0	460	511	0	0	
2	0	0	0	0	472	511	0	0	
3	0	0	0	0	480	510	0	0	
4	0	0	0	0	480	511	0	0	
5	0	0	0	0	483	512	0	0	
6	0	0	0	0	481	512	0	0	
7	0	0	0	0	481	511	0	0	
8	0	0	0	0	481	512	0	0	
9	0	0	0	0	483	510	0	0	
10	0	0	0	0	483	505	0	0	
11	0	0	0	0	480	505	0	0	
12	0	0	0	0	478	508	0	0	
13	0	0	0	0	480	508	0	0	
14	0	0	0	0	483	508	0	0	
15	0	0	0	0	472	511	0	0	
0	0	0	0	0	472	511	0	0	
1	0	0	0	0	472	508	0	0	
2	0	0	0	0	462	511	0	0	
3	0	0	0	0	467	510	0	0	
4	0	0	0	0	472	512	0	0	
5	0	0	0	0	472	510	0	0	
6	0	0	0	0	476	510	0	0	
7	0	0	0	0	478	510	0	0	
8	0	0	0	0	472	512	0	0	
9	0	0	0	0	472	511	0	0	
10	0	0	0	0	480	512	0	0	
11	0	0	0	0	481	508	0	0	
12	0	0	0	0	481	510	0	0	
13	0	0	0	0	481	508	0	0	
14	0	0	0	0	481	508	0	0	
15	0	0	0	0	480	504	0	0	
0	0	0	0	0	480	510	0	0	
1	0	0	0	0	478	508	0	0	
2	0	0	0	0	472	505	0	0	
3	0	0	0	0	463	504	0	0	
4	0	0	0	0	463	510	0	0	
5	0	0	0	0	467	510	0	0	
6	0	0	0	0	463	508	0	0	
7	0	0	0	0	460	510	0	0	
8	0	0	0	0	454	512	0	0	
9	0	0	0	0	455	512	0	0	
10	0	0	0	0	460	512	0	0	
11	0	0	0	0	463	511	0	0	
12	0	0	0	0	472	515	0	0	
13	0	0	0	0	476	510	0	0	
14	0	0	0	0	480	510	0	0	
15	0	0	0	0	483	511	0	0	
0	0	0	0	0	483	512	0	0	
1	0	0	0	0	483	508	0	0	
2	0	0	0	0	483	510	0	0	
3	0	0	0	0	483	511	0	0	
4	0	0	0	0	480	510	0	0	
5	0	0	0	0	476	510	0	0	
6	0	0	0	0	476	511	0	0	
7	0	0	0	0	472	511	0	0	
8	0	0	0	0	472	511	0	0	
9	0	0	0	0	472	510	0	0	
10	0	0	0	0	472	510	0	0	
11	0	0	0	0	473	504	0	0	
12	0	0	0	0	472	508	0	0	
13	0	0	0	0	465	504	0	0	
14	0	0	0	0	472	508	0	0	
15	0	0	0	0	480	511	0	0	
0	0	0	0	0	481	512	0	0	
1	0	0	0	0	487	511	0	0	
2	0	0	0	0	487	510	0	0	
3	0	0	0	0	487	512	0	0	
4	0	0	0	0	487	511	0	0	
5	0	0	0	0	480	511	0	0	
6	0	0	0	0	480	511	0	0	
7	0	0	0	0	480	510	0	0	
8	0	0	0	0	480	510	0	0	
9	0	0	0	0	473	508	0	0	
10	0	0	0	0	467	510	0	0	
11	0	0	0	0	462	508	0	0	
12	0	0	0	0	462	508	0	0	
13	0	0	0	0	472	510	0	0	
14	0	0	0	0	472	511	0	0	
15	0	0	0	0	472	508	0	0	
0	0	0	0	0	472	510	0	0	
1	0	0	0	0	473	512	0	0	
2	0	0	0	0	480	513	0	0	
3	0	0	0	0	480	513	0	0	
4	0	0	0	0	476	512	0	0	
5	0	0	0	0	480	512	0	0	
6	0	0	0	0	483	512	0	0	
7	0	0	0	0	480	511	0	0	
8	0	0	0	0	483	508	0	0	
9	0	0	0	0	483	508	0	0	
10	0	0	0	0	481	511	0	0	
11	0	0	0	0	480	511	0	0	
12	0	0	0	0	476	508	0	0	
13	0	0	0	0	472	511	0	0	
14	0	0	0	0	472	508	0	0	
15	0	0	0	0	467	504	0	0	
0	0	0	0	0	472	508	0	0	
1	0	0	0	0	472	508	0	0	
2	0	0	0	0	463	508	0	0	
3	0	0	0	0	455	508	0	0	
4	0	0	0	0	460	505	0	0	
5	0	0	0	0	472	510	0	0	
6	0	0	0	0	472	512	0	0	
7	0	0	0	0	472	511	0	0	
8	0	0	0	0	473	510	0	0	
9	0	0	0	0	480	511	0	0	
10	0	0	0	0	480	510	0	0	
11	0	0	0	0	480	508	0	0	
12	0	0	0	0	480	510	0	0	
13	0	0	0	0	483	511	0	0	
14	0	0	0	0	487	508	0	0	
15	0	0	0	0	483	508	0	0	
0	0	0	0	0	478	508	0	0	
1	0	0	0	0	476	508	0	0	
2	0	0	0	0	472	508	0	0	
3	0	0	0	0	463	508	0	0	
4	0	0	0	0	465	508	0	0	
5	0	0	0	0	467	508	0	0	
6	0	0	0	0	465	510	0	0	
7	0	0	0	0	467	510	0	0	
8	0	0	0	0	472	511	0	0	
9	0	0	0	0	467	511	0	0	
10	0	0	0	0	462	508	0	0	
11	0	0	0	0	467	511	0	0	
12	0	0	0	0	481	512	0	0	
13	0	0	0	0	496	511	0	0	
14	0	0	0	0	487	510	0	0	
15	0	0	0	0	481	512	0	0	
0	0	0	0	0	486	512	0	0	
1	0	0	0	0	483	508	0	0	
2	0	0	0	0	480	510	0	0	
3	0	0	0	0	478	510	0	0	
4	0	0	0	0	478	508	0	0	
5	0	0	0	0	472	508	0	0	
6	0	0	0	0	472	505	0	0	
7	0	0	0	0	472	508	0	0	
8	0	0	0	0	472	508	0	0	
9	0	0	0	0	472	505	0	0	
10	0	0	0	0	467	510	0	0	
11	0	0	0	0	462	510	0	0	
12	0	0	0	0	465	512	0	0	
13	0	0	0	0	472	512	0	0	
14	0	0	0	0	480	511	0	0	
15	0	0	0	0	476	508	0	0	
0	0	0	0	0	476	510	0	0	
1	0	0	0	0	480	508	0	0	
2	0	0	0	0	483	511	0	0	
3	0	0	0	0	483	511	0	0	
4	0	0	0	0	487	513	0	0	
5	0	0	0	0	492	515	0	0	
6	0	0	0	0	487	512	0	0	
7	0	0	0	0	480	511	0	0	
8	0	0	0	0	476	510	0	0	
9	0	0	0	0	472	505	0	0	
10	0	0	0	0	472	511	0	0	
11	0	0	0	0	472	508	0	0	
12	0	0	0	0	467	504	0	0	
13	0	0	0	0	465	504	0	0	
14	0	0	0	0	462	510	0	0	
15	0	0	0	0	463	512	0	0	
0	0	0	0	0	467	508	0	0	
1	0	0	0	0	472	505	0	0	
2	0	0	0	0	476	510	0	0	
3	0	0	0	0	480	511	0	0	
4	0	0	0	0	480	511	0	0	
5	0	0	0	0	480	510	0	0	
6	0	0	0	0	480	508	0	0	
7	0	0	0	0	480	508	0	0	
8	0	0	0	0	483	508	0	0	
9	0	0	0	0	483	511	0	0	
10	0	0	0	0	480	511	0	0	
11	0	0	0	0	480	512	0	0	
12	0	0	0	0	480	508	0	0	
13	0	0	0	0	476	508	0	0	
14	0	0	0	0	476	510	0	0	
15	0	0	0	0	478	508	0	0	
0	0	0	0	0	476	508	0	0	
1	0	0	0	0	476	510	0	0	
2	0	0	0	0	472	511	0	0	
3	0	0	0	0	472	511	0	0	
4	0	0	0	0	465	508	0	0	
5	0	0	0	0	467	508	0	0	
6	0	0	0	0	467	508	0	0	
7	0	0	0	0	467	511	0	0	
8	0	0	0	0	472	510	0	0	
9	0	0	0	0	480	508	0	0	
10	0	0	0	0	481	511	0	0	
11	0	0	0	0	481	510	0	0	
12	0	0	0	0	487	508	0	0	
13	0	0	0	0	481	511	0	0	
14	0	0	0	0	480	508	0	0	
15	0	0	0	0	480	511	0	0	
0	0	0	0	0	478	511	0	0	
1	0	0	0	0	465	511	0	0	
2	0	0	0	0	463	508	0	0	
3	0	0	0	0	463	508	0	0	
4	0	0	0	0	463	511	0	0	
5	0	0	0	0	467	511	0	0	
6	0	0	0	0	472	513	0	0	
7	0	0	0	0	472	512	0	0	
8	0	0	0	0	467	511	0	0	
9	0	0	0	0	455	510	0	0	
10	0	0	0	0	460	510	0	0	
11	0	0	0	0	463	511	0	0	
12	0	0	0	0	476	511	0	0	
13	0	0	0	0	480	510	0	0	
14	0	0	0	0	480	511	0	0	
15	0	0	0	0	483	511	0	0	
0	0	0	0	0	483	511	0	0	
1	0	0	0	0	483	511	0	0	
2	0	0	0	0	480	510	0	0	
3	0	0	0	0	480	510	0	0	
4	0	0	0	0	476	511	0	0	
5	0	0	0	0	472	508	0	0	
6	0	0	0	0	472	508	0	0	
7	0	0	0	0	467	510	0	0	
8	0	0	0	0	472	510	0	0	
9	0	0	0	0	472	508	0	0	
10	0	0	0	0	472	508	0	0	
11	0	0	0	0	472	510	0	0	
12	0	0	0	0	472	510	0	0	
13	0	0	0	0	467	511	0	0	
14	0	0	0	0	480	510	0	0	
15	0	0	0	0	480	515	0	0	
0	0	0	0	0	483	511	0	0	
1	0	0	0	0	481	512	0	0	
2	0	0	0	0	483	511	0	0	
3	0	0	0	0	487	510	0	0	
4	0	0	0	0	487	508	0	0	
5	0	0	0	0	487	508	0	0	
6	0	0	0	0	487	504	0	0	
7	0	0	0	0	483	508	0	0	
8	0	0	0	0	480	508	0	0	
9	0	0	0	0	480	508	0	0	
10	0	0	0	0	476	505	0	0	
11	0	0	0	0	472	504	0	0	
12	0	0	0	0	472	505	0	0	
13	0	0	0	0	463	505	0	0	
14	0	0	0	0	460	512	0	0	
15	0	0	0	0	460	512	0	0	
0	0	0	0	0	462	515	0	0	
1	0	0	0	0	467	511	0	0	
2	0	0	0	0	478	505	0	0	
3	0	0	0	0	480	512	0	0	
4	0	0	0	0	478	513	0	0	
5	0	0	0	0	478	510	0	0	
6	0	0	0	0	480	505	0	0	
7	0	0	0	0	481	511	0	0	
8	0	0	0	0	481	508	0	0	
9	0	0	0	0	481	511	0	0	
10	0	0	0	0	483	504	0	0	
11	0	0	0	0	481	504	0	0	
12	0	0	0	0	483	508	0	0	
13	0	0	0	0	480	508	0	0	
14	0	0	0	0	472	511	0	0	
15	0	0	0	0	473	508	0	0	
0	0	0	0	0	472	508	0	0	
1	0	0	0	0	463	508	0	0	
2	0	0	0	0	463	510	0	0	
3	0	0	0	0	463	512	0	0	
4	0	0	0	0	467	510	0	0	
5	0	0	0	0	472	510	0	0	
6	0	0	0	0	476	510	0	0	
7	0	0	0	0	480	511	0	0	
8	0	0	0	0	480	511	0	0	
9	0	0	0	0	480	511	0	0	
10	0	0	0	0	480	510	0	0	
11	0	0	0	0	480	508	0	0	
12	0	0	0	0	480	511	0	0	
13	0	0	0	0	480	512	0	0	
14	0	0	0	0	480	508	0	0	
15	0	0	0	0	480	508	0	0	
0	0	0	0	0	472	505	0	0	
1	0	0	0	0	463	508	0	0	
2	0	0	0	0	472	508	0	0	
3	0	0	0	0	480	504	0	0	
4	0	0	0	0	480	504	0	0	
5	0	0	0	0	476	508	0	0	
6	0	0	0	0	472	510	0	0	
7	0	0	0	0	472	511	0	0	
8	0	0	0	0	472	512	0	0	
9	0	0	0	0	472	511	0	0	
10	0	0	0	0	472	510	0	0	
11	0	0	0	0	472	512	0	0	
12	0	0	0	0	467	515	0	0	
13	0	0	0	0	476	511	0	0	
14	0	0	0	0	480	511	0	0	
15	0	0	0	0	472	511	0	0	
0	0	0	0	0	472	508	0	0	
1	0	0	0	0	480	508	0	0	
2	0	0	0	0	480	508	0	0	
3	0	0	0	0	480	508	0	0	
4	0	0	0	0	478	504	0	0	
5	0	0	0	0	476	505	0	0	
6	0	0	0	0	472	508	0	0	
7	0	0	0	0	465	508	0	0	
8	0	0	0	0	460	508	0	0	
9	0	0	0	0	455	508	0	0	
10	0	0	0	0	460	510	0	0	
11	0	0	0	0	460	508	0	0	
12	0	0	0	0	470	512	0	0	
13	0	0	0	0	472	511	0	0	
14	0	0	0	0	467	512	0	0	
15	0	0	0	0	472	511	0	0	
0	0	0	0	0	480	508	0	0	
1	0	0	0	0	480	512	0	0	
2	0	0	0	0	487	511	0	0	
3	0	0	0	0	494	510	0	0	
4	0	0	0	0	492	511	0	0	
5	0	0	0	0	487	510	0	0	
6	0	0	0	0	487	512	0	0	
7	0	0	0	0	480	510	0	0	
8	0	0	0	0	476	511	0	0	
9	0	0	0	0	467	512	0	0	
10	0	0	0	0	467	508	0	0	
11	0	0	0	0	472	513	0	0	
12	0	0	0	0	463	511	0	0	
13	0	0	0	0	467	510	0	0	
14	0	0	0	0	465	511	0	0	
15	0	0	0	0	467	508	0	0	
0	0	0	0	0	467	511	0	0	
1	0	0	0	0	472	510	0	0	
2	0	0	0	0	480	510	0	0	
3	0	0	0	0	480	508	0	0	
4	0	0	0	0	487	511	0	0	
5	0	0	0	0	487	508	0	0	
6	0	0	0	0	489	510	0	0	
7	0	0	0	0	494	508	0	0	
8	0	0	0	0	492	508	0	0	
9	0	0	0	0	483	508	0	0	
10	0	0	0	0	483	512	0	0	
11	0	0	0	0	481	513	0	0	
12	0	0	0	0	476	510	0	0	
13	0	0	0	0	463	510	0	0	
14	0	0	0	0	463	504	0	0	
15	0	0	0	0	463	508	0	0	
0	0	0	0	0	465	510	0	0	
1	0	0	0	0	472	510	0	0	
2	0	0	0	0	472	510	0	0	
3	0	0	0	0	480	511	0	0	
4	0	0	0	0	473	511	0	0	
5	0	0	0	0	472	510	0	0	
6	0	0	0	0	467	510	0	0	
7	0	0	0	0	472	510	0	0	
8	0	0	0	0	473	510	0	0	
9	0	0	0	0	478	510	0	0	
10	0	0	0	0	480	511	0	0	
11	0	0	0	0	480	510	0	0	
12	0	0	0	0	480	510	0	0	
13	0	0	0	0	483	513	0	0	
14	0	0	0	0	486	511	0	0	
15	0	0	0	0	480	508	0	0	
0	0	0	0	0	472	508	0	0	
1	0	0	0	0	465	508	0	0	
2	0	0	0	0	467	508	0	0	
3	0	0	0	0	463	511	0	0	
4	0	0	0	0	463	510	0	0	
5	0	0	0	0	463	508	0	0	
6	0	0	0	0	463	508	0	0	
7	0	0	0	0	463	511	0	0	
8	0	0	0	0	472	511	0	0	
9	0	0	0	0	480	510	0	0	
10	0	0	0	0	478	511	0	0	
11	0	0	0	0	481	511	0	0	
12	0	0	0	0	483	508	0	0	
13	0	0	0	0	483	511	0	0	
14	0	0	0	0	487	511	0	0	
15	0	0	0	0	487	510	0	0	
0	0	0	0	0	494	510	0	0	
1	0	0	0	0	489	510	0	0	
2	0	0	0	0	481	511	0	0	
3	0	0	0	0	480	508	0	0	
4	0	0	0	0	472	508	0	0	
5	0	0	0	0	463	508	0	0	
6	0	0	0	0	463	508	0	0	
7	0	0	0	0	467	508	0	0	
8	0	0	0	0	465	511	0	0	
9	0	0	0	0	462	508	0	0	
10	0	0	0	0	460	510	0	0	
11	0	0	0	0	460	510	0	0	
12	0	0	0	0	462	510	0	0	
13	0	0	0	0	465	508	0	0	
14	0	0	0	0	480	508	0	0	
15	0	0	0	0	483	510	0	0	
0	0	0	0	0	487	511	0	0	
1	0	0	0	0	487	511	0	0	
2	0	0	0	0	487	510	0	0	
3	0	0	0	0	492	505	0	0	
4	0	0	0	0	492	508	0	0	
5	0	0	0	0	483	505	0	0	
6	0	0	0	0	480	508	0	0	
7	0	0	0	0	480	508	0	0	
8	0	0	0	0	476	508	0	0	
9	0	0	0	0	463	510	0	0	
10	0	0	0	0	465	513	0	0	
11	0	0	0	0	472	511	0	0	
12	0	0	0	0	463	510	0	0	
13	0	0	0	0	454	505	0	0	
14	0	0	0	0	455	508	0	0	
15	0	0	0	0	463	510	0	0	
0	0	0	0	0	465	510	0	0	
1	0	0	0	0	472	510	0	0	
2	0	0	0	0	472	511	0	0	
3	0	0	0	0	483	511	0	0	
4	0	0	0	0	492	515	0	0	
5	0	0	0	0	494	511	0	0	
6	0	0	0	0	494	510	0	0	
7	0	0	0	0	496	512	0	0	
8	0	0	0	0	496	512	0	0	
9	0	0	0	0	496	511	0	0	
10	0	0	0	0	492	511	0	0	
11	0	0	0	0	472	511	0	0	
12	0	0	0	0	462	508	0	0	
13	0	0	0	0	460	508	0	0	
14	0	0	0	0	463	504	0	0	
15	0	0	0	0	465	508	0	0	
0	0	0	0	0	460	508	0	0	
1	0	0	0	0	462	508	0	0	
2	0	0	0	0	463	508	0	0	
3	0	0	0	0	465	508	0	0	
4	0	0	0	0	467	511	0	0	
5	0	0	0	0	465	508	0	0	
6	0	0	0	0	472	511	0	0	
7	0	0	0	0	476	511	0	0	
8	0	0	0	0	480	508	0	0	
9	0	0	0	0	483	511	0	0	
10	0	0	0	0	487	513	0	0	
11	0	0	0	0	487	512	0	0	
12	0	0	0	0	480	510	0	0	
13	0	0	0	0	480	508	0	0	
14	0	0	0	0	476	510	0	0	
15	0	0	0	0	476	510	0	0	
0	0	0	0	0	472	508	0	0	
1	0	0	0	0	472	504	0	0	
2	0	0	0	0	472	504	0	0	
3	0	0	0	0	476	505	0	0	
4	0	0	0	0	476	510	0	0	
5	0	0	0	0	472	510	0	0	
6	0	0	0	0	467	511	0	0	
7	0	0	0	0	467	508	0	0	
8	0	0	0	0	463	511	0	0	
9	0	0	0	0	463	511	0	0	
10	0	0	0	0	467	511	0	0	
11	0	0	0	0	476	510	0	0	
12	0	0	0	0	480	511	0	0	
13	0	0	0	0	487	511	0	0	
14	0	0	0	0	494	510	0	0	
15	0	0	0	0	494	508	0	0	
0	0	0	0	0	492	510	0	0	
1	0	0	0	0	492	508	0	0	
2	0	0	0	0	481	512	0	0	
3	0	0	0	0	480	515	0	0	
4	0	0	0	0	473	512	0	0	
5	0	0	0	0	472	510	0	0	
6	0	0	0	0	462	508	0	0	
7	0	0	0	0	455	508	0	0	
8	0	0	0	0	463	508	0	0	
9	0	0	0	0	472	508	0	0	
10	0	0	0	0	467	510	0	0	
11	0	0	0	0	463	510	0	0	
12	0	0	0	0	472	508	0	0	
13	0	0	0	0	476	504	0	0	
14	0	0	0	0	481	508	0	0	
15	0	0	0	0	481	511	0	0	
0	0	0	0	0	476	512	0	0	
1	0	0	0	0	481	512	0	0	
2	0	0	0	0	480	512	0	0	
3	0	0	0	0	480	512	0	0	
4	0	0	0	0	478	513	0	0	
5	0	0	0	0	472	510	0	0	
6	0	0	0	0	463	508	0	0	
7	0	0	0	0	463	508	0	0	
8	0	0	0	0	467	505	0	0	
9	0	0	0	0	472	508	0	0	
10	0	0	0	0	472	508	0	0	
11	0	0	0	0	467	508	0	0	
12	0	0	0	0	465	508	0	0	
13	0	0	0	0	463	508	0	0	
14	0	0	0	0	467	511	0	0	
15	0	0	0	0	463	510	0	0	
0	0	0	0	0	463	510	0	0	
1	0	0	0	0	472	511	0	0	
2	0	0	0	0	480	510	0	0	
3	0	0	0	0	481	511	0	0	
4	0	0	0	0	480	511	0	0	
5	0	0	0	0	481	508	0	0	
6	0	0	0	0	480	510	0	0	
7	0	0	0	0	481	505	0	0	
8	0	0	0	0	492	511	0	0	
9	0	0	0	0	487	511	0	0	
10	0	0	0	0	486	508	0	0	
11	0	0	0	0	480	504	0	0	
12	0	0	0	0	476	508	0	0	
13	0	0	0	0	472	508	0	0	
14	0	0	0	0	467	512	0	0	
15	0	0	0	0	470	512	0	0	
0	0	0	0	0	463	510	0	0	
1	0	0	0	0	467	510	0	0	
2	0	0	0	0	472	508	0	0	
3	0	0	0	0	472	511	0	0	
4	0	0	0	0	476	511	0	0	
5	0	0	0	0	480	511	0	0	
6	0	0	0	0	480	511	0	0	
7	0	0	0	0	483	511	0	0	
8	0	0	0	0	481	513	0	0	
9	0	0	0	0	489	512	0	0	
10	0	0	0	0	487	512	0	0	
11	0	0	0	0	480	513	0	0	
12	0	0	0	0	483	510	0	0	
13	0	0	0	0	481	511	0	0	
14	0	0	0	0	476	508	0	0	
15	0	0	0	0	472	511	0	0	
0	0	0	0	0	472	511	0	0	
1	0	0	0	0	472	505	0	0	
2	0	0	0	0	463	508	0	0	
3	0	0	0	0	463	504	0	0	
4	0	0	0	0	463	504	0	0	
5	0	0	0	0	463	508	0	0	
6	0	0	0	0	467	508	0	0	
7	0	0	0	0	472	510	0	0	
8	0	0	0	0	476	508	0	0	
9	0	0	0	0	480	508	0	0	
10	0	0	0	0	481	508	0	0	
11	0	0	0	0	483	511	0	0	
12	0	0	0	0	481	511	0	0	
13	0	0	0	0	476	511	0	0	
14	0	0	0	0	463	510	0	0	
15	0	0	0	0	462	508	0	0	
0	0	0	0	0	472	508	0	0	
1	0	0	0	0	480	510	0	0	
2	0	0	0	0	480	508	0	0	
3	0	0	0	0	480	508	0	0	
4	0	0	0	0	476	505	0	0	
5	0	0	0	0	463	505	0	0	
6	0	0	0	0	463	510	0	0	
7	0	0	0	0	462	508	0	0	
8	0	0	0	0	462	508	0	0	
9	0	0	0	0	463	508	0	0	
10	0	0	0	0	463	508	0	0	
11	0	0	0	0	472	508	0	0	
12	0	0	0	0	480	511	0	0	
13	0	0	0	0	480	511	0	0	
14	0	0	0	0	481	511	0	0	
15	0	0	0	0	483	512	0	0	
0	0	0	0	0	487	512	0	0	
1	0	0	0	0	483	513	0	0	
2	0	0	0	0	487	508	0	0	
3	0	0	0	0	486	511	0	0	
4	0	0	0	0	481	508	0	0	
5	0	0	0	0	486	508	0	0	
6	0	0	0	0	483	508	0	0	
7	0	0	0	0	480	510	0	0	
8	0	0	0	0	480	510	0	0	
9	0	0	0	0	480	508	0	0	
10	0	0	0	0	478	508	0	0	
11	0	0	0	0	472	508	0	0	
12	0	0	0	0	473	505	0	0	
13	0	0	0	0	478	510	0	0	
14	0	0	0	0	480	510	0	0	
15	0	0	0	0	476	512	0	0	
0	0	0	0	0	483	511	0	0	
1	0	0	0	0	486	512	0	0	
2	0	0	0	0	483	511	0	0	
3	0	0	0	0	480	510	0	0	
4	0	0	0	0	467	508	0	0	
5	0	0	0	0	467	512	0	0	
6	0	0	0	0	472	511	0	0	
7	0	0	0	0	472	513	0	0	
8	0	0	0	0	480	510	0	0	
9	0	0	0	0	483	510	0	0	
10	0	0	0	0	481	508	0	0	
11	0	0	0	0	480	504	0	0	
12	0	0	0	0	473	504	0	0	
13	0	0	0	0	467	511	0	0	
14	0	0	0	0	463	513	0	0	
15	0	0	0	0	470	518	0	0	
0	0	0	0	0	476	510	0	0	
1	0	0	0	0	472	504	0	0	
2	0	0	0	0	472	504	0	0	
3	0	0	0	0	473	504	0	0	
4	0	0	0	0	476	511	0	0	
5	0	0	0	0	480	515	0	0	
6	0	0	0	0	483	513	0	0	
7	0	0	0	0	480	511	0	0	
8	0	0	0	0	472	505	0	0	
9	0	0	0	0	473	510	0	0	
10	0	0	0	0	480	508	0	0	
11	0	0	0	0	476	510	0	0	
12	0	0	0	0	480	510	0	0	
13	0	0	0	0	481	510	0	0	
14	0	0	0	0	472	510	0	0	
15	0	0	0	0	472	504	0	0	
0	0	0	0	0	467	504	0	0	
1	0	0	0	0	467	504	0	0	
2	0	0	0	0	467	508	0	0	
3	0	0	0	0	465	508	0	0	
4	0	0	0	0	467	512	0	0	
5	0	0	0	0	463	510	0	0	
6	0	0	0	0	463	511	0	0	
7	0	0	0	0	472	510	0	0	
8	0	0	0	0	472	511	0	0	
9	0	0	0	0	472	511	0	0	
10	0	0	0	0	478	510	0	0	
11	0	0	0	0	481	510	0	0	
12	0	0	0	0	487	508	0	0	
13	0	0	0	0	487	510	0	0	
14	0	0	0	0	483	511	0	0	
15	0	0	0	0	481	511	0	0	
0	0	0	0	0	480	511	0	0	
1	0	0	0	0	480	508	0	0	
2	0	0	0	0	478	510	0	0	
3	0	0	0	0	472	510	0	0	
4	0	0	0	0	467	510	0	0	
5	0	0	0	0	467	508	0	0	
6	0	0	0	0	472	508	0	0	
7	0	0	0	0	472	511	0	0	
8	0	0	0	0	467	510	0	0	
9	0	0	0	0	472	510	0	0	
10	0	0	0	0	472	508	0	0	
11	0	0	0	0	472	508	0	0	
12	0	0	0	0	476	510	0	0	
13	0	0	0	0	476	510	0	0	
14	0	0	0	0	480	511	0	0	
15	0	0	0	0	480	511	0	0	
0	0	0	0	0	480	510	0	0	
1	0	0	0	0	481	510	0	0	
2	0	0	0	0	480	510	0	0	
3	0	0	0	0	476	508	0	0	
4	0	0	0	0	472	508	0	0	
5	0	0	0	0	473	511	0	0	
6	0	0	0	0	472	510	0	0	
7	0	0	0	0	465	511	0	0	
8	0	0	0	0	463	508	0	0	
9	0	0	0	0	463	508	0	0	
10	0	0	0	0	460	505	0	0	
11	0	0	0	0	463	508	0	0	
12	0	0	0	0	472	508	0	0	
13	0	0	0	0	472	510	0	0	
14	0	0	0	0	472	510	0	0	
15	0	0	0	0	472	510	0	0	
0	0	0	0	0	472	508	0	0	
1	0	0	0	0	465	511	0	0	
2	0	0	0	0	472	511	0	0	
3	0	0	0	0	473	508	0	0	
4	0	0	0	0	481	511	0	0	
5	0	0	0	0	480	510	0	0	
6	0	0	0	0	476	512	0	0	
7	0	0	0	0	476	511	0	0	
8	0	0	0	0	481	510	0	0	
9	0	0	0	0	486	510	0	0	
10	0	0	0	0	480	510	0	0	
11	0	0	0	0	480	508	0	0	
12	0	0	0	0	480	508	0	0	
13	0	0	0	0	480	508	0	0	
14	0	0	0	0	480	505	0	0	
15	0	0	0	0	472	508	0	0	
0	0	0	0	0	472	508	0	0	
1	0	0	0	0	472	511	0	0	
2	0	0	0	0	463	510	0	0	
3	0	0	0	0	455	510	0	0	
4	0	0	0	0	463	508	0	0	
5	0	0	0	0	470	511	0	0	
6	0	0	0	0	467	510	0	0	
7	0	0	0	0	472	512	0	0	
8	0	0	0	0	476	513	0	0	
9	0	0	0	0	483	511	0	0	
10	0	0	0	0	487	512	0	0	
11	0	0	0	0	487	512	0	0	
12	0	0	0	0	492	511	0	0	
13	0	0	0	0	487	508	0	0	
14	0	0	0	0	480	510	0	0	
15	0	0	0	0	478	513	0	0	
0	0	0	0	0	478	512	0	0	
1	0	0	0	0	472	508	0	0	
2	0	0	0	0	465	504	0	0	
3	0	0	0	0	465	504	0	0	
4	0	0	0	0	467	504	0	0	
5	0	0	0	0	467	504	0	0	
6	0	0	0	0	460	508	0	0	
7	0	0	0	0	455	510	0	0	
8	0	0	0	0	455	511	0	0	
9	0	0	0	0	463	511	0	0	
10	0	0	0	0	467	510	0	0	
11	0	0	0	0	472	505	0	0	
12	0	0	0	0	476	512	0	0	
13	0	0	0	0	476	511	0	0	
14	0	0	0	0	480	511	0	0	
15	0	0	0	0	483	511	0	0	
0	0	0	0	0	487	511	0	0	
1	0	0	0	0	481	512	0	0	
2	0	0	0	0	480	508	0	0	
3	0	0	0	0	480	510	0	0	
4	0	0	0	0	480	510	0	0	
5	0	0	0	0	476	508	0	0	
6	0	0	0	0	472	511	0	0	
7	0	0	0	0	467	511	0	0	
8	0	0	0	0	472	510	0	0	
9	0	0	0	0	472	508	0	0	
10	0	0	0	0	465	508	0	0	
11	0	0	0	0	467	508	0	0	
12	0	0	0	0	472	510	0	0	
13	0	0	0	0	472	508	0	0	
14	0	0	0	0	478	510	0	0	
15	0	0	0	0	480	511	0	0	
0	0	0	0	0	480	508	0	0	
1	0	0	0	0	480	513	0	0	
2	0	0	0	0	480	511	0	0	
3	0	0	0	0	483	511	0	0	
4	0	0	0	0	487	512	0	0	
5	0	0	0	0	487	511	0	0	
6	0	0	0	0	481	511	0	0	
7	0	0	0	0	476	510	0	0	
8	0	0	0	0	472	508	0	0	
9	0	0	0	0	467	511	0	0	
10	0	0	0	0	463	510	0	0	
11	0	0	0	0	463	511	0	0	
12	0	0	0	0	467	510	0	0	
13	0	0	0	0	472	511	0	0	
14	0	0	0	0	473	513	0	0	
15	0	0	0	0	483	511	0	0	
0	0	0	0	0	483	511	0	0	
1	0	0	0	0	480	511	0	0	
2	0	0	0	0	478	511	0	0	
3	0	0	0	0	476	511	0	0	
4	0	0	0	0	476	508	0	0	
5	0	0	0	0	476	512	0	0	
6	0	0	0	0	472	511	0	0	
7	0	0	0	0	481	511	0	0	
8	0	0	0	0	480	510	0	0	
9	0	0	0	0	481	508	0	0	
10	0	0	0	0	487	508	0	0	
11	0	0	0	0	487	508	0	0	
12	0	0	0	0	486	508	0	0	
13	0	0	0	0	472	511	0	0	
14	0	0	0	0	467	508	0	0	
15	0	0	0	0	465	508	0	0	
0	0	0	0	0	472	510	0	0	
1	0	0	0	0	467	510	0	0	
2	0	0	0	0	463	508	0	0	
3	0	0	0	0	463	508	0	0	
4	0	0	0	0	460	512	0	0	
5	0	0	0	0	472	511	0	0	
6	0	0	0	0	480	510	0	0	
7	0	0	0	0	480	508	0	0	
8	0	0	0	0	480	508	0	0	
9	0	0	0	0	476	511	0	0	
10	0	0	0	0	476	511	0	0	
11	0	0	0	0	480	508	0	0	
12	0	0	0	0	480	508	0	0	
13	0	0	0	0	483	505	0	0	
14	0	0	0	0	472	508	0	0	
15	0	0	0	0	465	508	0	0	
0	0	0	0	0	472	504	0	0	
1	0	0	0	0	472	508	0	0	
2	0	0	0	0	465	508	0	0	
3	0	0	0	0	463	508	0	0	
4	0	0	0	0	455	508	0	0	
5	0	0	0	0	460	505	0	0	
6	0	0	0	0	462	510	0	0	
7	0	0	0	0	463	511	0	0	
8	0	0	0	0	463	510	0	0	
9	0	0	0	0	472	508	0	0	
10	0	0	0	0	480	511	0	0	
11	0	0	0	0	483	515	0	0	
12	0	0	0	0	487	519	0	0	
13	0	0	0	0	492	512	0	0	
14	0	0	0	0	494	508	0	0	
15	0	0	0	0	487	504	0	0	
0	0	0	0	0	489	504	0	0	
1	0	0	0	0	487	512	0	0	
2	0	0	0	0	487	512	0	0	
3	0	0	0	0	487	510	0	0	
4	0	0	0	0	487	511	0	0	
5	0	0	0	0	481	510	0	0	
6	0	0	0	0	480	508	0	0	
7	0	0	0	0	476	511	0	0	
8	0	0	0	0	476	510	0	0	
9	0	0	0	0	472	508	0	0	
10	0	0	0	0	463	510	0	0	
11	0	0	0	0	460	508	0	0	
12	0	0	0	0	462	511	0	0	
13	0	0	0	0	467	513	0	0	
14	0	0	0	0	476	513	0	0	
15	0	0	0	0	480	511	0	0	
0	0	0	0	0	480	512	0	0	
1	0	0	0	0	480	511	0	0	
2	0	0	0	0	480	510	0	0	
3	0	0	0	0	480	512	0	0	
4	0	0	0	0	480	513	0	0	
5	0	0	0	0	480	511	0	0	
6	0	0	0	0	476	511	0	0	
7	0	0	0	0	480	512	0	0	
8	0	0	0	0	476	508	0	0	
9	0	0	0	0	470	508	0	0	
10	0	0	0	0	472	505	0	0	
11	0	0	0	0	470	510	0	0	
12	0	0	0	0	472	508	0	0	
13	0	0	0	0	467	504	0	0	
14	0	0	0	0	467	508	0	0	
15	0	0	0	0	476	510	0	0	
0	0	0	0	0	472	508	0	0	
1	0	0	0	0	465	505	0	0	
2	0	0	0	0	465	504	0	0	
3	0	0	0	0	480	510	0	0	
4	0	0	0	0	487	511	0	0	
5	0	0	0	0	487	511	0	0	
6	0	0	0	0	487	510	0	0	
7	0	0	0	0	487	510	0	0	
8	0	0	0	0	483	508	0	0	
9	0	0	0	0	483	508	0	0	
10	0	0	0	0	478	510	0	0	
11	0	0	0	0	472	510	0	0	
12	0	0	0	0	473	508	0	0	
13	0	0	0	0	472	508	0	0	
14	0	0	0	0	467	512	0	0	
15	0	0	0	0	473	510	0	0	
0	0	0	0	0	476	508	0	0	
1	0	0	0	0	472	508	0	0	
2	0	0	0	0	472	510	0	0	
3	0	0	0	0	478	511	0	0	
4	0	0	0	0	472	510	0	0	
5	0	0	0	0	467	510	0	0	
6	0	0	0	0	463	511	0	0	
7	0	0	0	0	467	511	0	0	
8	0	0	0	0	472	515	0	0	
9	0	0	0	0	480	511	0	0	
10	0	0	0	0	480	511	0	0	
11	0	0	0	0	480	510	0	0	
12	0	0	0	0	480	510	0	0	
13	0	0	0	0	476	508	0	0	
14	0	0	0	0	478	511	0	0	
15	0	0	0	0	480	510	0	0	
0	0	0	0	0	476	505	0	0	
1	0	0	0	0	472	508	0	0	
2	0	0	0	0	472	508	0	0	
3	0	0	0	0	472	510	0	0	
4	0	0	0	0	472	508	0	0	
5	0	0	0	0	472	510	0	0	
6	0	0	0	0	472	508	0	0	
7	0	0	0	0	472	510	0	0	
8	0	0	0	0	467	511	0	0	
9	0	0	0	0	473	508	0	0	
10	0	0	0	0	480	511	0	0	
11	0	0	0	0	472	511	0	0	
12	0	0	0	0	473	508	0	0	
13	0	0	0	0	476	515	0	0	
14	0	0	0	0	480	513	0	0	
15	0	0	0	0	480	515	0	0	
0	0	0	0	0	480	513	0	0	
1	0	0	0	0	483	508	0	0	
2	0	0	0	0	480	511	0	0	
3	0	0	0	0	480	508	0	0	
4	0	0	0	0	476	508	0	0	
5	0	0	0	0	472	508	0	0	
6	0	0	0	0	463	504	0	0	
7	0	0	0	0	463	508	0	0	
8	0	0	0	0	463	508	0	0	
9	0	0	0	0	463	510	0	0	
10	0	0	0	0	455	511	0	0	
11	0	0	0	0	455	508	0	0	
12	0	0	0	0	463	510	0	0	
13	0	0	0	0	465	511	0	0	
14	0	0	0	0	472	511	0	0	
15	0	0	0	0	480	511	0	0	
0	0	0	0	0	480	515	0	0	
1	0	0	0	0	483	511	0	0	
2	0	0	0	0	486	510	0	0	
3	0	0	0	0	487	508	0	0	
4	0	0	0	0	486	510	0	0	
5	0	0	0	0	481	511	0	0	
6	0	0	0	0	481	508	0	0	
7	0	0	0	0	476	510	0	0	
8	0	0	0	0	480	505	0	0	
9	0	0	0	0	481	508	0	0	
10	0	0	0	0	476	508	0	0	
11	0	0	0	0	467	504	0	0	
12	0	0	0	0	467	504	0	0	
13	0	0	0	0	465	510	0	0	
14	0	0	0	0	463	511	0	0	
15	0	0	0	0	455	510	0	0	
0	0	0	0	0	455	510	0	0	
1	0	0	0	0	463	508	0	0	
2	0	0	0	0	463	510	0	0	
3	0	0	0	0	470	510	0	0	
4	0	0	0	0	472	515	0	0	
5	0	0	0	0	480	513	0	0	
6	0	0	0	0	480	513	0	0	
7	0	0	0	0	480	508	0	0	
8	0	0	0	0	481	508	0	0	
9	0	0	0	0	481	508	0	0	
10	0	0	0	0	483	510	0	0	
11	0	0	0	0	483	510	0	0	
12	0	0	0	0	480	510	0	0	
13	0	0	0	0	476	508	0	0	
14	0	0	0	0	467	510	0	0	
15	0	0	0	0	463	508	0	0	
0	0	0	0	0	463	508	0	0	
1	0	0	0	0	463	508	0	0	
2	0	0	0	0	463	510	0	0	
3	0	0	0	0	465	510	0	0	
4	0	0	0	0	472	510	0	0	
5	0	0	0	0	480	513	0	0	
6	0	0	0	0	481	511	0	0	
7	0	0	0	0	483	508	0	0	
8	0	0	0	0	483	511	0	0	
9	0	0	0	0	487	512	0	0	
10	0	0	0	0	486	511	0	0	
11	0	0	0	0	483	511	0	0	
12	0	0	0	0	476	511	0	0	
13	0	0	0	0	476	508	0	0	
14	0	0	0	0	483	510	0	0	
15	0	0	0	0	480	508	0	0	
0	0	0	0	0	480	510	0	0	
1	0	0	0	0	476	511	0	0	
2	0	0	0	0	467	508	0	0	
3	0	0	0	0	462	510	0	0	
4	0	0	0	0	460	508	0	0	
5	0	0	0	0	460	508	0	0	
6	0	0	0	0	467	511	0	0	
7	0	0	0	0	476	511	0	0	
8	0	0	0	0	472	510	0	0	
9	0	0	0	0	480	510	0	0	
10	0	0	0	0	481	510	0	0	
11	0	0	0	0	487	511	0	0	
12	0	0	0	0	481	515	0	0	
13	0	0	0	0	480	511	0	0	
14	0	0	0	0	480	508	0	0	
15	0	0	0	0	480	508	0	0	
0	0	0	0	0	481	510	0	0	
1	0	0	0	0	480	510	0	0	
2	0	0	0	0	480	508	0	0	
3	0	0	0	0	480	511	0	0	
4	0	0	0	0	480	508	0	0	
5	0	0	0	0	472	505	0	0	
6	0	0	0	0	467	512	0	0	
7	0	0	0	0	467	510	0	0	
8	0	0	0	0	467	504	0	0	
9	0	0	0	0	472	505	0	0	
10	0	0	0	0	472	510	0	0	
11	0	0	0	0	472	508	0	0	
12	0	0	0	0	472	505	0	0	
13	0	0	0	0	478	508	0	0	
14	0	0	0	0	481	510	0	0	
15	0	0	0	0	483	511	0	0	
0	0	0	0	0	487	511	0	0	
1	0	0	0	0	483	512	0	0	
2	0	0	0	0	476	513	0	0	
3	0	0	0	0	476	511	0	0	
4	0	0	0	0	476	511	0	0	
5	0	0	0	0	478	508	0	0	
6	0	0	0	0	480	508	0	0	
7	0	0	0	0	480	505	0	0	
8	0	0	0	0	478	508	0	0	
9	0	0	0	0	472	510	0	0	
10	0	0	0	0	463	508	0	0	
11	0	0	0	0	463	508	0	0	
12	0	0	0	0	460	510	0	0	
13	0	0	0	0	462	510	0	0	
14	0	0	0	0	460	510	0	0	
15	0	0	0	0	462	510	0	0	
0	0	0	0	0	465	510	0	0	
1	0	0	0	0	467	511	0	0	
2	0	0	0	0	476	511	0	0	
3	0	0	0	0	480	511	0	0	
4	0	0	0	0	480	508	0	0	
5	0	0	0	0	480	512	0	0	
6	0	0	0	0	483	511	0	0	
7	0	0	0	0	483	511	0	0	
8	0	0	0	0	483	511	0	0	
9	0	0	0	0	486	508	0	0	
10	0	0	0	0	481	508	0	0	
11	0	0	0	0	483	508	0	0	
12	0	0	0	0	481	504	0	0	
13	0	0	0	0	486	508	0	0	
14	0	0	0	0	481	511	0	0	
15	0	0	0	0	480	508	0	0	
0	0	0	0	0	476	510	0	0	
1	0	0	0	0	463	510	0	0	
2	0	0	0	0	465	508	0	0	
3	0	0	0	0	472	510	0	0	
4	0	0	0	0	472	511	0	0	
5	0	0	0	0	472	510	0	0	
6	0	0	0	0	472	510	0	0	
7	0	0	0	0	480	512	0	0	
8	0	0	0	0	480	510	0	0	
9	0	0	0	0	480	508	0	0	
10	0	0	0	0	481	510	0	0	
11	0	0	0	0	480	511	0	0	
12	0	0	0	0	480	508	0	0	
13	0	0	0	0	481	511	0	0	
14	0	0	0	0	483	508	0	0	
15	0	0	0	0	480	508	0	0	
0	0	0	0	0	478	510	0	0	
1	0	0	0	0	472	511	0	0	
2	0	0	0	0	463	508	0	0	
3	0	0	0	0	465	508	0	0	
4	0	0	0	0	467	504	0	0	
5	0	0	0	0	467	508	0	0	
6	0	0	0	0	470	512	0	0	
7	0	0	0	0	476	512	0	0	
8	0	0	0	0	476	510	0	0	
9	0	0	0	0	480	508	0	0	
10	0	0	0	0	486	511	0	0	
11	0	0	0	0	483	511	0	0	
12	0	0	0	0	481	511	0	0	
13	0	0	0	0	480	511	0	0	
14	0	0	0	0	476	511	0	0	
15	0	0	0	0	472	508	0	0	
0	0	0	0	0	465	508	0	0	
1	0	0	0	0	463	508	0	0	
2	0	0	0	0	465	510	0	0	
3	0	0	0	0	472	510	0	0	
4	0	0	0	0	472	510	0	0	
5	0	0	0	0	472	504	0	0	
6	0	0	0	0	467	505	0	0	
7	0	0	0	0	465	510	0	0	
8	0	0	0	0	463	512	0	0	
9	0	0	0	0	463	513	0	0	
10	0	0	0	0	463	511	0	0	
11	0	0	0	0	465	510	0	0	
12	0	0	0	0	472	511	0	0	
13	0	0	0	0	480	511	0	0	
14	0	0	0	0	483	511	0	0	
15	0	0	0	0	483	510	0	0	
0	0	0	0	0	483	511	0	0	
1	0	0	0	0	487	511	0	0	
2	0	0	0	0	483	508	0	0	
3	0	0	0	0	480	508	0	0	
4	0	0	0	0	481	510	0	0	
5	0	0	0	0	481	510	0	0	
6	0	0	0	0	478	512	0	0	
7	0	0	0	0	476	511	0	0	
8	0	0	0	0	472	508	0	0	
9	0	0	0	0	472	508	0	0	
10	0	0	0	0	467	512	0	0	
11	0	0	0	0	465	510	0	0	
12	0	0	0	0	472	510	0	0	
13	0	0	0	0	462	511	0	0	
14	0	0	0	0	460	510	0	0	
15	0	0	0	0	463	513	0	0	
0	0	0	0	0	465	512	0	0	
1	0	0	0	0	472	515	0	0	
2	0	0	0	0	476	511	0	0	
3	0	0	0	0	480	510	0	0	
4	0	0	0	0	483	512	0	0	
5	0	0	0	0	483	510	0	0	
6	0	0	0	0	487	512	0	0	
7	0	0	0	0	487	511	0	0	
8	0	0	0	0	483	510	0	0	
9	0	0	0	0	480	512	0	0	
10	0	0	0	0	476	511	0	0	
11	0	0	0	0	472	511	0	0	
12	0	0	0	0	462	508	0	0	
13	0	0	0	0	463	508	0	0	
14	0	0	0	0	472	508	0	0	
15	0	0	0	0	472	508	0	0	
0	0	0	0	0	467	508	0	0	
1	0	0	0	0	465	508	0	0	
2	0	0	0	0	463	508	0	0	
3	0	0	0	0	460	508	0	0	
4	0	0	0	0	460	510	0	0	
5	0	0	0	0	463	511	0	0	
6	0	0	0	0	465	511	0	0	
7	0	0	0	0	463	508	0	0	
8	0	0	0	0	472	511	0	0	
9	0	0	0	0	480	510	0	0	
10	0	0	0	0	483	510	0	0	
11	0	0	0	0	480	511	0	0	
12	0	0	0	0	476	511	0	0	
13	0	0	0	0	472	510	0	0	
14	0	0	0	0	476	508	0	0	
15	0	0	0	0	476	505	0	0	
0	0	0	0	0	480	505	0	0	
1	0	0	0	0	480	508	0	0	
2	0	0	0	0	480	510	0	0	
3	0	0	0	0	472	508	0	0	
4	0	0	0	0	467	505	0	0	
5	0	0	0	0	467	505	0	0	
6	0	0	0	0	472	504	0	0	
7	0	0	0	0	476	510	0	0	
8	0	0	0	0	476	510	0	0	
9	0	0	0	0	476	513	0	0	
10	0	0	0	0	472	512	0	0	
11	0	0	0	0	481	508	0	0	
12	0	0	0	0	481	511	0	0	
13	0	0	0	0	483	511	0	0	
14	0	0	0	0	480	511	0	0	
15	0	0	0	0	472	510	0	0	
0	0	0	0	0	473	508	0	0	
1	0	0	0	0	486	508	0	0	
2	0	0	0	0	483	511	0	0	
3	0	0	0	0	480	508	0	0	
4	0	0	0	0	472	508	0	0	
5	0	0	0	0	463	511	0	0	
6	0	0	0	0	463	511	0	0	
7	0	0	0	0	462	510	0	0	
8	0	0	0	0	467	505	0	0	
9	0	0	0	0	472	508	0	0	
10	0	0	0	0	472	504	0	0	
11	0	0	0	0	476	508	0	0	
12	0	0	0	0	481	508	0	0	
13	0	0	0	0	483	510	0	0	
14	0	0	0	0	481	511	0	0	
15	0	0	0	0	481	511	0	0	
0	0	0	0	0	480	512	0	0	
1	0	0	0	0	483	511	0	0	
2	0	0	0	0	480	510	0	0	
3	0	0	0	0	480	510	0	0	
4	0	0	0	0	480	510	0	0	
5	0	0	0	0	481	510	0	0	
6	0	0	0	0	481	508	0	0	
7	0	0	0	0	476	508	0	0	
8	0	0	0	0	472	508	0	0	
9	0	0	0	0	467	508	0	0	
10	0	0	0	0	467	504	0	0	
11	0	0	0	0	472	505	0	0	
12	0	0	0	0	472	508	0	0	
13	0	0	0	0	472	508	0	0	
14	0	0	0	0	472	510	0	0	
15	0	0	0	0	476	512	0	0	
0	0	0	0	0	480	511	0	0	
1	0	0	0	0	480	512	0	0	
2	0	0	0	0	480	511	0	0	
3	0	0	0	0	476	510	0	0	
4	0	0	0	0	480	512	0	0	
5	0	0	0	0	480	512	0	0	
6	0	0	0	0	481	513	0	0	
7	0	0	0	0	483	511	0	0	
8	0	0	0	0	480	510	0	0	
9	0	0	0	0	480	511	0	0	
10	0	0	0	0	478	510	0	0	
11	0	0	0	0	478	510	0	0	
12	0	0	0	0	472	508	0	0	
13	0	0	0	0	467	508	0	0	
14	0	0	0	0	465	511	0	0	
15	0	0	0	0	463	508	0	0	
0	0	0	0	0	463	510	0	0	
1	0	0	0	0	465	511	0	0	
2	0	0	0	0	472	508	0	0	
3	0	0	0	0	472	508	0	0	
4	0	0	0	0	463	510	0	0	
5	0	0	0	0	472	510	0	0	
6	0	0	0	0	480	510	0	0	
7	0	0	0	0	480	513	0	0	
8	0	0	0	0	481	511	0	0	
9	0	0	0	0	487	512	0	0	
10	0	0	0	0	487	511	0	0	
11	0	0	0	0	483	510	0	0	
12	0	0	0	0	481	512	0	0	
13	0	0	0	0	483	510	0	0	
14	0	0	0	0	480	511	0	0	
15	0	0	0	0	480	511	0	0	
0	0	0	0	0	483	508	0	0	
1	0	0	0	0	480	504	0	0	
2	0	0	0	0	478	504	0	0	
3	0	0	0	0	476	505	0	0	
4	0	0	0	0	476	508	0	0	
5	0	0	0	0	467	508	0	0	
6	0	0	0	0	455	511	0	0	
7	0	0	0	0	460	511	0	0	
8	0	0	0	0	455	508	0	0	
9	0	0	0	0	460	510	0	0	
10	0	0	0	0	467	511	0	0	
11	0	0	0	0	472	510	0	0	
12	0	0	0	0	480	512	0	0	
13	0	0	0	0	480	511	0	0	
14	0	0	0	0	480	510	0	0	
15	0	0	0	0	480	511	0	0	
0	0	0	0	0	480	512	0	0	
1	0	0	0	0	476	508	0	0	
2	0	0	0	0	472	508	0	0	
3	0	0	0	0	476	508	0	0	
4	0	0	0	0	476	508	0	0	
5	0	0	0	0	473	511	0	0	
6	0	0	0	0	472	508	0	0	
7	0	0	0	0	473	505	0	0	
8	0	0	0	0	472	505	0	0	
9	0	0	0	0	472	508	0	0	
10	0	0	0	0	463	508	0	0	
11	0	0	0	0	462	510	0	0	
12	0	0	0	0	460	511	0	0	
13	0	0	0	0	460	511	0	0	
14	0	0	0	0	467	511	0	0	
15	0	0	0	0	476	510	0	0	
0	0	0	0	0	476	515	0	0	
1	0	0	0	0	473	508	0	0	
2	0	0	0	0	476	508	0	0	
3	0	0	0	0	483	511	0	0	
4	0	0	0	0	494	510	0	0	
5	0	0	0	0	496	511	0	0	
6	0	0	0	0	483	512	0	0	
7	0	0	0	0	480	510	0	0	
8	0	0	0	0	478	508	0	0	
9	0	0	0	0	476	508	0	0	
10	0	0	0	0	467	508	0	0	
11	0	0	0	0	467	510	0	0	
12	0	0	0	0	467	511	0	0	
13	0	0	0	0	463	511	0	0	
14	0	0	0	0	463	512	0	0	
15	0	0	0	0	467	512	0	0	
0	0	0	0	0	472	510	0	0	
1	0	0	0	0	478	508	0	0	
2	0	0	0	0	480	511	0	0	
3	0	0	0	0	480	511	0	0	
4	0	0	0	0	483	511	0	0	
5	0	0	0	0	486	510	0	0	
6	0	0	0	0	487	508	0	0	
7	0	0	0	0	487	508	0	0	
8	0	0	0	0	487	511	0	0	
9	0	0	0	0	487	510	0	0	
10	0	0	0	0	487	511	0	0	
11	0	0	0	0	492	508	0	0	
12	0	0	0	0	487	504	0	0	
13	0	0	0	0	480	511	0	0	
14	0	0	0	0	476	515	0	0	
15	0	0	0	0	478	510	0	0	
0	0	0	0	0	463	508	0	0	
1	0	0	0	0	451	508	0	0	
2	0	0	0	0	448	508	0	0	
3	0	0	0	0	454	511	0	0	
4	0	0	0	0	455	515	0	0	
5	0	0	0	0	463	511	0	0	
6	0	0	0	0	463	508	0	0	
7	0	0	0	0	465	508	0	0	
8	0	0	0	0	463	508	0	0	
9	0	0	0	0	472	510	0	0	
10	0	0	0	0	472	510	0	0	
11	0	0	0	0	480	508	0	0	
12	0	0	0	0	487	508	0	0	
13	0	0	0	0	481	511	0	0	
14	0	0	0	0	480	510	0	0	
15	0	0	0	0	480	508	0	0	
0	0	0	0	0	473	508	0	0	
1	0	0	0	0	472	508	0	0	
2	0	0	0	0	472	508	0	0	
3	0	0	0	0	467	508	0	0	
4	0	0	0	0	472	510	0	0	
5	0	0	0	0	465	508	0	0	
6	0	0	0	0	463	510	0	0	
7	0	0	0	0	472	510	0	0	
8	0	0	0	0	476	510	0	0	
9	0	0	0	0	478	511	0	0	
10	0	0	0	0	480	512	0	0	
11	0	0	0	0	480	511	0	0	
12	0	0	0	0	481	510	0	0	
13	0	0	0	0	480	510	0	0	
14	0	0	0	0	480	511	0	0	
15	0	0	0	0	483	510	0	0	
0	0	0	0	0	487	508	0	0	
1	0	0	0	0	480	511	0	0	
2	0	0	0	0	480	505	0	0	
3	0	0	0	0	480	508	0	0	
4	0	0	0	0	480	508	0	0	
5	0	0	0	0	476	508	0	0	
6	0	0	0	0	472	508	0	0	
7	0	0	0	0	455	510	0	0	
8	0	0	0	0	460	510	0	0	
9	0	0	0	0	460	508	0	0	
10	0	0	0	0	463	510	0	0	
11	0	0	0	0	467	511	0	0	
12	0	0	0	0	472	510	0	0	
13	0	0	0	0	476	511	0	0	
14	0	0	0	0	480	510	0	0	
15	0	0	0	0	480	511	0	0	
0	0	0	0	0	487	510	0	0	
1	0	0	0	0	487	515	0	0	
2	0	0	0	0	487	511	0	0	
3	0	0	0	0	487	513	0	0	
4	0	0	0	0	487	513	0	0	
5	0	0	0	0	487	511	0	0	
6	0	0	0	0	481	510	0	0	
7	0	0	0	0	480	510	0	0	
8	0	0	0	0	476	510	0	0	
9	0	0	0	0	472	508	0	0	
10	0	0	0	0	472	508	0	0	
11	0	0	0	0	467	508	0	0	
12	0	0	0	0	472	504	0	0	
13	0	0	0	0	472	505	0	0	
14	0	0	0	0	480	508	0	0	
15	0	0	0	0	480	510	0	0	
0	0	0	0	0	476	510	0	0	
1	0	0	0	0	480	508	0	0	
2	0	0	0	0	480	508	0	0	
3	0	0	0	0	476	512	0	0	
4	0	0	0	0	476	510	0	0	
5	0	0	0	0	478	512	0	0	
6	0	0	0	0	480	512	0	0	
7	0	0	0	0	480	511	0	0	
8	0	0	0	0	480	511	0	0	
9	0	0	0	0	480	511	0	0	
10	0	0	0	0	476	510	0	0	
11	0	0	0	0	478	508	0	0	
12	0	0	0	0	472	508	0	0	
13	0	0	0	0	472	508	0	0	
14	0	0	0	0	480	510	0	0	
15	0	0	0	0	487	510	0	0	
0	0	0	0	0	487	510	0	0	
1	0	0	0	0	478	508	0	0	
2	0	0	0	0	472	510	0	0	
3	0	0	0	0	476	515	0	0	
4	0	0	0	0	476	512	0	0	
5	0	0	0	0	480	512	0	0	
6	0	0	0	0	478	512	0	0	
7	0	0	0	0	478	512	0	0	
8	0	0	0	0	472	505	0	0	
9	0	0	0	0	473	508	0	0	
10	0	0	0	0	476	508	0	0	
11	0	0	0	0	480	510	0	0	
12	0	0	0	0	483	511	0	0	
13	0	0	0	0	480	513	0	0	
14	0	0	0	0	476	511	0	0	
15	0	0	0	0	467	510	0	0	
0	0	0	0	0	472	510	0	0	
1	0	0	0	0	472	511	0	0	
2	0	0	0	0	473	508	0	0	
3	0	0	0	0	463	511	0	0	
4	0	0	0	0	462	510	0	0	
5	0	0	0	0	463	508	0	0	
6	0	0	0	0	467	508	0	0	
7	0	0	0	0	472	510	0	0	
8	0	0	0	0	472	510	0	0	
9	0	0	0	0	467	512	0	0	
10	0	0	0	0	472	511	0	0	
11	0	0	0	0	476	510	0	0	
12	0	0	0	0	480	512	0	0	
13	0	0	0	0	487	512	0	0	
14	0	0	0	0	487	512	0	0	
15	0	0	0	0	486	511	0	0	
0	0	0	0	0	483	508	0	0	
1	0	0	0	0	483	508	0	0	
2	0	0	0	0	483	510	0	0	
3	0	0	0	0	483	512	0	0	
4	0	0	0	0	476	508	0	0	
5	0	0	0	0	472	504	0	0	
6	0	0	0	0	467	508	0	0	
7	0	0	0	0	462	504	0	0	
8	0	0	0	0	460	508	0	0	
9	0	0	0	0	463	508	0	0	
10	0	0	0	0	467	511	0	0	
11	0	0	0	0	472	510	0	0	
12	0	0	0	0	472	510	0	0	
13	0	0	0	0	476	510	0	0	
14	0	0	0	0	480	508	0	0	
15	0	0	0	0	480	508	0	0	
0	0	0	0	0	480	511	0	0	
1	0	0	0	0	480	512	0	0	
2	0	0	0	0	483	510	0	0	
3	0	0	0	0	483	510	0	0	
4	0	0	0	0	483	510	0	0	
5	0	0	0	0	476	508	0	0	
6	0	0	0	0	480	508	0	0	
7	0	0	0	0	476	505	0	0	
8	0	0	0	0	472	508	0	0	
9	0	0	0	0	480	508	0	0	
10	0	0	0	0	476	512	0	0	
11	0	0	0	0	472	511	0	0	
12	0	0	0	0	472	510	0	0	
13	0	0	0	0	465	510	0	0	
14	0	0	0	0	463	508	0	0	
15	0	0	0	0	470	511	0	0	
0	0	0	0	0	467	512	0	0	
1	0	0	0	0	472	511	0	0	
2	0	0	0	0	480	508	0	0	
3	0	0	0	0	480	508	0	0	
4	0	0	0	0	483	511	0	0	
5	0	0	0	0	487	508	0	0	
6	0	0	0	0	487	508	0	0	
7	0	0	0	0	492	510	0	0	
8	0	0	0	0	492	511	0	0	
9	0	0	0	0	487	511	0	0	
10	0	0	0	0	480	510	0	0	
11	0	0	0	0	480	508	0	0	
12	0	0	0	0	472	511	0	0	
13	0	0	0	0	465	508	0	0	
14	0	0	0	0	467	505	0	0	
15	0	0	0	0	472	508	0	0	
0	0	0	0	0	472	511	0	0	
1	0	0	0	0	472	510	0	0	
2	0	0	0	0	472	508	0	0	
3	0	0	0	0	467	508	0	0	
4	0	0	0	0	463	510	0	0	
5	0	0	0	0	463	511	0	0	
6	0	0	0	0	463	508	0	0	
7	0	0	0	0	460	508	0	0	
8	0	0	0	0	463	505	0	0	
9	0	0	0	0	472	510	0	0	
10	0	0	0	0	480	512	0	0	
11	0	0	0	0	481	508	0	0	
12	0	0	0	0	481	511	0	0	
13	0	0	0	0	481	511	0	0	
14	0	0	0	0	480	508	0	0	
15	0	0	0	0	480	510	0	0	
0	0	0	0	0	476	510	0	0	
1	0	0	0	0	472	510	0	0	
2	0	0	0	0	472	511	0	0	
3	0	0	0	0	467	508	0	0	
4	0	0	0	0	470	508	0	0	
5	0	0	0	0	467	508	0	0	
6	0	0	0	0	467	510	0	0	
7	0	0	0	0	470	511	0	0	
8	0	0	0	0	472	508	0	0	
9	0	0	0	0	472	511	0	0	
10	0	0	0	0	480	511	0	0	
11	0	0	0	0	480	512	0	0	
12	0	0	0	0	478	510	0	0	
13	0	0	0	0	480	508	0	0	
14	0	0	0	0	483	505	0	0	
15	0	0	0	0	486	510	0	0	
0	0	0	0	0	483	510	0	0	
1	0	0	0	0	481	508	0	0	
2	0	0	0	0	480	511	0	0	
3	0	0	0	0	472	510	0	0	
4	0	0	0	0	467	510	0	0	
5	0	0	0	0	463	511	0	0	
6	0	0	0	0	472	508	0	0	
7	0	0	0	0	473	511	0	0	
8	0	0	0	0	476	511	0	0	
9	0	0	0	0	476	511	0	0	
10	0	0	0	0	472	513	0	0	
11	0	0	0	0	476	510	0	0	
12	0	0	0	0	472	512	0	0	
13	0	0	0	0	476	512	0	0	
14	0	0	0	0	480	512	0	0	
15	0	0	0	0	480	513	0	0	
0	0	0	0	0	480	513	0	0	
1	0	0	0	0	481	519	0	0	
2	0	0	0	0	481	512	0	0	
3	0	0	0	0	478	508	0	0	
4	0	0	0	0	472	510	0	0	
5	0	0	0	0	480	504	0	0	
6	0	0	0	0	483	508	0	0	
7	0	0	0	0	480	504	0	0	
8	0	0	0	0	472	508	0	0	
9	0	0	0	0	472	508	0	0	
10	0	0	0	0	467	510	0	0	
11	0	0	0	0	463	508	0	0	
12	0	0	0	0	472	511	0	0	
13	0	0	0	0	472	505	0	0	
14	0	0	0	0	467	508	0	0	
15	0	0	0	0	467	508	0	0	
0	0	0	0	0	480	511	0	0	
1	0	0	0	0	476	510	0	0	
2	0	0	0	0	480	511	0	0	
3	0	0	0	0	480	511	0	0	
4	0	0	0	0	480	512	0	0	
5	0	0	0	0	487	512	0	0	
6	0	0	0	0	492	510	0	0	
7	0	0	0	0	492	508	0	0	
8	0	0	0	0	486	512	0	0	
9	0	0	0	0	480	512	0	0	
10	0	0	0	0	473	510	0	0	
11	0	0	0	0	472	508	0	0	
12	0	0	0	0	465	504	0	0	
13	0	0	0	0	472	505	0	0	
14	0	0	0	0	472	508	0	0	
15	0	0	0	0	472	508	0	0	
0	0	0	0	0	472	508	0	0	
1	0	0	0	0	472	510	0	0	
2	0	0	0	0	462	510	0	0	
3	0	0	0	0	463	510	0	0	
4	0	0	0	0	472	511	0	0	
5	0	0	0	0	472	511	0	0	
6	0	0	0	0	472	508	0	0	
7	0	0	0	0	481	505	0	0	
8	0	0	0	0	483	513	0	0	
9	0	0	0	0	480	513	0	0	
10	0	0	0	0	481	510	0	0	
11	0	0	0	0	481	510	0	0	
12	0	0	0	0	483	508	0	0	
13	0	0	0	0	480	508	0	0	
14	0	0	0	0	480	508	0	0	
15	0	0	0	0	472	508	0	0	
0	0	0	0	0	463	504	0	0	
1	0	0	0	0	463	508	0	0	
2	0	0	0	0	463	508	0	0	
3	0	0	0	0	467	508	0	0	
4	0	0	0	0	465	508	0	0	
5	0	0	0	0	465	508	0	0	
6	0	0	0	0	467	505	0	0	
7	0	0	0	0	465	510	0	0	
8	0	0	0	0	467	508	0	0	
9	0	0	0	0	476	510	0	0	
10	0	0	0	0	480	510	0	0	
11	0	0	0	0	476	511	0	0	
12	0	0	0	0	473	512	0	0	
13	0	0	0	0	480	511	0	0	
14	0	0	0	0	483	511	0	0	
15	0	0	0	0	483	512	0	0	
0	0	0	0	0	487	511	0	0	
1	0	0	0	0	487	515	0	0	
2	0	0	0	0	480	510	0	0	
3	0	0	0	0	478	511	0	0	
4	0	0	0	0	476	508	0	0	
5	0	0	0	0	472	505	0	0	
6	0	0	0	0	465	508	0	0	
7	0	0	0	0	467	504	0	0	
8	0	0	0	0	465	504	0	0	
9	0	0	0	0	467	505	0	0	
10	0	0	0	0	472	508	0	0	
11	0	0	0	0	472	510	0	0	
12	0	0	0	0	472	508	0	0	
13	0	0	0	0	480	508	0	0	
14	0	0	0	0	480	513	0	0	
15	0	0	0	0	480	515	0	0	
0	0	0	0	0	483	513	0	0	
1	0	0	0	0	480	511	0	0	
2	0	0	0	0	472	508	0	0	
3	0	0	0	0	480	511	0	0	
4	0	0	0	0	481	511	0	0	
5	0	0	0	0	480	510	0	0	
6	0	0	0	0	478	510	0	0	
7	0	0	0	0	476	508	0	0	
8	0	0	0	0	480	508	0	0	
9	0	0	0	0	472	510	0	0	
10	0	0	0	0	472	511	0	0	
11	0	0	0	0	463	511	0	0	
12	0	0	0	0	462	511	0	0	
13	0	0	0	0	467	511	0	0	
14	0	0	0	0	465	511	0	0	
15	0	0	0	0	467	510	0	0	
0	0	0	0	0	470	508	0	0	
1	0	0	0	0	472	510	0	0	
2	0	0	0	0	473	512	0	0	
3	0	0	0	0	476	511	0	0	
4	0	0	0	0	480	510	0	0	
5	0	0	0	0	483	508	0	0	
6	0	0	0	0	481	510	0	0	
7	0	0	0	0	487	510	0	0	
8	0	0	0	0	483	512	0	0	
9	0	0	0	0	481	508	0	0	
10	0	0	0	0	476	511	0	0	
11	0	0	0	0	472	508	0	0	
12	0	0	0	0	472	505	0	0	
13	0	0	0	0	472	508	0	0	
14	0	0	0	0	473	510	0	0	
15	0	0	0	0	472	512	0	0	
0	0	0	0	0	467	508	0	0	
1	0	0	0	0	467	508	0	0	
2	0	0	0	0	465	512	0	0	
3	0	0	0	0	467	512	0	0	
4	0	0	0	0	472	511	0	0	
5	0	0	0	0	476	511	0	0	
6	0	0	0	0	480	508	0	0	
7	0	0	0	0	481	508	0	0	
8	0	0	0	0	487	511	0	0	
9	0	0	0	0	492	512	0	0	
10	0	0	0	0	483	515	0	0	
11	0	0	0	0	483	512	0	0	
12	0	0	0	0	481	510	0	0	
13	0	0	0	0	487	508	0	0	
14	0	0	0	0	480	504	0	0	
15	0	0	0	0	472	504	0	0	
0	0	0	0	0	472	508	0	0	
1	0	0	0	0	472	504	0	0	
2	0	0	0	0	472	508	0	0	
3	0	0	0	0	467	508	0	0	
4	0	0	0	0	463	510	0	0	
5	0	0	0	0	460	504	0	0	
6	0	0	0	0	455	504	0	0	
7	0	0	0	0	462	508	0	0	
8	0	0	0	0	467	515	0	0	
9	0	0	0	0	472	512	0	0	
10	0	0	0	0	476	510	0	0	
11	0	0	0	0	480	511	0	0	
12	0	0	0	0	480	511	0	0	
13	0	0	0	0	483	510	0	0	
14	0	0	0	0	483	512	0	0	
15	0	0	0	0	483	510	0	0	
0	0	0	0	0	486	511	0	0	
1	0	0	0	0	483	508	0	0	
2	0	0	0	0	481	511	0	0	
3	0	0	0	0	480	512	0	0	
4	0	0	0	0	480	511	0	0	
5	0	0	0	0	476	511	0	0	
6	0	0	0	0	472	510	0	0	
7	0	0	0	0	472	508	0	0	
8	0	0	0	0	467	510	0	0	
9	0	0	0	0	463	508	0	0	
10	0	0	0	0	460	508	0	0	
11	0	0	0	0	455	512	0	0	
12	0	0	0	0	463	511	0	0	
13	0	0	0	0	467	510	0	0	
14	0	0	0	0	472	511	0	0	
15	0	0	0	0	478	512	0	0	
0	0	0	0	0	480	510	0	0	
1	0	0	0	0	480	508	0	0	
2	0	0	0	0	486	508	0	0	
3	0	0	0	0	492	508	0	0	
4	0	0	0	0	502	504	0	0	
5	0	0	0	0	504	510	0	0	
6	0	0	0	0	496	511	0	0	
7	0	0	0	0	481	512	0	0	
8	0	0	0	0	472	508	0	0	
9	0	0	0	0	465	510	0	0	
10	0	0	0	0	463	508	0	0	
11	0	0	0	0	462	508	0	0	
12	0	0	0	0	451	505	0	0	
13	0	0	0	0	449	510	0	0	
14	0	0	0	0	462	510	0	0	
15	0	0	0	0	467	508	0	0	
0	0	0	0	0	472	511	0	0	
1	0	0	0	0	472	508	0	0	
2	0	0	0	0	480	505	0	0	
3	0	0	0	0	487	508	0	0	
4	0	0	0	0	492	512	0	0	
5	0	0	0	0	496	511	0	0	
6	0	0	0	0	496	511	0	0	
7	0	0	0	0	487	512	0	0	
8	0	0	0	0	487	512	0	0	
9	0	0	0	0	487	510	0	0	
10	0	0	0	0	476	508	0	0	
11	0	0	0	0	463	504	0	0	
12	0	0	0	0	467	508	0	0	
13	0	0	0	0	467	508	0	0	
14	0	0	0	0	467	508	0	0	
15	0	0	0	0	472	508	0	0	
0	0	0	0	0	472	508	0	0	
1	0	0	0	0	473	510	0	0	
2	0	0	0	0	476	511	0	0	
3	0	0	0	0	476	512	0	0	
4	0	0	0	0	472	511	0	0	
5	0	0	0	0	478	511	0	0	
6	0	0	0	0	480	511	0	0	
7	0	0	0	0	476	512	0	0	
8	0	0	0	0	480	511	0	0	
9	0	0	0	0	483	511	0	0	
10	0	0	0	0	481	508	0	0	
11	0	0	0	0	483	508	0	0	
12	0	0	0	0	483	510	0	0	
13	0	0	0	0	486	508	0	0	
14	0	0	0	0	481	510	0	0	
15	0	0	0	0	476	508	0	0	
0	0	0	0	0	480	508	0	0	
1	0	0	0	0	480	508	0	0	
2	0	0	0	0	472	504	0	0	
3	0	0	0	0	472	504	0	0	
4	0	0	0	0	467	505	0	0	
5	0	0	0	0	467	511	0	0	
6	0	0	0	0	463	512	0	0	
7	0	0	0	0	467	510	0	0	
8	0	0	0	0	472	511	0	0	
9	0	0	0	0	480	510	0	0	
10	0	0	0	0	483	511	0	0	
11	0	0	0	0	483	515	0	0	
12	0	0	0	0	487	510	0	0	
13	0	0	0	0	487	508	0	0	
14	0	0	0	0	486	510	0	0	
15	0	0	0	0	487	510	0	0	
0	0	0	0	0	487	512	0	0	
1	0	0	0	0	483	511	0	0	
2	0	0	0	0	480	510	0	0	
3	0	0	0	0	476	510	0	0	
4	0	0	0	0	472	510	0	0	
5	0	0	0	0	472	508	0	0	
6	0	0	0	0	472	510	0	0	
7	0	0	0	0	472	511	0	0	
8	0	0	0	0	463	508	0	0	
9	0	0	0	0	455	504	0	0	
10	0	0	0	0	460	508	0	0	
11	0	0	0	0	463	515	0	0	
12	0	0	0	0	467	512	0	0	
13	0	0	0	0	472	515	0	0	
14	0	0	0	0	472	508	0	0	
15	0	0	0	0	480	510	0	0	
0	0	0	0	0	483	512	0	0	
1	0	0	0	0	483	512	0	0	
2	0	0	0	0	480	511	0	0	
3	0	0	0	0	483	511	0	0	
4	0	0	0	0	486	511	0	0	
5	0	0	0	0	476	511	0	0	
6	0	0	0	0	476	508	0	0	
7	0	0	0	0	478	508	0	0	
8	0	0	0	0	480	505	0	0	
9	0	0	0	0	486	508	0	0	
10	0	0	0	0	476	511	0	0	
11	0	0	0	0	463	512	0	0	
12	0	0	0	0	457	511	0	0	
13	0	0	0	0	455	511	0	0	
14	0	0	0	0	455	508	0	0	
15	0	0	0	0	451	512	0	0	
0	0	0	0	0	455	510	0	0	
1	0	0	0	0	465	508	0	0	
2	0	0	0	0	472	510	0	0	
3	0	0	0	0	472	511	0	0	
4	0	0	0	0	486	510	0	0	
5	0	0	0	0	487	511	0	0	
6	0	0	0	0	487	511	0	0	
7	0	0	0	0	487	511	0	0	
8	0	0	0	0	483	511	0	0	
9	0	0	0	0	476	510	0	0	
10	0	0	0	0	465	510	0	0	
11	0	0	0	0	460	508	0	0	
12	0	0	0	0	455	508	0	0	
13	0	0	0	0	460	510	0	0	
14	0	0	0	0	462	508	0	0	
15	0	0	0	0	463	508	0	0	
0	0	0	0	0	463	510	0	0	
1	0	0	0	0	462	508	0	0	
2	0	0	0	0	465	512	0	0	
3	0	0	0	0	467	512	0	0	
4	0	0	0	0	472	504	0	0	
5	0	0	0	0	476	505	0	0	
6	0	0	0	0	480	510	0	0	
7	0	0	0	0	481	511	0	0	
8	0	0	0	0	486	508	0	0	
9	0	0	0	0	487	510	0	0	
10	0	0	0	0	480	508	0	0	
11	0	0	0	0	480	508	0	0	
12	0	0	0	0	483	511	0	0	
13	0	0	0	0	486	508	0	0	
14	0	0	0	0	476	508	0	0	
15	0	0	0	0	472	508	0	0	
0	0	0	0	0	472	510	0	0	
1	0	0	0	0	480	508	0	0	
2	0	0	0	0	472	511	0	0	
3	0	0	0	0	463	510	0	0	
4	0	0	0	0	467	512	0	0	
5	0	0	0	0	467	508	0	0	
6	0	0	0	0	467	512	0	0	
7	0	0	0	0	463	512	0	0	
8	0	0	0	0	463	511	0	0	
9	0	0	0	0	472	510	0	0	
10	0	0	0	0	476	511	0	0	
11	0	0	0	0	480	513	0	0	
12	0	0	0	0	480	511	0	0	
13	0	0	0	0	480	510	0	0	
14	0	0	0	0	483	510	0	0	
15	0	0	0	0	487	508	0	0	
0	0	0	0	0	483	512	0	0	
1	0	0	0	0	486	511	0	0	
2	0	0	0	0	480	511	0	0	
3	0	0	0	0	480	510	0	0	
4	0	0	0	0	472	508	0	0	
5	0	0	0	0	472	511	0	0	
6	0	0	0	0	476	511	0	0	
7	0	0	0	0	472	508	0	0	
8	0	0	0	0	462	508	0	0	
9	0	0	0	0	455	510	0	0	
10	0	0	0	0	462	510	0	0	
11	0	0	0	0	463	510	0	0	
12	0	0	0	0	472	511	0	0	
13	0	0	0	0	476	510	0	0	
14	0	0	0	0	480	510	0	0	
15	0	0	0	0	481	510	0	0	
0	0	0	0	0	481	510	0	0	
1	0	0	0	0	483	508	0	0	
2	0	0	0	0	486	508	0	0	
3	0	0	0	0	483	505	0	0	
4	0	0	0	0	480	510	0	0	
5	0	0	0	0	476	515	0	0	
6	0	0	0	0	478	519	0	0	
7	0	0	0	0	480	510	0	0	
8	0	0	0	0	480	508	0	0	
9	0	0	0	0	473	504	0	0	
10	0	0	0	0	472	508	0	0	
11	0	0	0	0	472	505	0	0	
12	0	0	0	0	472	504	0	0	
13	0	0	0	0	472	508	0	0	
14	0	0	0	0	467	510	0	0	
15	0	0	0	0	472	510	0	0	
0	0	0	0	0	476	512	0	0	
1	0	0	0	0	472	511	0	0	
2	0	0	0	0	463	510	0	0	
3	0	0	0	0	472	511	0	0	
4	0	0	0	0	480	512	0	0	
5	0	0	0	0	480	511	0	0	
6	0	0	0	0	480	511	0	0	
7	0	0	0	0	483	508	0	0	
8	0	0	0	0	487	508	0	0	
9	0	0	0	0	483	508	0	0	
10	0	0	0	0	487	508	0	0	
11	0	0	0	0	487	508	0	0	
12	0	0	0	0	480	508	0	0	
13	0	0	0	0	480	510	0	0	
14	0	0	0	0	467	508	0	0	
15	0	0	0	0	455	510	0	0	
0	0	0	0	0	460	508	0	0	
1	0	0	0	0	460	510	0	0	
2	0	0	0	0	462	511	0	0	
3	0	0	0	0	467	510	0	0	
4	0	0	0	0	473	511	0	0	
5	0	0	0	0	481	512	0	0	
6	0	0	0	0	483	512	0	0	
7	0	0	0	0	483	512	0	0	
8	0	0	0	0	492	511	0	0	
9	0	0	0	0	481	508	0	0	
10	0	0	0	0	483	510	0	0	
11	0	0	0	0	480	508	0	0	
12	0	0	0	0	472	510	0	0	
13	0	0	0	0	472	505	0	0	
14	0	0	0	0	467	508	0	0	
15	0	0	0	0	472	505	0	0	
0	0	0	0	0	467	511	0	0	
1	0	0	0	0	463	510	0	0	
2	0	0	0	0	455	510	0	0	
3	0	0	0	0	460	508	0	0	
4	0	0	0	0	467	505	0	0	
5	0	0	0	0	467	510	0	0	
6	0	0	0	0	467	508	0	0	
7	0	0	0	0	472	510	0	0	
8	0	0	0	0	478	510	0	0	
9	0	0	0	0	480	512	0	0	
10	0	0	0	0	481	512	0	0	
11	0	0	0	0	480	515	0	0	
12	0	0	0	0	483	512	0	0	
13	0	0	0	0	480	512	0	0	
14	0	0	0	0	480	508	0	0	
15	0	0	0	0	487	510	0	0	
0	0	0	0	0	481	511	0	0	
1	0	0	0	0	480	510	0	0	
2	0	0	0	0	487	512	0	0	
3	0	0	0	0	480	510	0	0	
4	0	0	0	0	476	510	0	0	
5	0	0	0	0	472	510	0	0	
6	0	0	0	0	472	508	0	0	
7	0	0	0	0	472	510	0	0	
8	0	0	0	0	463	508	0	0	
9	0	0	0	0	467	510	0	0	
10	0	0	0	0	467	510	0	0	
11	0	0	0	0	467	508	0	0	
12	0	0	0	0	463	510	0	0	
13	0	0	0	0	467	511	0	0	
14	0	0	0	0	480	511	0	0	
15	0	0	0	0	487	515	0	0	
0	0	0	0	0	487	510	0	0	
1	0	0	0	0	487	508	0	0	
2	0	0	0	0	487	508	0	0	
3	0	0	0	0	481	512	0	0	
4	0	0	0	0	480	512	0	0	
5	0	0	0	0	481	508	0	0	
6	0	0	0	0	480	511	0	0	
7	0	0	0	0	470	504	0	0	
8	0	0	0	0	463	504	0	0	
9	0	0	0	0	460	504	0	0	
10	0	0	0	0	462	504	0	0	
11	0	0	0	0	465	508	0	0	
12	0	0	0	0	467	505	0	0	
13	0	0	0	0	472	508	0	0	
14	0	0	0	0	476	510	0	0	
15	0	0	0	0	476	508	0	0	
0	0	0	0	0	480	512	0	0	
1	0	0	0	0	480	512	0	0	
2	0	0	0	0	483	515	0	0	
3	0	0	0	0	487	513	0	0	
4	0	0	0	0	483	511	0	0	
5	0	0	0	0	487	510	0	0	
6	0	0	0	0	487	510	0	0	
7	0	0	0	0	480	508	0	0	
8	0	0	0	0	481	511	0	0	
9	0	0	0	0	483	508	0	0	
10	0	0	0	0	480	505	0	0	
11	0	0	0	0	480	504	0	0	
12	0	0	0	0	476	508	0	0	
13	0	0	0	0	476	510	0	0	
14	0	0	0	0	476	504	0	0	
15	0	0	0	0	476	508	0	0	
0	0	0	0	0	472	504	0	0	
1	0	0	0	0	476	504	0	0	
2	0	0	0	0	472	508	0	0	
3	0	0	0	0	463	515	0	0	
4	0	0	0	0	463	512	0	0	
5	0	0	0	0	472	519	0	0	
6	0	0	0	0	476	519	0	0	
7	0	0	0	0	472	511	0	0	
8	0	0	0	0	473	508	0	0	
9	0	0	0	0	473	512	0	0	
10	0	0	0	0	476	512	0	0	
11	0	0	0	0	478	511	0	0	
12	0	0	0	0	480	510	0	0	
13	0	0	0	0	486	508	0	0	
14	0	0	0	0	483	508	0	0	
15	0	0	0	0	481	510	0	0	
0	0	0	0	0	480	504	0	0	
1	0	0	0	0	472	505	0	0	
2	0	0	0	0	472	508	0	0	
3	0	0	0	0	467	504	0	0	
4	0	0	0	0	460	508	0	0	
5	0	0	0	0	455	510	0	0	
6	0	0	0	0	462	512	0	0	
7	0	0	0	0	465	508	0	0	
8	0	0	0	0	472	512	0	0	
9	0	0	0	0	476	510	0	0	
10	0	0	0	0	480	508	0	0	
11	0	0	0	0	480	511	0	0	
12	0	0	0	0	487	511	0	0	
13	0	0	0	0	487	511	0	0	
14	0	0	0	0	487	510	0	0	
15	0	0	0	0	487	508	0	0	
0	0	0	0	0	487	508	0	0	
1	0	0	0	0	480	508	0	0	
2	0	0	0	0	473	508	0	0	
3	0	0	0	0	472	510	0	0	
4	0	0	0	0	460	508	0	0	
5	0	0	0	0	460	508	0	0	
6	0	0	0	0	467	508	0	0	
7	0	0	0	0	465	508	0	0	
8	0	0	0	0	472	508	0	0	
9	0	0	0	0	472	510	0	0	
10	0	0	0	0	467	512	0	0	
11	0	0	0	0	472	508	0	0	
12	0	0	0	0	472	511	0	0	
13	0	0	0	0	480	510	0	0	
14	0	0	0	0	480	510	0	0	
15	0	0	0	0	478	511	0	0	
0	0	0	0	0	481	508	0	0	
1	0	0	0	0	489	508	0	0	
2	0	0	0	0	487	508	0	0	
3	0	0	0	0	492	511	0	0	
4	0	0	0	0	481	510	0	0	
5	0	0	0	0	472	510	0	0	
6	0	0	0	0	472	508	0	0	
7	0	0	0	0	467	504	0	0	
8	0	0	0	0	460	504	0	0	
9	0	0	0	0	455	508	0	0	
10	0	0	0	0	463	508	0	0	
11	0	0	0	0	467	512	0	0	
12	0	0	0	0	463	511	0	0	
13	0	0	0	0	465	511	0	0	
14	0	0	0	0	463	511	0	0	
15	0	0	0	0	467	508	0	0	
0	0	0	0	0	472	511	0	0	
1	0	0	0	0	472	512	0	0	
2	0	0	0	0	472	511	0	0	
3	0	0	0	0	473	510	0	0	
4	0	0	0	0	472	508	0	0	
5	0	0	0	0	480	511	0	0	
6	0	0	0	0	483	512	0	0	
7	0	0	0	0	487	511	0	0	
8	0	0	0	0	486	510	0	0	
9	0	0	0	0	480	508	0	0	
10	0	0	0	0	480	511	0	0	
11	0	0	0	0	476	508	0	0	
12	0	0	0	0	465	511	0	0	
13	0	0	0	0	463	508	0	0	
14	0	0	0	0	467	504	0	0	
15	0	0	0	0	467	508	0	0	
0	0	0	0	0	472	508	0	0	
1	0	0	0	0	472	512	0	0	
2	0	0	0	0	467	513	0	0	
3	0	0	0	0	472	512	0	0	
4	0	0	0	0	472	512	0	0	
5	0	0	0	0	470	510	0	0	
6	0	0	0	0	476	515	0	0	
7	0	0	0	0	480	515	0	0	
8	0	0	0	0	483	510	0	0	
9	0	0	0	0	483	508	0	0	
10	0	0	0	0	487	510	0	0	
11	0	0	0	0	487	510	0	0	
12	0	0	0	0	486	511	0	0	
13	0	0	0	0	480	512	0	0	
14	0	0	0	0	480	511	0	0	
15	0	0	0	0	472	512	0	0	
0	0	0	0	0	472	508	0	0	
1	0	0	0	0	463	508	0	0	
2	0	0	0	0	472	508	0	0	
3	0	0	0	0	472	511	0	0	
4	0	0	0	0	472	510	0	0	
5	0	0	0	0	472	508	0	0	
6	0	0	0	0	467	510	0	0	
7	0	0	0	0	467	512	0	0	
8	0	0	0	0	472	513	0	0	
9	0	0	0	0	476	511	0	0	
10	0	0	0	0	480	510	0	0	
11	0	0	0	0	480	508	0	0	
12	0	0	0	0	483	511	0	0	
13	0	0	0	0	483	511	0	0	
14	0	0	0	0	492	510	0	0	
15	0	0	0	0	497	508	0	0	
0	0	0	0	0	496	508	0	0	
1	0	0	0	0	496	508	0	0	
2	0	0	0	0	487	511	0	0	
3	0	0	0	0	487	510	0	0	
4	0	0	0	0	487	508	0	0	
5	0	0	0	0	476	508	0	0	
6	0	0	0	0	460	505	0	0	
7	0	0	0	0	441	510	0	0	
8	0	0	0	0	444	508	0	0	
9	0	0	0	0	448	510	0	0	
10	0	0	0	0	448	511	0	0	
11	0	0	0	0	455	512	0	0	
12	0	0	0	0	463	511	0	0	
13	0	0	0	0	463	510	0	0	
14	0	0	0	0	467	508	0	0	
15	0	0	0	0	473	510	0	0	
0	0	0	0	0	480	511	0	0	
1	0	0	0	0	481	510	0	0	
2	0	0	0	0	486	510	0	0	
3	0	0	0	0	480	511	0	0	
4	0	0	0	0	481	510	0	0	
5	0	0	0	0	487	511	0	0	
6	0	0	0	0	483	512	0	0	
7	0	0	0	0	480	511	0	0	
8	0	0	0	0	480	511	0	0	
9	0	0	0	0	480	510	0	0	
10	0	0	0	0	472	508	0	0	
11	0	0	0	0	472	510	0	0	
12	0	0	0	0	472	508	0	0	
13	0	0	0	0	455	510	0	0	
14	0	0	0	0	462	510	0	0	
15	0	0	0	0	472	511	0	0	
0	0	0	0	0	478	510	0	0	
1	0	0	0	0	480	508	0	0	
2	0	0	0	0	483	508	0	0	
3	0	0	0	0	483	510	0	0	
4	0	0	0	0	483	508	0	0	
5	0	0	0	0	480	511	0	0	
6	0	0	0	0	478	510	0	0	
7	0	0	0	0	472	511	0	0	
8	0	0	0	0	472	512	0	0	
9	0	0	0	0	473	508	0	0	
10	0	0	0	0	476	510	0	0	
11	0	0	0	0	480	508	0	0	
12	0	0	0	0	476	508	0	0	
13	0	0	0	0	472	508	0	0	
14	0	0	0	0	472	508	0	0	
15	0	0	0	0	472	510	0	0	
0	0	0	0	0	473	508	0	0	
1	0	0	0	0	472	510	0	0	
2	0	0	0	0	472	510	0	0	
3	0	0	0	0	472	510	0	0	
4	0	0	0	0	472	511	0	0	
5	0	0	0	0	478	512	0	0	
6	0	0	0	0	487	510	0	0	
7	0	0	0	0	492	508	0	0	
8	0	0	0	0	487	511	0	0	
9	0	0	0	0	486	510	0	0	
10	0	0	0	0	487	512	0	0	
11	0	0	0	0	487	512	0	0	
12	0	0	0	0	487	508	0	0	
13	0	0	0	0	476	505	0	0	
14	0	0	0	0	472	510	0	0	
15	0	0	0	0	467	512	0	0	
0	0	0	0	0	462	512	0	0	
1	0	0	0	0	460	510	0	0	
2	0	0	0	0	460	510	0	0	
3	0	0	0	0	463	510	0	0	
4	0	0	0	0	463	508	0	0	
5	0	0	0	0	465	508	0	0	
6	0	0	0	0	472	508	0	0	
7	0	0	0	0	472	511	0	0	
8	0	0	0	0	480	510	0	0	
9	0	0	0	0	483	508	0	0	
10	0	0	0	0	483	511	0	0	
11	0	0	0	0	486	512	0	0	
12	0	0	0	0	480	518	0	0	
13	0	0	0	0	476	511	0	0	
14	0	0	0	0	483	510	0	0	
15	0	0	0	0	487	512	0	0	
0	0	0	0	0	487	511	0	0	
1	0	0	0	0	487	508	0	0	
2	0	0	0	0	480	504	0	0	
3	0	0	0	0	476	505	0	0	
4	0	0	0	0	472	504	0	0	
5	0	0	0	0	455	508	0	0	
6	0	0	0	0	460	511	0	0	
7	0	0	0	0	462	510	0	0	
8	0	0	0	0	462	508	0	0	
9	0	0	0	0	472	510	0	0	
10	0	0	0	0	472	511	0	0	
11	0	0	0	0	467	508	0	0	
12	0	0	0	0	472	511	0	0	
13	0	0	0	0	478	510	0	0	
14	0	0	0	0	480	510	0	0	
15	0	0	0	0	480	511	0	0	
0	0	0	0	0	480	508	0	0	
1	0	0	0	0	476	512	0	0	
2	0	0	0	0	480	508	0	0	
3	0	0	0	0	486	511	0	0	
4	0	0	0	0	487	512	0	0	
5	0	0	0	0	487	511	0	0	
6	0	0	0	0	483	510	0	0	
7	0	0	0	0	480	510	0	0	
8	0	0	0	0	478	510	0	0	
9	0	0	0	0	480	511	0	0	
10	0	0	0	0	480	512	0	0	
11	0	0	0	0	472	511	0	0	
12	0	0	0	0	472	508	0	0	
13	0	0	0	0	472	510	0	0	
14	0	0	0	0	465	510	0	0	
15	0	0	0	0	465	508	0	0	
0	0	0	0	0	465	508	0	0	
1	0	0	0	0	463	508	0	0	
2	0	0	0	0	467	504	0	0	
3	0	0	0	0	476	510	0	0	
4	0	0	0	0	480	512	0	0	
5	0	0	0	0	486	510	0	0	
6	0	0	0	0	483	511	0	0	
7	0	0	0	0	486	511	0	0	
8	0	0	0	0	487	511	0	0	
9	0	0	0	0	487	512	0	0	
10	0	0	0	0	483	508	0	0	
11	0	0	0	0	480	510	0	0	
12	0	0	0	0	476	508	0	0	
13	0	0	0	0	463	510	0	0	
14	0	0	0	0	460	508	0	0	
15	0	0	0	0	463	508	0	0	
0	0	0	0	0	463	504	0	0	
1	0	0	0	0	463	505	0	0	
2	0	0	0	0	463	504	0	0	
3	0	0	0	0	472	508	0	0	
4	0	0	0	0	476	510	0	0	
5	0	0	0	0	480	510	0	0	
6	0	0	0	0	480	510	0	0	
7	0	0	0	0	480	510	0	0	
8	0	0	0	0	483	510	0	0	
9	0	0	0	0	487	510	0	0	
10	0	0	0	0	487	511	0	0	
11	0	0	0	0	494	510	0	0	
12	0	0	0	0	487	508	0	0	
13	0	0	0	0	483	508	0	0	
14	0	0	0	0	480	510	0	0	
15	0	0	0	0	476	508	0	0	
0	0	0	0	0	472	504	0	0	
1	0	0	0	0	465	511	0	0	
2	0	0	0	0	467	510	0	0	
3	0	0	0	0	472	511	0	0	
4	0	0	0	0	462	508	0	0	
5	0	0	0	0	455	508	0	0	
6	0	0	0	0	460	510	0	0	
7	0	0	0	0	463	510	0	0	
8	0	0	0	0	472	508	0	0	
9	0	0	0	0	476	511	0	0	
10	0	0	0	0	480	508	0	0	
11	0	0	0	0	483	510	0	0	
12	0	0	0	0	481	510	0	0	
13	0	0	0	0	486	508	0	0	
14	0	0	0	0	487	511	0	0	
15	0	0	0	0	483	511	0	0	
0	0	0	0	0	480	512	0	0	
1	0	0	0	0	472	510	0	0	
2	0	0	0	0	463	508	0	0	
3	0	0	0	0	463	510	0	0	
4	0	0	0	0	463	510	0	0	
5	0	0	0	0	462	511	0	0	
6	0	0	0	0	460	508	0	0	
7	0	0	0	0	463	511	0	0	
8	0	0	0	0	463	511	0	0	
9	0	0	0	0	463	510	0	0	
10	0	0	0	0	470	508	0	0	
11	0	0	0	0	465	510	0	0	
12	0	0	0	0	472	511	0	0	
13	0	0	0	0	480	512	0	0	
14	0	0	0	0	480	511	0	0	
15	0	0	0	0	480	508	0	0	
0	0	0	0	0	480	511	0	0	
1	0	0	0	0	481	512	0	0	
2	0	0	0	0	487	513	0	0	
3	0	0	0	0	487	511	0	0	
4	0	0	0	0	487	508	0	0	
5	0	0	0	0	487	515	0	0	
6	0	0	0	0	487	511	0	0	
7	0	0	0	0	483	508	0	0	
8	0	0	0	0	480	510	0	0	
9	0	0	0	0	480	510	0	0	
10	0	0	0	0	472	510	0	0	
11	0	0	0	0	463	511	0	0	
12	0	0	0	0	455	511	0	0	
13	0	0	0	0	455	512	0	0	
14	0	0	0	0	462	508	0	0	
15	0	0	0	0	465	515	0	0	
0	0	0	0	0	476	510	0	0	
1	0	0	0	0	476	508	0	0	
2	0	0	0	0	476	511	0	0	
3	0	0	0	0	480	511	0	0	
4	0	0	0	0	480	508	0	0	
5	0	0	0	0	483	511	0	0	
6	0	0	0	0	486	511	0	0	
7	0	0	0	0	487	512	0	0	
8	0	0	0	0	487	510	0	0	
9	0	0	0	0	487	508	0	0	
10	0	0	0	0	487	508	0	0	
11	0	0	0	0	486	508	0	0	
12	0	0	0	0	476	508	0	0	
13	0	0	0	0	472	508	0	0	
14	0	0	0	0	476	505	0	0	
15	0	0	0	0	472	508	0	0	
0	0	0	0	0	465	508	0	0	
1	0	0	0	0	463	511	0	0	
2	0	0	0	0	463	512	0	0	
3	0	0	0	0	460	510	0	0	
4	0	0	0	0	455	510	0	0	
5	0	0	0	0	460	504	0	0	
6	0	0	0	0	465	508	0	0	
7	0	0	0	0	467	510	0	0	
8	0	0	0	0	472	512	0	0	
9	0	0	0	0	481	513	0	0	
10	0	0	0	0	487	511	0	0	
11	0	0	0	0	483	504	0	0	
12	0	0	0	0	487	504	0	0	
13	0	0	0	0	483	504	0	0	
14	0	0	0	0	480	508	0	0	
15	0	0	0	0	476	504	0	0	
0	0	0	0	0	472	508	0	0	
1	0	0	0	0	463	512	0	0	
2	0	0	0	0	463	515	0	0	
3	0	0	0	0	467	513	0	0	
4	0	0	0	0	463	511	0	0	
5	0	0	0	0	463	508	0	0	
6	0	0	0	0	463	510	0	0	
7	0	0	0	0	472	508	0	0	
8	0	0	0	0	463	510	0	0	
9	0	0	0	0	472	508	0	0	
10	0	0	0	0	486	510	0	0	
11	0	0	0	0	483	511	0	0	
12	0	0	0	0	487	508	0	0	
13	0	0	0	0	487	508	0	0	
14	0	0	0	0	492	511	0	0	
15	0	0	0	0	492	510	0	0	
0	0	0	0	0	487	508	0	0	
1	0	0	0	0	483	508	0	0	
2	0	0	0	0	483	510	0	0	
3	0	0	0	0	480	508	0	0	
4	0	0	0	0	472	508	0	0	
5	0	0	0	0	465	504	0	0	
6	0	0	0	0	472	505	0	0	
7	0	0	0	0	473	504	0	0	
8	0	0	0	0	472	504	0	0	
9	0	0	0	0	472	508	0	0	
10	0	0	0	0	465	508	0	0	
11	0	0	0	0	467	510	0	0	
12	0	0	0	0	472	510	0	0	
13	0	0	0	0	478	510	0	0	
14	0	0	0	0	472	511	0	0	
15	0	0	0	0	467	513	0	0	
0	0	0	0	0	472	511	0	0	
1	0	0	0	0	480	508	0	0	
2	0	0	0	0	480	511	0	0	
3	0	0	0	0	487	513	0	0	
4	0	0	0	0	489	512	0	0	
5	0	0	0	0	483	508	0	0	
6	0	0	0	0	481	508	0	0	
7	0	0	0	0	480	508	0	0	
8	0	0	0	0	472	511	0	0	
9	0	0	0	0	463	511	0	0	
10	0	0	0	0	460	512	0	0	
11	0	0	0	0	463	512	0	0	
12	0	0	0	0	463	512	0	0	
13	0	0	0	0	465	511	0	0	
14	0	0	0	0	467	511	0	0	
15	0	0	0	0	472	510	0	0	
0	0	0	0	0	473	510	0	0	
1	0	0	0	0	476	511	0	0	
2	0	0	0	0	480	510	0	0	
3	0	0	0	0	481	510	0	0	
4	0	0	0	0	483	510	0	0	
5	0	0	0	0	487	510	0	0	
6	0	0	0	0	487	508	0	0	
7	0	0	0	0	492	510	0	0	
8	0	0	0	0	487	505	0	0	
9	0	0	0	0	481	510	0	0	
10	0	0	0	0	480	510	0	0	
11	0	0	0	0	472	511	0	0	
12	0	0	0	0	465	508	0	0	
13	0	0	0	0	463	508	0	0	
14	0	0	0	0	465	510	0	0	
15	0	0	0	0	472	510	0	0	
0	0	0	0	0	467	508	0	0	
1	0	0	0	0	463	508	0	0	
2	0	0	0	0	463	508	0	0	
3	0	0	0	0	467	510	0	0	
4	0	0	0	0	472	511	0	0	
5	0	0	0	0	476	510	0	0	
6	0	0	0	0	480	511	0	0	
7	0	0	0	0	480	511	0	0	
8	0	0	0	0	483	510	0	0	
9	0	0	0	0	483	508	0	0	
10	0	0	0	0	487	510	0	0	
11	0	0	0	0	492	508	0	0	
12	0	0	0	0	487	511	0	0	
13	0	0	0	0	483	508	0	0	
14	0	0	0	0	480	508	0	0	
15	0	0	0	0	480	508	0	0	
0	0	0	0	0	476	508	0	0	
1	0	0	0	0	472	508	0	0	
2	0	0	0	0	463	513	0	0	
3	0	0	0	0	455	511	0	0	
4	0	0	0	0	448	508	0	0	
5	0	0	0	0	448	504	0	0	
6	0	0	0	0	455	504	0	0	
7	0	0	0	0	467	511	0	0	
8	0	0	0	0	472	508	0	0	
9	0	0	0	0	476	511	0	0	
10	0	0	0	0	480	515	0	0	
11	0	0	0	0	480	519	0	0	
12	0	0	0	0	483	515	0	0	
13	0	0	0	0	483	513	0	0	
14	0	0	0	0	481	510	0	0	
15	0	0	0	0	487	510	0	0	
0	0	0	0	0	487	511	0	0	
1	0	0	0	0	483	508	0	0	
2	0	0	0	0	480	504	0	0	
3	0	0	0	0	480	505	0	0	
4	0	0	0	0	480	505	0	0	
5	0	0	0	0	480	505	0	0	
6	0	0	0	0	478	505	0	0	
7	0	0	0	0	472	505	0	0	
8	0	0	0	0	462	508	0	0	
9	0	0	0	0	460	511	0	0	
10	0	0	0	0	460	512	0	0	
11	0	0	0	0	463	511	0	0	
12	0	0	0	0	467	511	0	0	
13	0	0	0	0	476	513	0	0	
14	0	0	0	0	481	515	0	0	
15	0	0	0	0	483	511	0	0	
0	0	0	0	0	487	510	0	0	
1	0	0	0	0	481	511	0	0	
2	0	0	0	0	480	510	0	0	
3	0	0	0	0	487	510	0	0	
4	0	0	0	0	487	510	0	0	
5	0	0	0	0	487	508	0	0	
6	0	0	0	0	483	508	0	0	
7	0	0	0	0	481	508	0	0	
8	0	0	0	0	480	508	0	0	
9	0	0	0	0	472	511	0	0	
10	0	0	0	0	465	512	0	0	
11	0	0	0	0	467	512	0	0	
12	0	0	0	0	463	508	0	0	
13	0	0	0	0	467	510	0	0	
14	0	0	0	0	478	512	0	0	
15	0	0	0	0	481	510	0	0	
0	0	0	0	0	480	511	0	0	
1	0	0	0	0	480	508	0	0	
2	0	0	0	0	481	511	0	0	
3	0	0	0	0	476	510	0	0	
4	0	0	0	0	467	508	0	0	
5	0	0	0	0	472	510	0	0	
6	0	0	0	0	480	511	0	0	
7	0	0	0	0	476	511	0	0	
8	0	0	0	0	480	512	0	0	
9	0	0	0	0	480	512	0	0	
10	0	0	0	0	476	508	0	0	
11	0	0	0	0	472	508	0	0	
12	0	0	0	0	467	510	0	0	
13	0	0	0	0	467	510	0	0	
14	0	0	0	0	467	508	0	0	
15	0	0	0	0	467	512	0	0	
0	0	0	0	0	467	510	0	0	
1	0	0	0	0	472	510	0	0	
2	0	0	0	0	467	510	0	0	
3	0	0	0	0	472	510	0	0	
4	0	0	0	0	472	510	0	0	
5	0	0	0	0	473	510	0	0	
6	0	0	0	0	480	511	0	0	
7	0	0	0	0	480	512	0	0	
8	0	0	0	0	483	512	0	0	
9	0	0	0	0	486	511	0	0	
10	0	0	0	0	487	511	0	0	
11	0	0	0	0	487	510	0	0	
12	0	0	0	0	487	512	0	0	
13	0	0	0	0	486	508	0	0	
14	0	0	0	0	480	504	0	0	
15	0	0	0	0	480	508	0	0	
0	0	0	0	0	480	508	0	0	
1	0	0	0	0	481	505	0	0	
2	0	0	0	0	480	512	0	0	
3	0	0	0	0	473	508	0	0	
4	0	0	0	0	472	511	0	0	
5	0	0	0	0	465	510	0	0	
6	0	0	0	0	462	510	0	0	
7	0	0	0	0	455	510	0	0	
8	0	0	0	0	454	508	0	0	
9	0	0	0	0	463	510	0	0	
10	0	0	0	0	467	511	0	0	
11	0	0	0	0	472	510	0	0	
12	0	0	0	0	476	510	0	0	
13	0	0	0	0	472	511	0	0	
14	0	0	0	0	473	511	0	0	
15	0	0	0	0	476	511	0	0	
0	0	0	0	0	476	508	0	0	
1	0	0	0	0	478	511	0	0	
2	0	0	0	0	472	510	0	0	
3	0	0	0	0	472	508	0	0	
4	0	0	0	0	467	510	0	0	
5	0	0	0	0	467	508	0	0	
6	0	0	0	0	467	510	0	0	
7	0	0	0	0	467	511	0	0	
8	0	0	0	0	472	511	0	0	
9	0	0	0	0	467	508	0	0	
10	0	0	0	0	467	510	0	0	
11	0	0	0	0	467	513	0	0	
12	0	0	0	0	472	512	0	0	
13	0	0	0	0	472	511	0	0	
14	0	0	0	0	476	511	0	0	
15	0	0	0	0	480	510	0	0	
0	0	0	0	0	481	508	0	0	
1	0	0	0	0	483	508	0	0	
2	0	0	0	0	483	511	0	0	
3	0	0	0	0	483	510	0	0	
4	0	0	0	0	483	508	0	0	
5	0	0	0	0	481	504	0	0	
6	0	0	0	0	480	508	0	0	
7	0	0	0	0	473	504	0	0	
8	0	0	0	0	472	508	0	0	
9	0	0	0	0	467	510	0	0	
10	0	0	0	0	467	508	0	0	
11	0	0	0	0	463	504	0	0	
12	0	0	0	0	463	504	0	0	
13	0	0	0	0	463	508	0	0	
14	0	0	0	0	467	511	0	0	
15	0	0	0	0	467	511	0	0	
0	0	0	0	0	472	511	0	0	
1	0	0	0	0	476	511	0	0	
2	0	0	0	0	481	512	0	0	
3	0	0	0	0	487	513	0	0	
4	0	0	0	0	480	511	0	0	
5	0	0	0	0	480	512	0	0	
6	0	0	0	0	487	510	0	0	
7	0	0	0	0	487	508	0	0	
8	0	0	0	0	483	510	0	0	
9	0	0	0	0	483	511	0	0	
10	0	0	0	0	480	504	0	0	
11	0	0	0	0	476	504	0	0	
12	0	0	0	0	472	504	0	0	
13	0	0	0	0	463	504	0	0	
14	0	0	0	0	463	504	0	0	
15	0	0	0	0	462	508	0	0	
0	0	0	0	0	460	508	0	0	
1	0	0	0	0	455	508	0	0	
2	0	0	0	0	451	510	0	0	
3	0	0	0	0	463	508	0	0	
4	0	0	0	0	463	513	0	0	
5	0	0	0	0	463	515	0	0	
6	0	0	0	0	465	515	0	0	
7	0	0	0	0	467	512	0	0	
8	0	0	0	0	472	508	0	0	
9	0	0	0	0	483	510	0	0	
10	0	0	0	0	492	511	0	0	
11	0	0	0	0	486	512	0	0	
12	0	0	0	0	480	513	0	0	
13	0	0	0	0	483	512	0	0	
14	0	0	0	0	480	515	0	0	
15	0	0	0	0	478	512	0	0	
0	0	0	0	0	480	510	0	0	
1	0	0	0	0	476	510	0	0	
2	0	0	0	0	472	513	0	0	
3	0	0	0	0	476	515	0	0	
4	0	0	0	0	476	512	0	0	
5	0	0	0	0	476	513	0	0	
6	0	0	0	0	472	512	0	0	
7	0	0	0	0	472	510	0	0	
8	0	0	0	0	476	504	0	0	
9	0	0	0	0	483	504	0	0	
10	0	0	0	0	487	508	0	0	
11	0	0	0	0	492	508	0	0	
12	0	0	0	0	487	508	0	0	
13	0	0	0	0	483	512	0	0	
14	0	0	0	0	481	510	0	0	
15	0	0	0	0	483	508	0	0	
0	0	0	0	0	480	510	0	0	
1	0	0	0	0	472	508	0	0	
2	0	0	0	0	465	508	0	0	
3	0	0	0	0	480	510	0	0	
4	0	0	0	0	483	512	0	0	
5	0	0	0	0	483	511	0	0	
6	0	0	0	0	476	504	0	0	
7	0	0	0	0	472	508	0	0	
8	0	0	0	0	463	504	0	0	
9	0	0	0	0	467	508	0	0	
10	0	0	0	0	467	508	0	0	
11	0	0	0	0	467	510	0	0	
12	0	0	0	0	470	511	0	0	
13	0	0	0	0	472	511	0	0	
14	0	0	0	0	478	511	0	0	
15	0	0	0	0	480	508	0	0	
0	0	0	0	0	480	513	0	0	
1	0	0	0	0	480	510	0	0	
2	0	0	0	0	481	508	0	0	
3	0	0	0	0	480	508	0	0	
4	0	0	0	0	467	508	0	0	
5	0	0	0	0	467	504	0	0	
6	0	0	0	0	476	508	0	0	
7	0	0	0	0	476	511	0	0	
8	0	0	0	0	480	519	0	0	
9	0	0	0	0	476	510	0	0	
10	0	0	0	0	465	508	0	0	
11	0	0	0	0	467	504	0	0	
12	0	0	0	0	465	510	0	0	
13	0	0	0	0	463	504	0	0	
14	0	0	0	0	463	508	0	0	
15	0	0	0	0	467	504	0	0	
0	0	0	0	0	472	508	0	0	
1	0	0	0	0	476	512	0	0	
2	0	0	0	0	480	511	0	0	
3	0	0	0	0	483	512	0	0	
4	0	0	0	0	492	512	0	0	
5	0	0	0	0	492	515	0	0	
6	0	0	0	0	494	515	0	0	
7	0	0	0	0	494	510	0	0	
8	0	0	0	0	492	508	0	0	
9	0	0	0	0	487	513	0	0	
10	0	0	0	0	487	512	0	0	
11	0	0	0	0	483	512	0	0	
12	0	0	0	0	472	510	0	0	
13	0	0	0	0	455	508	0	0	
14	0	0	0	0	462	511	0	0	
15	0	0	0	0	467	511	0	0	
0	0	0	0	0	465	508	0	0	
1	0	0	0	0	455	504	0	0	
2	0	0	0	0	448	504	0	0	
3	0	0	0	0	451	504	0	0	
4	0	0	0	0	462	505	0	0	
5	0	0	0	0	463	508	0	0	
6	0	0	0	0	472	510	0	0	
7	0	0	0	0	473	511	0	0	
8	0	0	0	0	478	510	0	0	
9	0	0	0	0	478	512	0	0	
10	0	0	0	0	480	512	0	0	
11	0	0	0	0	481	508	0	0	
12	0	0	0	0	480	504	0	0	
13	0	0	0	0	478	504	0	0	
14	0	0	0	0	478	508	0	0	
15	0	0	0	0	473	511	0	0	
0	0	0	0	0	472	508	0	0	
1	0	0	0	0	478	508	0	0	
2	0	0	0	0	476	510	0	0	
3	0	0	0	0	480	510	0	0	
4	0	0	0	0	487	511	0	0	
5	0	0	0	0	480	512	0	0	
6	0	0	0	0	476	508	0	0	
7	0	0	0	0	467	512	0	0	
8	0	0	0	0	472	510	0	0	
9	0	0	0	0	467	513	0	0	
10	0	0	0	0	472	512	0	0	
11	0	0	0	0	483	512	0	0	
12	0	0	0	0	487	519	0	0	
13	0	0	0	0	483	513	0	0	
14	0	0	0	0	476	513	0	0	
15	0	0	0	0	467	511	0	0	
0	0	0	0	0	472	511	0	0	
1	0	0	0	0	480	508	0	0	
2	0	0	0	0	480	511	0	0	
3	0	0	0	0	476	508	0	0	
4	0	0	0	0	472	508	0	0	
5	0	0	0	0	472	508	0	0	
6	0	0	0	0	473	508	0	0	
7	0	0	0	0	480	508	0	0	
8	0	0	0	0	480	508	0	0	
9	0	0	0	0	486	508	0	0	
10	0	0	0	0	487	508	0	0	
11	0	0	0	0	487	511	0	0	
12	0	0	0	0	487	508	0	0	
13	0	0	0	0	483	508	0	0	
14	0	0	0	0	472	510	0	0	
15	0	0	0	0	476	510	0	0	
0	0	0	0	0	481	508	0	0	
1	0	0	0	0	483	512	0	0	
2	0	0	0	0	487	512	0	0	
3	0	0	0	0	492	510	0	0	
4	0	0	0	0	480	508	0	0	
5	0	0	0	0	463	510	0	0	
6	0	0	0	0	463	513	0	0	
7	0	0	0	0	460	515	0	0	
8	0	0	0	0	448	510	0	0	
9	0	0	0	0	448	508	0	0	
10	0	0	0	0	451	508	0	0	
11	0	0	0	0	448	508	0	0	
12	0	0	0	0	449	511	0	0	
13	0	0	0	0	455	508	0	0	
14	0	0	0	0	455	511	0	0	
15	0	0	0	0	467	512	0	0	
0	0	0	0	0	472	511	0	0	
1	0	0	0	0	472	508	0	0	
2	0	0	0	0	480	505	0	0	
3	0	0	0	0	480	511	0	0	
4	0	0	0	0	472	505	0	0	
5	0	0	0	0	467	512	0	0	
6	0	0	0	0	481	510	0	0	
7	0	0	0	0	487	512	0	0	
8	0	0	0	0	487	511	0	0	
9	0	0	0	0	487	510	0	0	
10	0	0	0	0	487	508	0	0	
11	0	0	0	0	481	505	0	0	
12	0	0	0	0	480	508	0	0	
13	0	0	0	0	476	504	0	0	
14	0	0	0	0	472	505	0	0	
15	0	0	0	0	472	508	0	0	
0	0	0	0	0	472	508	0	0	
1	0	0	0	0	472	504	0	0	
2	0	0	0	0	476	510	0	0	
3	0	0	0	0	480	508	0	0	
4	0	0	0	0	480	512	0	0	
5	0	0	0	0	480	510	0	0	
6	0	0	0	0	483	510	0	0	
7	0	0	0	0	487	510	0	0	
8	0	0	0	0	487	510	0	0	
9	0	0	0	0	487	511	0	0	
10	0	0	0	0	492	512	0	0	
11	0	0	0	0	492	511	0	0	
12	0	0	0	0	492	510	0	0	
13	0	0	0	0	487	510	0	0	
14	0	0	0	0	481	508	0	0	
15	0	0	0	0	472	508	0	0	
0	0	0	0	0	460	508	0	0	
1	0	0	0	0	451	508	0	0	
2	0	0	0	0	460	512	0	0	
3	0	0	0	0	472	513	0	0	
4	0	0	0	0	472	512	0	0	
5	0	0	0	0	473	511	0	0	
6	0	0	0	0	472	504	0	0	
7	0	0	0	0	472	504	0	0	
8	0	0	0	0	472	508	0	0	
9	0	0	0	0	476	504	0	0	
10	0	0	0	0	480	508	0	0	
11	0	0	0	0	480	508	0	0	
12	0	0	0	0	483	511	0	0	
13	0	0	0	0	487	519	0	0	
14	0	0	0	0	487	515	0	0	
15	0	0	0	0	487	511	0	0	
0	0	0	0	0	483	511	0	0	
1	0	0	0	0	483	510	0	0	
2	0	0	0	0	481	505	0	0	
3	0	0	0	0	476	504	0	0	
4	0	0	0	0	472	504	0	0	
5	0	0	0	0	472	512	0	0	
6	0	0	0	0	472	519	0	0	
7	0	0	0	0	472	519	0	0	
8	0	0	0	0	472	510	0	0	
9	0	0	0	0	465	504	0	0	
10	0	0	0	0	463	502	0	0	
11	0	0	0	0	463	504	0	0	
12	0	0	0	0	465	505	0	0	
13	0	0	0	0	472	510	0	0	
14	0	0	0	0	472	511	0	0	
15	0	0	0	0	480	511	0	0	
0	0	0	0	0	480	511	0	0	
1	0	0	0	0	480	508	0	0	
2	0	0	0	0	480	504	0	0	
3	0	0	0	0	480	504	0	0	
4	0	0	0	0	481	508	0	0	
5	0	0	0	0	481	508	0	0	
6	0	0	0	0	478	508	0	0	
7	0	0	0	0	478	505	0	0	
8	0	0	0	0	476	511	0	0	
9	0	0	0	0	476	511	0	0	
10	0	0	0	0	473	510	0	0	
11	0	0	0	0	472	508	0	0	
12	0	0	0	0	472	508	0	0	
13	0	0	0	0	472	513	0	0	
14	0	0	0	0	465	512	0	0	
15	0	0	0	0	463	511	0	0	
0	0	0	0	0	467	512	0	0	
1	0	0	0	0	472	511	0	0	
2	0	0	0	0	472	511	0	0	
3	0	0	0	0	467	508	0	0	
4	0	0	0	0	476	510	0	0	
5	0	0	0	0	480	511	0	0	
6	0	0	0	0	480	510	0	0	
7	0	0	0	0	476	505	0	0	
8	0	0	0	0	480	508	0	0	
9	0	0	0	0	480	511	0	0	
10	0	0	0	0	478	511	0	0	
11	0	0	0	0	478	512	0	0	
12	0	0	0	0	476	510	0	0	
13	0	0	0	0	467	510	0	0	
14	0	0	0	0	463	510	0	0	
15	0	0	0	0	467	510	0	0	
0	0	0	0	0	472	510	0	0	
1	0	0	0	0	472	510	0	0	
2	0	0	0	0	472	504	0	0	
3	0	0	0	0	472	508	0	0	
4	0	0	0	0	472	511	0	0	
5	0	0	0	0	476	511	0	0	
6	0	0	0	0	480	508	0	0	
7	0	0	0	0	483	505	0	0	
8	0	0	0	0	487	508	0	0	
9	0	0	0	0	487	511	0	0	
10	0	0	0	0	487	511	0	0	
11	0	0	0	0	487	512	0	0	
12	0	0	0	0	487	511	0	0	
13	0	0	0	0	487	511	0	0	
14	0	0	0	0	476	508	0	0	
15	0	0	0	0	476	508	0	0	
0	0	0	0	0	467	504	0	0	
1	0	0	0	0	462	505	0	0	
2	0	0	0	0	463	511	0	0	
3	0	0	0	0	463	511	0	0	
4	0	0	0	0	463	508	0	0	
5	0	0	0	0	460	508	0	0	
6	0	0	0	0	467	508	0	0	
7	0	0	0	0	465	508	0	0	
8	0	0	0	0	470	508	0	0	
9	0	0	0	0	476	512	0	0	
10	0	0	0	0	472	513	0	0	
11	0	0	0	0	465	511	0	0	
12	0	0	0	0	463	510	0	0	
13	0	0	0	0	463	511	0	0	
14	0	0	0	0	472	512	0	0	
15	0	0	0	0	472	511	0	0	
0	0	0	0	0	467	508	0	0	
1	0	0	0	0	472	504	0	0	
2	0	0	0	0	486	499	0	0	
3	0	0	0	0	504	504	0	0	
4	0	0	0	0	494	499	0	0	
5	0	0	0	0	480	504	0	0	
6	0	0	0	0	472	504	0	0	
7	0	0	0	0	472	487	0	0	
8	0	0	0	0	472	472	0	0	
9	0	0	0	0	463	432	0	0	
10	0	0	0	0	463	399	0	0	
11	0	0	0	0	463	432	0	0	
12	0	0	0	0	463	448	0	0	
13	0	0	0	0	463	415	0	0	
14	0	0	0	0	463	423	0	0	
15	0	0	0	0	463	492	0	0	
0	0	0	0	0	472	540	0	0	
1	0	0	0	0	463	574	0	0	
2	0	0	0	0	455	608	0	0	
3	0	0	0	0	455	632	0	0	
4	0	0	0	0	460	632	0	0	
5	0	0	0	0	455	639	0	0	
6	0	0	0	0	455	547	0	0	
7	0	0	0	0	455	428	0	0	
8	0	0	0	0	463	353	0	0	
9	0	0	0	0	483	319	0	0	
10	0	0	0	0	496	344	0	0	
11	0	0	0	0	480	318	0	0	
12	0	0	0	0	462	295	0	0	
13	0	0	0	0	462	376	0	0	
14	0	0	0	0	460	371	0	0	
15	0	0	0	0	472	463	0	0	
0	0	0	0	0	499	696	0	0	
1	0	0	0	0	518	719	1	31	
2	0	0	0	0	515	734	1	39	
3	0	0	0	0	511	696	1	60	
4	0	0	0	0	496	659	1	78	
5	0	0	0	0	487	632	0	83	
6	0	0	0	0	476	614	0	110	
7	0	0	0	0	472	536	0	120	
8	0	0	0	0	448	537	0	143	
9	0	0	0	0	449	679	0	147	
10	0	0	0	0	449	736	3	167	
11	0	0	0	0	423	668	1	179	
12	0	0	0	0	403	696	0	192	
13	0	0	0	0	415	615	0	198	
14	0	0	0	0	432	624	0	216	
15	0	0	0	0	462	675	1	227	
0	0	0	0	0	487	611	0	236	
1	0	0	0	0	487	551	0	255	
2	0	0	0	0	497	504	0	268	
3	0	0	0	0	513	334	0	271	
4	0	0	0	0	502	335	0	280	
5	0	0	0	0	497	432	0	286	
6	0	0	0	0	480	476	0	287	
7	0	0	0	0	472	476	0	294	
8	0	0	0	0	472	432	0	302	
9	0	0	0	0	480	419	0	302	
10	0	0	0	0	476	419	0	316	
11	0	0	0	0	448	433	0	319	
12	0	0	0	0	451	455	0	334	
13	0	0	0	0	440	487	0	334	
14	0	0	0	0	423	583	0	352	
15	0	0	0	0	451	595	0	355	
0	0	0	0	0	455	519	1	364	
1	0	0	0	0	448	499	0	376	
2	0	0	0	0	444	504	1	384	
3	0	0	0	0	462	575	1	387	
4	0	0	0	0	492	600	31	401	
5	0	0	0	0	504	608	56	408	
6	0	0	0	0	492	551	70	408	
7	0	0	0	0	496	480	88	412	
8	0	0	0	0	518	339	97	415	
9	0	0	0	0	487	312	110	419	
10	0	0	0	0	472	423	120	430	
11	0	0	0	0	483	508	131	433	
12	0	0	0	0	496	497	142	440	
13	0	0	0	0	504	496	152	448	
14	0	0	0	0	512	460	163	448	
15	0	0	0	0	527	348	167	455	
0	0	0	0	0	519	305	166	463	
1	0	0	0	0	492	353	179	467	
2	0	0	0	0	480	497	190	472	
3	0	0	0	0	481	463	198	476	
4	0	0	0	0	480	432	207	480	
5	0	0	0	0	462	460	207	483	
6	0	0	0	0	455	494	216	487	
7	0	0	0	0	448	568	216	492	
8	0	0	0	0	454	600	216	496	
9	0	0	0	0	472	560	224	499	
10	0	0	0	0	467	540	238	504	
11	0	0	0	0	454	496	243	508	
12	0	0	0	0	448	384	248	510	
13	0	0	0	0	472	432	254	508	
14	0	0	0	0	508	529	252	510	
15	0	0	0	0	496	536	271	512	
0	0	0	0	0	492	529	275	515	
1	0	0	0	0	499	600	284	526	
2	0	0	0	0	483	668	287	526	
3	0	0	0	0	476	639	287	526	
4	0	0	0	0	465	583	287	527	
5	0	0	0	0	451	540	295	531	
6	0	0	0	0	449	499	300	536	
7	0	0	0	0	472	481	295	540	
8	0	0	0	0	494	492	295	543	
9	0	0	0	0	472	432	295	543	
10	0	0	0	0	432	412	295	547	
11	0	0	0	0	455	435	303	551	
12	0	0	0	0	480	487	304	556	
13	0	0	0	0	487	499	304	558	
14	0	0	0	0	496	515	304	560	
15	0	0	0	0	508	575	312	560	
0	0	0	0	0	499	632	312	560	
1	0	0	0	0	504	609	319	563	
2	0	0	0	0	508	590	344	568	
3	0	0	0	0	499	542	352	568	
4	0	0	0	0	524	483	352	568	
5	0	0	0	0	543	480	353	572	
6	0	0	0	0	560	512	359	575	
7	0	0	0	0	540	595	359	575	
8	0	0	0	0	481	639	353	575	
9	0	0	0	0	455	604	355	575	
10	0	0	0	0	476	560	355	575	
11	0	0	0	0	448	504	364	583	
12	0	0	0	0	396	502	376	583	
13	0	0	0	0	391	472	377	583	
14	0	0	0	0	366	455	384	588	
15	0	0	0	0	380	455	384	588	
0	0	0	0	0	399	455	384	590	
1	0	0	0	0	463	455	384	590	
2	0	0	0	0	496	460	385	588	
3	0	0	0	0	480	476	391	590	
4	0	0	0	0	455	496	398	591	
5	0	0	0	0	467	508	399	595	
6	0	0	0	0	481	496	398	600	
7	0	0	0	0	504	483	399	601	
8	0	0	0	0	499	467	403	604	
9	0	0	0	0	494	467	408	608	
10	0	0	0	0	487	487	415	608	
11	0	0	0	0	460	497	415	608	
12	0	0	0	0	440	511	415	611	
13	0	0	0	0	448	527	415	615	
14	0	0	0	0	465	542	415	615	
15	0	0	0	0	487	536	415	615	
0	0	0	0	0	463	497	419	617	
1	0	0	0	0	433	496	419	620	
2	0	0	0	0	415	492	419	622	
3	0	0	0	0	430	508	428	624	
4	0	0	0	0	451	519	432	624	
5	0	0	0	0	478	519	435	624	
6	0	0	0	0	483	504	440	624	
7	0	0	0	0	467	529	440	624	
8	0	0	0	0	463	551	444	624	
9	0	0	0	0	472	536	440	625	
10	0	0	0	0	480	512	432	625	
11	0	0	0	0	487	483	433	627	
12	0	0	0	0	504	487	440	625	
13	0	0	0	0	527	496	448	625	
14	0	0	0	0	531	504	448	625	
15	0	0	0	0	527	527	454	627	
0	0	0	0	0	527	512	455	627	
1	0	0	0	0	519	463	460	627	
2	0	0	0	0	497	480	455	627	
3	0	0	0	0	480	496	463	627	
4	0	0	0	0	463	512	463	627	
5	0	0	0	0	467	527	463	627	
6	0	0	0	0	473	536	463	627	
7	0	0	0	0	480	527	463	627	
8	0	0	0	0	472	510	463	627	
9	0	0	0	0	472	519	467	627	
10	0	0	0	0	510	524	467	627	
11	0	0	0	0	531	512	476	627	
12	0	0	0	0	496	510	481	625	
13	0	0	0	0	480	496	483	627	
14	0	0	0	0	460	472	492	625	
15	0	0	0	0	455	476	489	625	
0	0	0	0	0	483	494	487	625	
1	0	0	0	0	492	497	483	624	
2	0	0	0	0	480	487	487	625	
3	0	0	0	0	483	504	487	625	
4	0	0	0	0	480	519	492	625	
5	0	0	0	0	480	515	496	624	
6	0	0	0	0	476	519	496	624	
7	0	0	0	0	492	568	499	624	
8	0	0	0	0	487	543	497	625	
9	0	0	0	0	480	487	497	624	
10	0	0	0	0	472	448	499	625	
11	0	0	0	0	463	432	499	624	
12	0	0	0	0	467	440	496	625	
13	0	0	0	0	472	472	496	625	
14	0	0	0	0	472	560	496	625	
15	0	0	0	0	476	615	494	627	
0	0	0	0	0	472	591	487	627	
1	0	0	0	0	465	595	492	625	
2	0	0	0	0	472	611	492	627	
3	0	0	0	0	462	563	496	627	
4	0	0	0	0	451	527	497	627	
5	0	0	0	0	460	504	496	627	
6	0	0	0	0	480	472	496	625	
7	0	0	0	0	478	444	496	627	
8	0	0	0	0	472	448	496	625	
9	0	0	0	0	480	499	496	627	
10	0	0	0	0	481	504	497	627	
11	0	0	0	0	476	476	499	627	
12	0	0	0	0	472	473	499	627	
13	0	0	0	0	472	472	497	627	
14	0	0	0	0	480	487	497	627	
15	0	0	0	0	467	504	496	627	
0	0	0	0	0	440	511	499	627	
1	0	0	0	0	467	527	504	627	
2	0	0	0	0	504	536	499	627	
3	0	0	0	0	492	536	497	625	
4	0	0	0	0	487	515	496	627	
5	0	0	0	0	499	511	497	627	
6	0	0	0	0	487	460	496	627	
7	0	0	0	0	472	483	496	627	
8	0	0	0	0	480	524	496	627	
9	0	0	0	0	476	515	496	627	
10	0	0	0	0	473	497	494	625	
11	0	0	0	0	476	511	496	627	
12	0	0	0	0	472	527	497	627	
13	0	0	0	0	480	534	504	627	
14	0	0	0	0	483	519	499	627	
15	0	0	0	0	467	497	499	627	
0	0	0	0	0	467	499	499	627	
1	0	0	0	0	481	496	497	627	
2	0	0	0	0	472	480	497	627	
3	0	0	0	0	460	492	497	627	
4	0	0	0	0	448	511	496	625	
5	0	0	0	0	440	518	496	627	
6	0	0	0	0	441	519	496	627	
7	0	0	0	0	440	531	496	627	
8	0	0	0	0	448	551	496	627	
9	0	0	0	0	481	551	496	627	
10	0	0	0	0	524	511	492	627	
11	0	0	0	0	512	483	487	627	
12	0	0	0	0	487	487	487	627	
13	0	0	0	0	480	472	487	627	
14	0	0	0	0	487	449	486	625	
15	0	0	0	0	497	476	487	627	
0	0	0	0	0	524	487	486	627	
1	0	0	0	0	513	483	483	627	
2	0	0	0	0	476	496	483	627	
3	0	0	0	0	472	512	481	627	
4	0	0	0	0	478	515	480	627	
5	0	0	0	0	508	499	480	627	
6	0	0	0	0	526	527	478	625	
7	0	0	0	0	511	560	476	627	
8	0	0	0	0	463	556	476	627	
9	0	0	0	0	455	560	472	627	
10	0	0	0	0	455	536	472	627	
11	0	0	0	0	467	519	472	627	
12	0	0	0	0	480	513	472	627	
13	0	0	0	0	492	512	467	627	
14	0	0	0	0	483	504	463	625	
15	0	0	0	0	480	519	463	624	
0	0	0	0	0	480	519	460	624	
1	0	0	0	0	480	487	460	624	
2	0	0	0	0	478	483	455	624	
3	0	0	0	0	473	496	460	624	
4	0	0	0	0	472	511	455	624	
5	0	0	0	0	476	519	455	625	
6	0	0	0	0	487	512	455	624	
7	0	0	0	0	483	510	455	624	
8	0	0	0	0	476	504	451	624	
9	0	0	0	0	463	499	451	625	
10	0	0	0	0	454	504	451	624	
11	0	0	0	0	455	499	449	624	
12	0	0	0	0	460	483	448	625	
13	0	0	0	0	462	472	448	624	
14	0	0	0	0	472	480	448	624	
15	0	0	0	0	487	494	448	624	
0	0	0	0	0	497	508	448	624	
1	0	0	0	0	483	531	448	624	
2	0	0	0	0	472	556	444	624	
3	0	0	0	0	480	551	444	624	
4	0	0	0	0	476	529	444	624	
5	0	0	0	0	455	524	444	620	
6	0	0	0	0	455	519	440	622	
7	0	0	0	0	460	496	440	620	
8	0	0	0	0	463	481	435	620	
9	0	0	0	0	472	499	435	620	
10	0	0	0	0	467	513	433	620	
11	0	0	0	0	494	510	432	615	
12	0	0	0	0	508	511	432	615	
13	0	0	0	0	496	504	430	615	
14	0	0	0	0	472	508	428	611	
15	0	0	0	0	472	504	423	611	
0	0	0	0	0	472	504	419	611	
1	0	0	0	0	472	511	419	609	
2	0	0	0	0	472	496	415	609	
3	0	0	0	0	473	487	415	609	
4	0	0	0	0	480	492	414	609	
5	0	0	0	0	480	508	412	608	
6	0	0	0	0	480	508	408	608	
7	0	0	0	0	492	515	403	608	
8	0	0	0	0	487	526	399	608	
9	0	0	0	0	472	529	396	608	
10	0	0	0	0	476	529	391	608	
11	0	0	0	0	480	515	387	606	
12	0	0	0	0	478	496	385	604	
13	0	0	0	0	499	504	384	604	
14	0	0	0	0	508	511	376	604	
15	0	0	0	0	494	511	368	604	
0	0	0	0	0	478	496	366	604	
1	0	0	0	0	472	487	359	604	
2	0	0	0	0	463	476	355	604	
3	0	0	0	0	465	476	350	601	
4	0	0	0	0	480	478	348	600	
5	0	0	0	0	487	497	344	600	
6	0	0	0	0	480	499	344	600	
7	0	0	0	0	480	460	339	600	
8	0	0	0	0	480	483	335	600	
9	0	0	0	0	467	527	327	600	
10	0	0	0	0	455	508	323	600	
11	0	0	0	0	465	540	323	595	
12	0	0	0	0	472	590	319	595	
13	0	0	0	0	467	611	319	595	
14	0	0	0	0	465	595	319	595	
15	0	0	0	0	480	579	318	595	
0	0	0	0	0	499	543	312	593	
1	0	0	0	0	487	505	304	595	
2	0	0	0	0	480	487	300	595	
3	0	0	0	0	472	480	294	595	
4	0	0	0	0	473	472	291	595	
5	0	0	0	0	470	448	287	595	
6	0	0	0	0	480	467	287	595	
7	0	0	0	0	483	486	287	595	
8	0	0	0	0	476	492	287	600	
9	0	0	0	0	476	510	287	600	
10	0	0	0	0	483	527	287	600	
11	0	0	0	0	480	527	287	600	
12	0	0	0	0	463	519	284	600	
13	0	0	0	0	473	508	284	600	
14	0	0	0	0	472	499	284	600	
15	0	0	0	0	472	497	280	600	
0	0	0	0	0	463	504	280	600	
1	0	0	0	0	444	497	275	600	
2	0	0	0	0	444	496	271	600	
3	0	0	0	0	455	496	270	600	
4	0	0	0	0	470	494	268	600	
5	0	0	0	0	483	504	268	600	
6	0	0	0	0	486	519	263	600	
7	0	0	0	0	487	527	263	600	
8	0	0	0	0	480	524	255	600	
9	0	0	0	0	480	510	255	600	
10	0	0	0	0	494	492	255	600	
11	0	0	0	0	504	481	254	600	
12	0	0	0	0	487	487	254	600	
13	0	0	0	0	476	487	252	600	
14	0	0	0	0	480	502	249	600	
15	0	0	0	0	483	505	252	600	
0	0	0	0	0	472	505	248	600	
1	0	0	0	0	451	515	248	600	
2	0	0	0	0	463	513	248	600	
3	0	0	0	0	463	511	248	600	
4	0	0	0	0	455	512	243	600	
5	0	0	0	0	480	519	243	600	
6	0	0	0	0	492	542	243	600	
7	0	0	0	0	504	527	243	600	
8	0	0	0	0	504	536	240	600	
9	0	0	0	0	487	542	241	600	
10	0	0	0	0	472	526	243	600	
11	0	0	0	0	480	512	243	600	
12	0	0	0	0	481	499	243	600	
13	0	0	0	0	476	480	243	600	
14	0	0	0	0	483	481	243	600	
15	0	0	0	0	496	492	240	600	
0	0	0	0	0	483	492	240	600	
1	0	0	0	0	472	483	240	600	
2	0	0	0	0	465	463	240	600	
3	0	0	0	0	463	472	240	600	
4	0	0	0	0	462	512	240	600	
5	0	0	0	0	472	515	241	595	
6	0	0	0	0	487	508	243	593	
7	0	0	0	0	496	524	243	593	
8	0	0	0	0	496	536	243	591	
9	0	0	0	0	483	547	243	591	
10	0	0	0	0	481	558	248	591	
11	0	0	0	0	487	551	248	591	
12	0	0	0	0	487	531	246	591	
13	0	0	0	0	480	504	243	590	
14	0	0	0	0	480	499	248	591	
15	0	0	0	0	472	481	246	591	
0	0	0	0	0	462	487	241	590	
1	0	0	0	0	463	487	243	590	
2	0	0	0	0	448	487	241	590	
3	0	0	0	0	448	497	240	588	
4	0	0	0	0	472	524	240	588	
5	0	0	0	0	483	543	240	588	
6	0	0	0	0	483	527	240	588	
7	0	0	0	0	487	512	240	588	
8	0	0	0	0	492	504	240	588	
9	0	0	0	0	483	496	240	588	
10	0	0	0	0	472	496	240	583	
11	0	0	0	0	470	489	240	583	
12	0	0	0	0	465	480	240	583	
13	0	0	0	0	467	483	239	583	
14	0	0	0	0	480	496	238	583	
15	0	0	0	0	473	504	240	583	
0	0	0	0	0	472	515	240	583	
1	0	0	0	0	472	529	238	583	
2	0	0	0	0	472	527	236	583	
3	0	0	0	0	462	504	236	583	
4	0	0	0	0	463	497	236	583	
5	0	0	0	0	480	502	236	583	
6	0	0	0	0	467	508	236	583	
7	0	0	0	0	449	504	236	583	
8	0	0	0	0	444	515	236	583	
9	0	0	0	0	451	529	236	583	
10	0	0	0	0	462	519	236	583	
11	0	0	0	0	465	515	236	583	
12	0	0	0	0	472	515	236	583	
13	0	0	0	0	480	543	236	583	
14	0	0	0	0	473	543	236	583	
15	0	0	0	0	496	512	236	583	
0	0	0	0	0	497	496	231	583	
1	0	0	0	0	494	460	231	583	
2	0	0	0	0	487	435	231	583	
3	0	0	0	0	483	448	231	583	
4	0	0	0	0	487	489	231	583	
5	0	0	0	0	483	510	236	583	
6	0	0	0	0	496	504	231	583	
7	0	0	0	0	496	504	231	583	
8	0	0	0	0	483	536	231	583	
9	0	0	0	0	480	540	231	583	
10	0	0	0	0	473	547	231	583	
11	0	0	0	0	480	551	231	583	
12	0	0	0	0	483	569	236	583	
13	0	0	0	0	480	568	236	582	
14	0	0	0	0	480	531	231	583	
15	0	0	0	0	472	487	231	579	
0	0	0	0	0	476	487	231	583	
1	0	0	0	0	478	480	231	583	
2	0	0	0	0	472	487	231	583	
3	0	0	0	0	467	487	231	582	
4	0	0	0	0	463	499	231	583	
5	0	0	0	0	460	513	231	583	
6	0	0	0	0	480	519	231	583	
7	0	0	0	0	494	508	231	582	
8	0	0	0	0	483	492	231	579	
9	0	0	0	0	480	492	231	583	
10	0	0	0	0	467	502	231	583	
11	0	0	0	0	463	508	231	583	
12	0	0	0	0	467	515	231	583	
13	0	0	0	0	473	515	231	583	
14	0	0	0	0	478	513	231	583	
15	0	0	0	0	462	510	231	583	
0	0	0	0	0	460	513	231	583	
1	0	0	0	0	476	505	231	583	
2	0	0	0	0	487	508	230	583	
3	0	0	0	0	499	513	230	583	
4	0	0	0	0	494	519	230	583	
5	0	0	0	0	494	519	227	583	
6	0	0	0	0	487	504	227	582	
7	0	0	0	0	472	487	227	579	
8	0	0	0	0	481	480	227	582	
9	0	0	0	0	487	487	225	579	
10	0	0	0	0	487	510	225	579	
11	0	0	0	0	487	504	224	579	
12	0	0	0	0	481	504	224	579	
13	0	0	0	0	480	504	224	582	
14	0	0	0	0	472	512	224	579	
15	0	0	0	0	463	519	224	579	
0	0	0	0	0	462	526	222	579	
1	0	0	0	0	463	524	224	575	
2	0	0	0	0	472	531	224	575	
3	0	0	0	0	480	540	222	575	
4	0	0	0	0	487	518	222	575	
5	0	0	0	0	489	515	224	575	
6	0	0	0	0	483	512	220	575	
7	0	0	0	0	472	519	220	575	
8	0	0	0	0	462	499	220	575	
9	0	0	0	0	463	480	220	575	
10	0	0	0	0	467	460	216	579	
11	0	0	0	0	463	472	217	579	
12	0	0	0	0	462	487	217	575	
13	0	0	0	0	463	508	220	575	
14	0	0	0	0	462	540	217	575	
15	0	0	0	0	496	536	216	579	
0	0	0	0	0	513	519	216	575	
1	0	0	0	0	510	511	216	575	
2	0	0	0	0	508	499	216	575	
3	0	0	0	0	480	504	216	575	
4	0	0	0	0	463	510	216	575	
5	0	0	0	0	472	502	216	575	
6	0	0	0	0	455	504	211	575	
7	0	0	0	0	451	504	207	575	
8	0	0	0	0	448	504	207	575	
9	0	0	0	0	423	512	207	575	
10	0	0	0	0	415	519	207	575	
11	0	0	0	0	444	519	207	575	
12	0	0	0	0	481	526	207	575	
13	0	0	0	0	494	527	206	575	
14	0	0	0	0	497	515	204	575	
15	0	0	0	0	497	511	204	575	
0	0	0	0	0	496	504	198	575	
1	0	0	0	0	499	492	198	575	
2	0	0	0	0	499	480	195	575	
3	0	0	0	0	492	487	192	575	
4	0	0	0	0	473	504	192	575	
5	0	0	0	0	460	508	192	575	
6	0	0	0	0	455	508	192	575	
7	0	0	0	0	460	531	192	575	
8	0	0	0	0	480	536	188	575	
9	0	0	0	0	508	527	185	575	
10	0	0	0	0	505	511	185	575	
11	0	0	0	0	476	508	185	575	
12	0	0	0	0	455	504	184	575	
13	0	0	0	0	463	496	184	575	
14	0	0	0	0	476	487	184	575	
15	0	0	0	0	467	496	182	575	
0	0	0	0	0	463	504	179	575	
1	0	0	0	0	467	508	176	575	
2	0	0	0	0	476	511	177	575	
3	0	0	0	0	480	510	179	575	
4	0	0	0	0	478	512	176	575	
5	0	0	0	0	487	524	175	575	
6	0	0	0	0	487	524	174	575	
7	0	0	0	0	483	524	176	574	
8	0	0	0	0	494	513	174	575	
9	0	0	0	0	487	515	172	574	
10	0	0	0	0	472	508	172	575	
11	0	0	0	0	462	487	167	574	
12	0	0	0	0	455	492	167	574	
13	0	0	0	0	460	510	167	574	
14	0	0	0	0	455	497	167	572	
15	0	0	0	0	448	487	167	572	
0	0	0	0	0	448	496	167	572	
1	0	0	0	0	455	511	167	572	
2	0	0	0	0	480	518	167	572	
3	0	0	0	0	492	515	167	572	
4	0	0	0	0	504	512	167	569	
5	0	0	0	0	513	504	166	568	
6	0	0	0	0	502	504	163	568	
7	0	0	0	0	494	512	159	569	
8	0	0	0	0	492	510	159	568	
9	0	0	0	0	487	504	159	568	
10	0	0	0	0	487	504	159	568	
11	0	0	0	0	496	496	159	568	
12	0	0	0	0	504	496	159	568	
13	0	0	0	0	499	494	159	568	
14	0	0	0	0	480	512	153	568	
15	0	0	0	0	465	519	143	568	
0	0	0	0	0	463	512	147	568	
1	0	0	0	0	448	536	145	568	
2	0	0	0	0	440	536	147	568	
3	0	0	0	0	451	519	147	568	
4	0	0	0	0	444	519	147	563	
5	0	0	0	0	432	536	145	566	
6	0	0	0	0	417	526	152	563	
7	0	0	0	0	430	519	152	563	
8	0	0	0	0	455	496	147	563	
9	0	0	0	0	480	487	143	563	
10	0	0	0	0	496	483	143	563	
11	0	0	0	0	512	499	143	563	
12	0	0	0	0	519	511	143	563	
13	0	0	0	0	505	497	143	563	
14	0	0	0	0	487	499	143	563	
15	0	0	0	0	481	511	143	563	
0	0	0	0	0	492	529	143	563	
1	0	0	0	0	492	527	143	563	
2	0	0	0	0	476	511	143	563	
3	0	0	0	0	455	512	145	563	
4	0	0	0	0	441	504	143	563	
5	0	0	0	0	455	510	143	563	
6	0	0	0	0	472	497	145	563	
7	0	0	0	0	467	487	143	568	
8	0	0	0	0	455	494	143	568	
9	0	0	0	0	448	504	143	568	
10	0	0	0	0	462	508	143	568	
11	0	0	0	0	487	512	143	568	
12	0	0	0	0	515	515	143	568	
13	0	0	0	0	519	512	143	568	
14	0	0	0	0	496	508	140	568	
15	0	0	0	0	487	511	140	568	
0	0	0	0	0	492	511	135	568	
1	0	0	0	0	489	508	140	568	
2	0	0	0	0	487	511	140	568	
3	0	0	0	0	480	512	135	568	
4	0	0	0	0	480	512	131	568	
5	0	0	0	0	496	511	127	568	
6	0	0	0	0	487	508	127	568	
7	0	0	0	0	487	505	127	568	
8	0	0	0	0	496	504	127	568	
9	0	0	0	0	476	504	127	568	
10	0	0	0	0	472	504	126	568	
11	0	0	0	0	472	508	126	568	
12	0	0	0	0	467	499	127	568	
13	0	0	0	0	465	496	126	568	
14	0	0	0	0	476	499	126	568	
15	0	0	0	0	465	512	124	568	
0	0	0	0	0	455	518	126	568	
1	0	0	0	0	455	515	124	568	
2	0	0	0	0	463	513	126	568	
3	0	0	0	0	467	518	124	568	
4	0	0	0	0	472	519	124	568	
5	0	0	0	0	480	519	124	568	
6	0	0	0	0	480	513	124	568	
7	0	0	0	0	496	513	121	568	
8	0	0	0	0	511	512	120	568	
9	0	0	0	0	511	510	120	568	
10	0	0	0	0	496	504	120	568	
11	0	0	0	0	476	496	120	568	
12	0	0	0	0	472	511	120	568	
13	0	0	0	0	472	527	112	568	
14	0	0	0	0	467	519	112	568	
15	0	0	0	0	476	505	112	568	
0	0	0	0	0	472	492	112	568	
1	0	0	0	0	472	481	112	568	
2	0	0	0	0	472	480	112	568	
3	0	0	0	0	472	496	112	568	
4	0	0	0	0	476	515	112	568	
5	0	0	0	0	480	547	112	568	
6	0	0	0	0	472	543	112	568	
7	0	0	0	0	463	511	112	563	
8	0	0	0	0	472	505	112	563	
9	0	0	0	0	462	508	112	563	
10	0	0	0	0	472	508	112	563	
11	0	0	0	0	483	508	112	563	
12	0	0	0	0	480	504	112	563	
13	0	0	0	0	496	502	112	561	
14	0	0	0	0	518	499	110	561	
15	0	0	0	0	504	508	108	560	
0	0	0	0	0	487	499	108	561	
1	0	0	0	0	487	504	108	560	
2	0	0	0	0	476	508	103	560	
3	0	0	0	0	472	519	103	560	
4	0	0	0	0	483	519	103	560	
5	0	0	0	0	481	508	103	560	
6	0	0	0	0	462	499	99	560	
7	0	0	0	0	451	499	97	560	
8	0	0	0	0	448	499	96	560	
9	0	0	0	0	449	504	96	560	
10	0	0	0	0	455	511	92	558	
11	0	0	0	0	463	519	92	558	
12	0	0	0	0	463	511	92	558	
13	0	0	0	0	460	504	88	558	
14	0	0	0	0	472	504	88	558	
15	0	0	0	0	499	508	88	558	
0	0	0	0	0	499	510	83	558	
1	0	0	0	0	472	526	81	558	
2	0	0	0	0	463	536	81	556	
3	0	0	0	0	480	536	79	556	
4	0	0	0	0	487	513	79	556	
5	0	0	0	0	476	497	83	556	
6	0	0	0	0	463	487	81	556	
7	0	0	0	0	449	487	79	556	
8	0	0	0	0	444	504	76	553	
9	0	0	0	0	460	511	76	551	
10	0	0	0	0	472	512	71	551	
11	0	0	0	0	487	504	71	551	
12	0	0	0	0	497	472	71	551	
13	0	0	0	0	511	472	71	551	
14	0	0	0	0	504	470	71	551	
15	0	0	0	0	504	476	71	551	
0	0	0	0	0	499	494	70	551	
1	0	0	0	0	492	543	70	551	
2	0	0	0	0	487	568	65	551	
3	0	0	0	0	467	583	65	551	
4	0	0	0	0	462	590	63	551	
5	0	0	0	0	460	563	63	551	
6	0	0	0	0	472	515	63	551	
7	0	0	0	0	472	480	63	551	
8	0	0	0	0	463	478	63	551	
9	0	0	0	0	472	480	62	551	
10	0	0	0	0	476	492	62	551	
11	0	0	0	0	487	492	56	551	
12	0	0	0	0	496	496	57	556	
13	0	0	0	0	472	510	56	556	
14	0	0	0	0	455	510	48	556	
15	0	0	0	0	444	504	44	556	
0	0	0	0	0	433	511	33	556	
1	0	0	0	0	440	515	31	556	
2	0	0	0	0	455	511	28	556	
3	0	0	0	0	449	497	24	556	
4	0	0	0	0	451	504	24	556	
5	0	0	0	0	476	504	47	556	
6	0	0	0	0	492	496	51	556	
7	0	0	0	0	496	487	51	551	
8	0	0	0	0	483	494	54	556	
9	0	0	0	0	487	499	48	556	
10	0	0	0	0	496	504	51	556	
11	0	0	0	0	515	505	56	551	
12	0	0	0	0	519	504	51	556	
13	0	0	0	0	524	515	51	556	
14	0	0	0	0	504	519	14	556	
15	0	0	0	0	472	519	12	556	
0	0	0	0	0	465	526	15	556	
1	0	0	0	0	465	551	28	556	
2	0	0	0	0	472	543	31	556	
3	0	0	0	0	476	504	28	556	
4	0	0	0	0	483	496	31	556	
5	0	0	0	0	487	510	31	560	
6	0	0	0	0	480	519	14	560	
7	0	0	0	0	480	515	15	558	
8	0	0	0	0	467	504	12	558	
9	0	0	0	0	476	504	12	560	
10	0	0	0	0	480	504	15	560	
11	0	0	0	0	483	499	7	558	
12	0	0	0	0	480	496	7	558	
13	0	0	0	0	478	496	7	560	
14	0	0	0	0	463	496	7	560	
15	0	0	0	0	451	496	6	560	
0	0	0	0	0	455	504	7	560	
1	0	0	0	0	462	527	6	560	
2	0	0	0	0	463	526	9	560	
3	0	0	0	0	463	499	6	560	
4	0	0	0	0	470	497	6	560	
5	0	0	0	0	476	499	3	560	
6	0	0	0	0	463	496	7	560	
7	0	0	0	0	465	511	6	560	
8	0	0	0	0	463	529	7	560	
9	0	0	0	0	480	513	7	558	
10	0	0	0	0	487	511	7	558	
11	0	0	0	0	487	510	7	560	
12	0	0	0	0	487	504	6	560	
13	0	0	0	0	496	497	7	560	
14	0	0	0	0	499	512	7	560	
15	0	0	0	0	494	527	6	560	
0	0	0	0	0	476	527	7	558	
1	0	0	0	0	451	547	12	560	
2	0	0	0	0	455	542	7	560	
3	0	0	0	0	462	508	7	560	
4	0	0	0	0	455	504	7	560	
5	0	0	0	0	467	487	7	560	
6	0	0	0	0	463	451	7	560	
7	0	0	0	0	460	455	7	560	
8	0	0	0	0	467	483	7	560	
9	0	0	0	0	472	508	7	560	
10	0	0	0	0	472	512	7	560	
11	0	0	0	0	472	515	12	560	
12	0	0	0	0	480	519	12	560	
13	0	0	0	0	496	519	9	560	
14	0	0	0	0	494	508	9	560	
15	0	0	0	0	487	510	7	560	
0	0	0	0	0	496	519	7	560	
1	0	0	0	0	483	519	14	560	
2	0	0	0	0	467	519	7	560	
3	0	0	0	0	455	515	7	560	
4	0	0	0	0	451	519	7	560	
5	0	0	0	0	444	510	12	560	
6	0	0	0	0	440	508	7	560	
7	0	0	0	0	440	515	7	560	
8	0	0	0	0	448	515	7	560	
9	0	0	0	0	451	513	7	560	
10	0	0	0	0	454	504	7	560	
11	0	0	0	0	448	472	7	558	
12	0	0	0	0	463	467	7	558	
13	0	0	0	0	513	492	7	558	
14	0	0	0	0	543	515	7	558	
15	0	0	0	0	543	524	7	560	
0	0	0	0	0	519	543	7	560	
1	0	0	0	0	483	529	6	560	
2	0	0	0	0	480	527	7	560	
3	0	0	0	0	481	527	6	560	
4	0	0	0	0	481	519	6	558	
5	0	0	0	0	492	511	6	558	
6	0	0	0	0	496	504	7	558	
7	0	0	0	0	496	512	7	556	
8	0	0	0	0	480	508	3	558	
9	0	0	0	0	470	496	7	558	
10	0	0	0	0	472	492	7	558	
11	0	0	0	0	481	492	3	558	
12	0	0	0	0	492	511	3	556	
13	0	0	0	0	511	527	3	558	
14	0	0	0	0	504	515	3	556	
15	0	0	0	0	480	504	7	556	
0	0	0	0	0	463	483	3	556	
1	0	0	0	0	455	487	3	556	
2	0	0	0	0	463	497	3	556	
3	0	0	0	0	480	513	3	556	
4	0	0	0	0	487	526	3	556	
5	0	0	0	0	487	527	3	551	
6	0	0	0	0	480	519	3	551	
7	0	0	0	0	476	519	3	551	
8	0	0	0	0	465	518	3	551	
9	0	0	0	0	463	515	3	551	
10	0	0	0	0	472	515	7	550	
11	0	0	0	0	480	510	7	547	
12	0	0	0	0	478	480	3	547	
13	0	0	0	0	480	487	7	547	
14	0	0	0	0	483	492	3	547	
15	0	0	0	0	480	492	3	545	
0	0	0	0	0	481	499	7	547	
1	0	0	0	0	486	511	7	547	
2	0	0	0	0	480	515	3	547	
3	0	0	0	0	467	519	3	547	
4	0	0	0	0	455	536	3	547	
5	0	0	0	0	451	524	3	547	
6	0	0	0	0	462	512	3	547	
7	0	0	0	0	472	504	6	547	
8	0	0	0	0	476	505	3	547	
9	0	0	0	0	476	504	3	543	
10	0	0	0	0	463	505	3	543	
11	0	0	0	0	463	511	3	543	
12	0	0	0	0	472	519	3	547	
13	0	0	0	0	467	519	7	547	
14	0	0	0	0	454	513	3	547	
15	0	0	0	0	455	510	6	543	
0	0	0	0	0	472	515	7	547	
1	0	0	0	0	467	513	3	547	
2	0	0	0	0	483	504	3	547	
3	0	0	0	0	504	499	3	547	
4	0	0	0	0	511	497	3	547	
5	0	0	0	0	499	494	3	545	
6	0	0	0	0	478	496	3	545	
7	0	0	0	0	467	497	7	547	
8	0	0	0	0	472	508	6	547	
9	0	0	0	0	472	512	7	547	
10	0	0	0	0	463	496	3	547	
11	0	0	0	0	455	486	6	547	
12	0	0	0	0	451	504	7	547	
13	0	0	0	0	448	524	7	547	
14	0	0	0	0	435	529	3	547	
15	0	0	0	0	438	512	7	547	
0	0	0	0	0	451	515	3	547	
1	0	0	0	0	476	499	3	547	
2	0	0	0	0	499	487	3	547	
3	0	0	0	0	504	472	3	547	
4	0	0	0	0	494	476	3	547	
5	0	0	0	0	504	504	7	547	
6	0	0	0	0	496	519	3	547	
7	0	0	0	0	487	508	3	547	
8	0	0	0	0	487	547	3	547	
9	0	0	0	0	473	543	3	547	
10	0	0	0	0	476	524	3	547	
