# OpenSignals Text File Format. Version 1
# {"20:18:06:13:21:78": {"position": 0, "device": "bitalino_rev", "device name": "20:18:06:13:21:78", "device connection": "BTH20:18:06:13:21:78", "sampling rate": 1000, "resolution": [4, 1, 1, 1, 1, 10, 10, 10, 10], "firmware version": 1281, "comments": "", "keywords": "", "mode": 0, "sync interval": 2, "date": "2023-6-5", "time": "19:33:40.404", "channels": [1, 2, 3, 4], "sensor": ["EMGBITREV", "EMGBITREV", "RAW", "RAW"], "label": ["A1", "A2", "A3", "A4"], "column": ["nSeq", "I1", "I2", "O1", "O2", "A1", "A2", "A3", "A4"], "special": [{}, {}, {}, {}], "digital IO": [0, 0, 1, 1]}}
# EndOfHeader
0	0	0	0	0	513	510	0	0	
1	0	0	0	0	514	508	0	0	
2	0	0	0	0	513	509	0	0	
3	0	0	0	0	515	508	0	0	
4	0	0	0	0	511	506	0	0	
5	0	0	0	0	512	508	0	0	
6	0	0	0	0	511	507	0	0	
7	0	0	0	0	510	508	0	0	
8	0	0	0	0	515	506	0	0	
9	0	0	0	0	511	508	0	0	
10	0	0	0	0	510	508	0	0	
11	0	0	0	0	510	508	0	0	
12	0	0	0	0	509	507	0	0	
13	0	0	0	0	510	509	0	0	
14	0	0	0	0	510	507	0	0	
15	0	0	0	0	511	508	0	0	
0	0	0	0	0	511	508	0	0	
1	0	0	0	0	513	508	0	0	
2	0	0	0	0	511	509	0	0	
3	0	0	0	0	511	507	0	0	
4	0	0	0	0	510	508	0	0	
5	0	0	0	0	511	505	0	0	
6	0	0	0	0	513	508	0	0	
7	0	0	0	0	511	507	0	0	
8	0	0	0	0	509	508	0	0	
9	0	0	0	0	510	508	0	0	
10	0	0	0	0	509	506	0	0	
11	0	0	0	0	512	507	0	0	
12	0	0	0	0	511	509	0	0	
13	0	0	0	0	512	507	0	0	
14	0	0	0	0	512	509	0	0	
15	0	0	0	0	510	509	0	0	
0	0	0	0	0	511	507	0	0	
1	0	0	0	0	515	508	0	0	
2	0	0	0	0	511	508	0	0	
3	0	0	0	0	510	508	0	0	
4	0	0	0	0	508	508	0	0	
5	0	0	0	0	512	507	0	0	
6	0	0	0	0	512	507	0	0	
7	0	0	0	0	509	508	0	0	
8	0	0	0	0	511	507	0	0	
9	0	0	0	0	511	507	0	0	
10	0	0	0	0	511	508	0	0	
11	0	0	0	0	511	507	0	0	
12	0	0	0	0	511	509	0	0	
13	0	0	0	0	511	508	0	0	
14	0	0	0	0	510	506	0	0	
15	0	0	0	0	510	508	0	0	
0	0	0	0	0	511	505	0	0	
1	0	0	0	0	512	507	0	0	
2	0	0	0	0	510	507	0	0	
3	0	0	0	0	512	510	0	0	
4	0	0	0	0	512	508	0	0	
5	0	0	0	0	511	509	0	0	
6	0	0	0	0	511	508	0	0	
7	0	0	0	0	512	509	0	0	
8	0	0	0	0	511	510	0	0	
9	0	0	0	0	512	508	0	0	
10	0	0	0	0	512	509	0	0	
11	0	0	0	0	513	507	0	0	
12	0	0	0	0	511	507	0	0	
13	0	0	0	0	511	506	0	0	
14	0	0	0	0	511	508	0	0	
15	0	0	0	0	511	508	0	0	
0	0	0	0	0	510	508	0	0	
1	0	0	0	0	509	505	0	0	
2	0	0	0	0	510	509	0	0	
3	0	0	0	0	509	509	0	0	
4	0	0	0	0	510	510	0	0	
5	0	0	0	0	512	509	0	0	
6	0	0	0	0	510	506	0	0	
7	0	0	0	0	509	508	0	0	
8	0	0	0	0	511	507	0	0	
9	0	0	0	0	510	509	0	0	
10	0	0	0	0	510	510	0	0	
11	0	0	0	0	512	508	0	0	
12	0	0	0	0	512	507	0	0	
13	0	0	0	0	511	506	0	0	
14	0	0	0	0	512	509	0	0	
15	0	0	0	0	514	508	0	0	
0	0	0	0	0	511	508	0	0	
1	0	0	0	0	512	507	0	0	
2	0	0	0	0	511	508	0	0	
3	0	0	0	0	512	506	0	0	
4	0	0	0	0	511	508	0	0	
5	0	0	0	0	510	509	0	0	
6	0	0	0	0	512	507	0	0	
7	0	0	0	0	510	508	0	0	
8	0	0	0	0	509	507	0	0	
9	0	0	0	0	513	507	0	0	
10	0	0	0	0	511	508	0	0	
11	0	0	0	0	510	508	0	0	
12	0	0	0	0	511	509	0	0	
13	0	0	0	0	512	508	0	0	
14	0	0	0	0	511	507	0	0	
15	0	0	0	0	512	507	0	0	
0	0	0	0	0	511	508	0	0	
1	0	0	0	0	512	509	0	0	
2	0	0	0	0	510	505	0	0	
3	0	0	0	0	510	508	0	0	
4	0	0	0	0	511	509	0	0	
5	0	0	0	0	512	509	0	0	
6	0	0	0	0	510	508	0	0	
7	0	0	0	0	510	506	0	0	
8	0	0	0	0	511	508	0	0	
9	0	0	0	0	510	507	0	0	
10	0	0	0	0	509	505	0	0	
11	0	0	0	0	511	507	0	0	
12	0	0	0	0	510	508	0	0	
13	0	0	0	0	510	507	0	0	
14	0	0	0	0	510	509	0	0	
15	0	0	0	0	513	507	0	0	
0	0	0	0	0	510	509	0	0	
1	0	0	0	0	511	508	0	0	
2	0	0	0	0	510	508	0	0	
3	0	0	0	0	511	509	0	0	
4	0	0	0	0	511	508	0	0	
5	0	0	0	0	514	508	0	0	
6	0	0	0	0	512	508	0	0	
7	0	0	0	0	512	505	0	0	
8	0	0	0	0	513	508	0	0	
9	0	0	0	0	510	506	0	0	
10	0	0	0	0	510	509	0	0	
11	0	0	0	0	510	507	0	0	
12	0	0	0	0	509	510	0	0	
13	0	0	0	0	509	508	0	0	
14	0	0	0	0	511	508	0	0	
15	0	0	0	0	509	508	0	0	
0	0	0	0	0	512	509	0	0	
1	0	0	0	0	512	508	0	0	
2	0	0	0	0	510	509	0	0	
3	0	0	0	0	512	508	0	0	
4	0	0	0	0	511	510	0	0	
5	0	0	0	0	511	507	0	0	
6	0	0	0	0	511	508	0	0	
7	0	0	0	0	510	507	0	0	
8	0	0	0	0	512	507	0	0	
9	0	0	0	0	514	507	0	0	
10	0	0	0	0	513	510	0	0	
11	0	0	0	0	513	510	0	0	
12	0	0	0	0	511	509	0	0	
13	0	0	0	0	511	507	0	0	
14	0	0	0	0	513	507	0	0	
15	0	0	0	0	509	507	0	0	
0	0	0	0	0	508	509	0	0	
1	0	0	0	0	511	507	0	0	
2	0	0	0	0	511	508	0	0	
3	0	0	0	0	509	506	0	0	
4	0	0	0	0	511	509	0	0	
5	0	0	0	0	509	508	0	0	
6	0	0	0	0	510	510	0	0	
7	0	0	0	0	512	507	0	0	
8	0	0	0	0	509	507	0	0	
9	0	0	0	0	511	508	0	0	
10	0	0	0	0	511	507	0	0	
11	0	0	0	0	512	509	0	0	
12	0	0	0	0	511	506	0	0	
13	0	0	0	0	511	508	0	0	
14	0	0	0	0	512	509	0	0	
15	0	0	0	0	511	509	0	0	
0	0	0	0	0	511	506	0	0	
1	0	0	0	0	513	508	0	0	
2	0	0	0	0	512	507	0	0	
3	0	0	0	0	511	508	0	0	
4	0	0	0	0	510	508	0	0	
5	0	0	0	0	511	508	0	0	
6	0	0	0	0	510	508	0	0	
7	0	0	0	0	511	508	0	0	
8	0	0	0	0	511	507	0	0	
9	0	0	0	0	512	509	0	0	
10	0	0	0	0	510	508	0	0	
11	0	0	0	0	509	510	0	0	
12	0	0	0	0	511	508	0	0	
13	0	0	0	0	511	508	0	0	
14	0	0	0	0	511	508	0	0	
15	0	0	0	0	512	508	0	0	
0	0	0	0	0	511	506	0	0	
1	0	0	0	0	511	508	0	0	
2	0	0	0	0	513	508	0	0	
3	0	0	0	0	512	509	0	0	
4	0	0	0	0	512	508	0	0	
5	0	0	0	0	511	510	0	0	
6	0	0	0	0	513	508	0	0	
7	0	0	0	0	512	507	0	0	
8	0	0	0	0	511	508	0	0	
9	0	0	0	0	510	508	0	0	
10	0	0	0	0	511	509	0	0	
11	0	0	0	0	509	507	0	0	
12	0	0	0	0	509	508	0	0	
13	0	0	0	0	511	508	0	0	
14	0	0	0	0	511	507	0	0	
15	0	0	0	0	511	508	0	0	
0	0	0	0	0	509	507	0	0	
1	0	0	0	0	512	509	0	0	
2	0	0	0	0	512	505	0	0	
3	0	0	0	0	511	509	0	0	
4	0	0	0	0	512	509	0	0	
5	0	0	0	0	511	508	0	0	
6	0	0	0	0	508	509	0	0	
7	0	0	0	0	513	506	0	0	
8	0	0	0	0	512	508	0	0	
9	0	0	0	0	512	507	0	0	
10	0	0	0	0	513	508	0	0	
11	0	0	0	0	511	508	0	0	
12	0	0	0	0	510	509	0	0	
13	0	0	0	0	508	508	0	0	
14	0	0	0	0	511	508	0	0	
15	0	0	0	0	509	507	0	0	
0	0	0	0	0	509	508	0	0	
1	0	0	0	0	510	508	0	0	
2	0	0	0	0	508	506	0	0	
3	0	0	0	0	511	507	0	0	
4	0	0	0	0	510	508	0	0	
5	0	0	0	0	510	507	0	0	
6	0	0	0	0	511	509	0	0	
7	0	0	0	0	513	509	0	0	
8	0	0	0	0	512	508	0	0	
9	0	0	0	0	511	509	0	0	
10	0	0	0	0	511	508	0	0	
11	0	0	0	0	511	507	0	0	
12	0	0	0	0	515	509	0	0	
13	0	0	0	0	511	508	0	0	
14	0	0	0	0	510	507	0	0	
15	0	0	0	0	511	507	0	0	
0	0	0	0	0	513	508	0	0	
1	0	0	0	0	512	508	0	0	
2	0	0	0	0	511	509	0	0	
3	0	0	0	0	510	508	0	0	
4	0	0	0	0	511	507	0	0	
5	0	0	0	0	512	505	0	0	
6	0	0	0	0	511	508	0	0	
7	0	0	0	0	511	508	0	0	
8	0	0	0	0	510	507	0	0	
9	0	0	0	0	510	507	0	0	
10	0	0	0	0	512	508	0	0	
11	0	0	0	0	515	508	0	0	
12	0	0	0	0	512	508	0	0	
13	0	0	0	0	513	509	0	0	
14	0	0	0	0	512	506	0	0	
15	0	0	0	0	511	507	0	0	
0	0	0	0	0	510	508	0	0	
1	0	0	0	0	512	509	0	0	
2	0	0	0	0	512	509	0	0	
3	0	0	0	0	511	508	0	0	
4	0	0	0	0	512	509	0	0	
5	0	0	0	0	508	508	0	0	
6	0	0	0	0	510	508	0	0	
7	0	0	0	0	511	507	0	0	
8	0	0	0	0	511	509	0	0	
9	0	0	0	0	508	507	0	0	
10	0	0	0	0	508	509	0	0	
11	0	0	0	0	510	507	0	0	
12	0	0	0	0	511	507	0	0	
13	0	0	0	0	510	508	0	0	
14	0	0	0	0	511	506	0	0	
15	0	0	0	0	511	510	0	0	
0	0	0	0	0	511	508	0	0	
1	0	0	0	0	513	510	0	0	
2	0	0	0	0	515	507	0	0	
3	0	0	0	0	512	510	0	0	
4	0	0	0	0	512	508	0	0	
5	0	0	0	0	511	509	0	0	
6	0	0	0	0	511	507	0	0	
7	0	0	0	0	511	506	0	0	
8	0	0	0	0	512	507	0	0	
9	0	0	0	0	512	504	0	0	
10	0	0	0	0	511	507	0	0	
11	0	0	0	0	510	508	0	0	
12	0	0	0	0	508	507	0	0	
13	0	0	0	0	510	507	0	0	
14	0	0	0	0	511	509	0	0	
15	0	0	0	0	510	508	0	0	
0	0	0	0	0	512	509	0	0	
1	0	0	0	0	510	508	0	0	
2	0	0	0	0	509	508	0	0	
3	0	0	0	0	510	509	0	0	
4	0	0	0	0	512	509	0	0	
5	0	0	0	0	512	508	0	0	
6	0	0	0	0	511	508	0	0	
7	0	0	0	0	511	509	0	0	
8	0	0	0	0	513	508	0	0	
9	0	0	0	0	511	509	0	0	
10	0	0	0	0	511	505	0	0	
11	0	0	0	0	509	509	0	0	
12	0	0	0	0	511	511	0	0	
13	0	0	0	0	511	508	0	0	
14	0	0	0	0	511	507	0	0	
15	0	0	0	0	511	509	0	0	
0	0	0	0	0	511	508	0	0	
1	0	0	0	0	510	508	0	0	
2	0	0	0	0	510	508	0	0	
3	0	0	0	0	510	507	0	0	
4	0	0	0	0	509	507	0	0	
5	0	0	0	0	510	508	0	0	
6	0	0	0	0	511	509	0	0	
7	0	0	0	0	511	508	0	0	
8	0	0	0	0	512	508	0	0	
9	0	0	0	0	511	507	0	0	
10	0	0	0	0	512	508	0	0	
11	0	0	0	0	511	508	0	0	
12	0	0	0	0	510	508	0	0	
13	0	0	0	0	509	507	0	0	
14	0	0	0	0	511	511	0	0	
15	0	0	0	0	512	510	0	0	
0	0	0	0	0	511	510	0	0	
1	0	0	0	0	511	507	0	0	
2	0	0	0	0	510	508	0	0	
3	0	0	0	0	508	508	0	0	
4	0	0	0	0	510	508	0	0	
5	0	0	0	0	511	506	0	0	
6	0	0	0	0	511	507	0	0	
7	0	0	0	0	510	507	0	0	
8	0	0	0	0	510	509	0	0	
9	0	0	0	0	510	508	0	0	
10	0	0	0	0	512	508	0	0	
11	0	0	0	0	512	508	0	0	
12	0	0	0	0	514	509	0	0	
13	0	0	0	0	513	509	0	0	
14	0	0	0	0	514	509	0	0	
15	0	0	0	0	511	507	0	0	
0	0	0	0	0	514	510	0	0	
1	0	0	0	0	512	508	0	0	
2	0	0	0	0	512	507	0	0	
3	0	0	0	0	510	507	0	0	
4	0	0	0	0	512	508	0	0	
5	0	0	0	0	512	509	0	0	
6	0	0	0	0	511	506	0	0	
7	0	0	0	0	512	507	0	0	
8	0	0	0	0	510	506	0	0	
9	0	0	0	0	509	508	0	0	
10	0	0	0	0	511	509	0	0	
11	0	0	0	0	510	508	0	0	
12	0	0	0	0	511	507	0	0	
13	0	0	0	0	512	508	0	0	
14	0	0	0	0	514	506	0	0	
15	0	0	0	0	512	508	0	0	
0	0	0	0	0	510	508	0	0	
1	0	0	0	0	508	508	0	0	
2	0	0	0	0	511	510	0	0	
3	0	0	0	0	510	508	0	0	
4	0	0	0	0	512	508	0	0	
5	0	0	0	0	510	510	0	0	
6	0	0	0	0	509	510	0	0	
7	0	0	0	0	509	508	0	0	
8	0	0	0	0	511	508	0	0	
9	0	0	0	0	511	507	0	0	
10	0	0	0	0	511	509	0	0	
11	0	0	0	0	510	507	0	0	
12	0	0	0	0	508	509	0	0	
13	0	0	0	0	511	508	0	0	
14	0	0	0	0	509	508	0	0	
15	0	0	0	0	510	509	0	0	
0	0	0	0	0	511	508	0	0	
1	0	0	0	0	512	510	0	0	
2	0	0	0	0	511	509	0	0	
3	0	0	0	0	512	509	0	0	
4	0	0	0	0	510	506	0	0	
5	0	0	0	0	510	506	0	0	
6	0	0	0	0	509	508	0	0	
7	0	0	0	0	511	509	0	0	
8	0	0	0	0	512	507	0	0	
9	0	0	0	0	510	508	0	0	
10	0	0	0	0	512	508	0	0	
11	0	0	0	0	512	507	0	0	
12	0	0	0	0	511	506	0	0	
13	0	0	0	0	511	508	0	0	
14	0	0	0	0	512	507	0	0	
15	0	0	0	0	510	508	0	0	
0	0	0	0	0	511	508	0	0	
1	0	0	0	0	513	509	0	0	
2	0	0	0	0	510	505	0	0	
3	0	0	0	0	512	508	0	0	
4	0	0	0	0	512	508	0	0	
5	0	0	0	0	511	508	0	0	
6	0	0	0	0	513	508	0	0	
7	0	0	0	0	511	507	0	0	
8	0	0	0	0	511	507	0	0	
9	0	0	0	0	511	507	0	0	
10	0	0	0	0	512	509	0	0	
11	0	0	0	0	512	509	0	0	
12	0	0	0	0	511	508	0	0	
13	0	0	0	0	511	508	0	0	
14	0	0	0	0	511	508	0	0	
15	0	0	0	0	512	508	0	0	
0	0	0	0	0	509	507	0	0	
1	0	0	0	0	512	508	0	0	
2	0	0	0	0	508	508	0	0	
3	0	0	0	0	510	509	0	0	
4	0	0	0	0	510	508	0	0	
5	0	0	0	0	511	508	0	0	
6	0	0	0	0	511	506	0	0	
7	0	0	0	0	511	510	0	0	
8	0	0	0	0	512	510	0	0	
9	0	0	0	0	509	508	0	0	
10	0	0	0	0	511	507	0	0	
11	0	0	0	0	512	511	0	0	
12	0	0	0	0	513	510	0	0	
13	0	0	0	0	512	507	0	0	
14	0	0	0	0	513	506	0	0	
15	0	0	0	0	514	508	0	0	
0	0	0	0	0	511	510	0	0	
1	0	0	0	0	511	508	0	0	
2	0	0	0	0	509	509	0	0	
3	0	0	0	0	510	506	0	0	
4	0	0	0	0	511	506	0	0	
5	0	0	0	0	509	508	0	0	
6	0	0	0	0	510	507	0	0	
7	0	0	0	0	511	508	0	0	
8	0	0	0	0	510	508	0	0	
9	0	0	0	0	511	508	0	0	
10	0	0	0	0	513	509	0	0	
11	0	0	0	0	511	509	0	0	
12	0	0	0	0	510	508	0	0	
13	0	0	0	0	513	509	0	0	
14	0	0	0	0	511	508	0	0	
15	0	0	0	0	513	509	0	0	
0	0	0	0	0	512	510	0	0	
1	0	0	0	0	511	507	0	0	
2	0	0	0	0	509	507	0	0	
3	0	0	0	0	511	508	0	0	
4	0	0	0	0	512	508	0	0	
5	0	0	0	0	510	507	0	0	
6	0	0	0	0	511	508	0	0	
7	0	0	0	0	509	510	0	0	
8	0	0	0	0	509	508	0	0	
9	0	0	0	0	511	508	0	0	
10	0	0	0	0	512	507	0	0	
11	0	0	0	0	509	509	0	0	
12	0	0	0	0	511	510	0	0	
13	0	0	0	0	510	506	0	0	
14	0	0	0	0	513	507	0	0	
15	0	0	0	0	511	508	0	0	
0	0	0	0	0	511	510	0	0	
1	0	0	0	0	512	506	0	0	
2	0	0	0	0	511	509	0	0	
3	0	0	0	0	511	509	0	0	
4	0	0	0	0	511	508	0	0	
5	0	0	0	0	512	508	0	0	
6	0	0	0	0	511	509	0	0	
7	0	0	0	0	512	508	0	0	
8	0	0	0	0	509	507	0	0	
9	0	0	0	0	510	508	0	0	
10	0	0	0	0	509	509	0	0	
11	0	0	0	0	510	508	0	0	
12	0	0	0	0	508	508	0	0	
13	0	0	0	0	509	509	0	0	
14	0	0	0	0	510	508	0	0	
15	0	0	0	0	511	507	0	0	
0	0	0	0	0	510	508	0	0	
1	0	0	0	0	509	508	0	0	
2	0	0	0	0	509	507	0	0	
3	0	0	0	0	511	508	0	0	
4	0	0	0	0	512	509	0	0	
5	0	0	0	0	512	508	0	0	
6	0	0	0	0	513	509	0	0	
7	0	0	0	0	513	509	0	0	
8	0	0	0	0	513	507	0	0	
9	0	0	0	0	512	508	0	0	
10	0	0	0	0	512	508	0	0	
11	0	0	0	0	512	508	0	0	
12	0	0	0	0	513	507	0	0	
13	0	0	0	0	508	506	0	0	
14	0	0	0	0	509	507	0	0	
15	0	0	0	0	510	506	0	0	
0	0	0	0	0	510	508	0	0	
1	0	0	0	0	511	507	0	0	
2	0	0	0	0	512	507	0	0	
3	0	0	0	0	511	508	0	0	
4	0	0	0	0	510	507	0	0	
5	0	0	0	0	510	508	0	0	
6	0	0	0	0	509	508	0	0	
7	0	0	0	0	512	510	0	0	
8	0	0	0	0	512	507	0	0	
9	0	0	0	0	511	508	0	0	
10	0	0	0	0	511	506	0	0	
11	0	0	0	0	512	508	0	0	
12	0	0	0	0	512	508	0	0	
13	0	0	0	0	511	507	0	0	
14	0	0	0	0	511	508	0	0	
15	0	0	0	0	512	508	0	0	
0	0	0	0	0	510	509	0	0	
1	0	0	0	0	510	506	0	0	
2	0	0	0	0	510	509	0	0	
3	0	0	0	0	511	508	0	0	
4	0	0	0	0	511	507	0	0	
5	0	0	0	0	509	509	0	0	
6	0	0	0	0	511	509	0	0	
7	0	0	0	0	511	508	0	0	
8	0	0	0	0	512	507	0	0	
9	0	0	0	0	511	508	0	0	
10	0	0	0	0	513	508	0	0	
11	0	0	0	0	511	508	0	0	
12	0	0	0	0	511	510	0	0	
13	0	0	0	0	511	508	0	0	
14	0	0	0	0	512	507	0	0	
15	0	0	0	0	513	508	0	0	
0	0	0	0	0	510	508	0	0	
1	0	0	0	0	512	508	0	0	
2	0	0	0	0	511	508	0	0	
3	0	0	0	0	511	508	0	0	
4	0	0	0	0	512	508	0	0	
5	0	0	0	0	512	510	0	0	
6	0	0	0	0	511	510	0	0	
7	0	0	0	0	510	507	0	0	
8	0	0	0	0	511	508	0	0	
9	0	0	0	0	511	507	0	0	
10	0	0	0	0	510	507	0	0	
11	0	0	0	0	510	508	0	0	
12	0	0	0	0	511	509	0	0	
13	0	0	0	0	511	510	0	0	
14	0	0	0	0	511	508	0	0	
15	0	0	0	0	511	507	0	0	
0	0	0	0	0	508	507	0	0	
1	0	0	0	0	511	510	0	0	
2	0	0	0	0	512	508	0	0	
3	0	0	0	0	512	507	0	0	
4	0	0	0	0	511	509	0	0	
5	0	0	0	0	510	508	0	0	
6	0	0	0	0	511	508	0	0	
7	0	0	0	0	511	507	0	0	
8	0	0	0	0	512	506	0	0	
9	0	0	0	0	512	507	0	0	
10	0	0	0	0	512	507	0	0	
11	0	0	0	0	511	509	0	0	
12	0	0	0	0	510	509	0	0	
13	0	0	0	0	512	505	0	0	
14	0	0	0	0	511	507	0	0	
15	0	0	0	0	511	508	0	0	
0	0	0	0	0	511	508	0	0	
1	0	0	0	0	511	510	0	0	
2	0	0	0	0	511	511	0	0	
3	0	0	0	0	510	511	0	0	
4	0	0	0	0	510	508	0	0	
5	0	0	0	0	512	508	0	0	
6	0	0	0	0	510	508	0	0	
7	0	0	0	0	510	508	0	0	
8	0	0	0	0	511	508	0	0	
9	0	0	0	0	512	508	0	0	
10	0	0	0	0	511	508	0	0	
11	0	0	0	0	512	507	0	0	
12	0	0	0	0	512	506	0	0	
13	0	0	0	0	513	505	0	0	
14	0	0	0	0	513	507	0	0	
15	0	0	0	0	510	508	0	0	
0	0	0	0	0	511	507	0	0	
1	0	0	0	0	510	507	0	0	
2	0	0	0	0	512	507	0	0	
3	0	0	0	0	510	508	0	0	
4	0	0	0	0	511	508	0	0	
5	0	0	0	0	512	508	0	0	
6	0	0	0	0	510	508	0	0	
7	0	0	0	0	511	508	0	0	
8	0	0	0	0	510	510	0	0	
9	0	0	0	0	512	508	0	0	
10	0	0	0	0	511	508	0	0	
11	0	0	0	0	510	507	0	0	
12	0	0	0	0	513	509	0	0	
13	0	0	0	0	511	508	0	0	
14	0	0	0	0	512	508	0	0	
15	0	0	0	0	511	508	0	0	
0	0	0	0	0	510	508	0	0	
1	0	0	0	0	511	507	0	0	
2	0	0	0	0	511	507	0	0	
3	0	0	0	0	511	508	0	0	
4	0	0	0	0	508	509	0	0	
5	0	0	0	0	511	509	0	0	
6	0	0	0	0	510	508	0	0	
7	0	0	0	0	510	509	0	0	
8	0	0	0	0	510	507	0	0	
9	0	0	0	0	511	508	0	0	
10	0	0	0	0	509	509	0	0	
11	0	0	0	0	511	508	0	0	
12	0	0	0	0	512	509	0	0	
13	0	0	0	0	512	508	0	0	
14	0	0	0	0	512	509	0	0	
15	0	0	0	0	513	507	0	0	
0	0	0	0	0	512	507	0	0	
1	0	0	0	0	511	508	0	0	
2	0	0	0	0	511	507	0	0	
3	0	0	0	0	511	508	0	0	
4	0	0	0	0	510	507	0	0	
5	0	0	0	0	512	507	0	0	
6	0	0	0	0	513	506	0	0	
7	0	0	0	0	512	509	0	0	
8	0	0	0	0	509	506	0	0	
9	0	0	0	0	511	507	0	0	
10	0	0	0	0	511	508	0	0	
11	0	0	0	0	511	508	0	0	
12	0	0	0	0	512	509	0	0	
13	0	0	0	0	511	506	0	0	
14	0	0	0	0	509	509	0	0	
15	0	0	0	0	511	507	0	0	
0	0	0	0	0	510	509	0	0	
1	0	0	0	0	512	508	0	0	
2	0	0	0	0	512	508	0	0	
3	0	0	0	0	511	508	0	0	
4	0	0	0	0	512	510	0	0	
5	0	0	0	0	509	508	0	0	
6	0	0	0	0	511	508	0	0	
7	0	0	0	0	509	510	0	0	
8	0	0	0	0	512	506	0	0	
9	0	0	0	0	511	510	0	0	
10	0	0	0	0	511	509	0	0	
11	0	0	0	0	511	508	0	0	
12	0	0	0	0	510	509	0	0	
13	0	0	0	0	510	508	0	0	
14	0	0	0	0	511	508	0	0	
15	0	0	0	0	510	507	0	0	
0	0	0	0	0	511	509	0	0	
1	0	0	0	0	510	508	0	0	
2	0	0	0	0	510	508	0	0	
3	0	0	0	0	510	508	0	0	
4	0	0	0	0	511	507	0	0	
5	0	0	0	0	510	508	0	0	
6	0	0	0	0	510	508	0	0	
7	0	0	0	0	512	508	0	0	
8	0	0	0	0	510	508	0	0	
9	0	0	0	0	512	509	0	0	
10	0	0	0	0	512	508	0	0	
11	0	0	0	0	513	509	0	0	
12	0	0	0	0	511	509	0	0	
13	0	0	0	0	511	508	0	0	
14	0	0	0	0	512	508	0	0	
15	0	0	0	0	513	507	0	0	
0	0	0	0	0	513	509	0	0	
1	0	0	0	0	510	508	0	0	
2	0	0	0	0	511	505	0	0	
3	0	0	0	0	513	508	0	0	
4	0	0	0	0	511	506	0	0	
5	0	0	0	0	512	508	0	0	
6	0	0	0	0	510	509	0	0	
7	0	0	0	0	511	508	0	0	
8	0	0	0	0	511	508	0	0	
9	0	0	0	0	511	507	0	0	
10	0	0	0	0	512	508	0	0	
11	0	0	0	0	511	508	0	0	
12	0	0	0	0	509	508	0	0	
13	0	0	0	0	509	510	0	0	
14	0	0	0	0	511	508	0	0	
15	0	0	0	0	512	509	0	0	
0	0	0	0	0	511	508	0	0	
1	0	0	0	0	511	509	0	0	
2	0	0	0	0	511	507	0	0	
3	0	0	0	0	510	506	0	0	
4	0	0	0	0	511	509	0	0	
5	0	0	0	0	511	507	0	0	
6	0	0	0	0	511	508	0	0	
7	0	0	0	0	510	508	0	0	
8	0	0	0	0	513	508	0	0	
9	0	0	0	0	510	508	0	0	
10	0	0	0	0	511	508	0	0	
11	0	0	0	0	511	508	0	0	
12	0	0	0	0	510	507	0	0	
13	0	0	0	0	511	510	0	0	
14	0	0	0	0	511	510	0	0	
15	0	0	0	0	513	508	0	0	
0	0	0	0	0	512	508	0	0	
1	0	0	0	0	510	509	0	0	
2	0	0	0	0	511	506	0	0	
3	0	0	0	0	512	508	0	0	
4	0	0	0	0	512	508	0	0	
5	0	0	0	0	510	508	0	0	
6	0	0	0	0	510	508	0	0	
7	0	0	0	0	511	507	0	0	
8	0	0	0	0	511	508	0	0	
9	0	0	0	0	512	508	0	0	
10	0	0	0	0	512	506	0	0	
11	0	0	0	0	510	507	0	0	
12	0	0	0	0	508	508	0	0	
13	0	0	0	0	510	509	0	0	
14	0	0	0	0	512	509	0	0	
15	0	0	0	0	511	509	0	0	
0	0	0	0	0	511	507	0	0	
1	0	0	0	0	512	508	0	0	
2	0	0	0	0	511	509	0	0	
3	0	0	0	0	513	510	0	0	
4	0	0	0	0	512	508	0	0	
5	0	0	0	0	510	508	0	0	
6	0	0	0	0	509	508	0	0	
7	0	0	0	0	511	507	0	0	
8	0	0	0	0	511	508	0	0	
9	0	0	0	0	511	508	0	0	
10	0	0	0	0	510	507	0	0	
11	0	0	0	0	512	507	0	0	
12	0	0	0	0	511	509	0	0	
13	0	0	0	0	511	511	0	0	
14	0	0	0	0	513	509	0	0	
15	0	0	0	0	510	508	0	0	
0	0	0	0	0	511	507	0	0	
1	0	0	0	0	509	508	0	0	
2	0	0	0	0	509	509	0	0	
3	0	0	0	0	510	509	0	0	
4	0	0	0	0	511	508	0	0	
5	0	0	0	0	512	508	0	0	
6	0	0	0	0	512	508	0	0	
7	0	0	0	0	513	508	0	0	
8	0	0	0	0	513	507	0	0	
9	0	0	0	0	512	508	0	0	
10	0	0	0	0	512	508	0	0	
11	0	0	0	0	513	508	0	0	
12	0	0	0	0	510	505	0	0	
13	0	0	0	0	512	508	0	0	
14	0	0	0	0	511	509	0	0	
15	0	0	0	0	512	508	0	0	
0	0	0	0	0	512	508	0	0	
1	0	0	0	0	509	507	0	0	
2	0	0	0	0	510	508	0	0	
3	0	0	0	0	510	509	0	0	
4	0	0	0	0	510	507	0	0	
5	0	0	0	0	512	508	0	0	
6	0	0	0	0	510	510	0	0	
7	0	0	0	0	513	507	0	0	
8	0	0	0	0	512	510	0	0	
9	0	0	0	0	512	509	0	0	
10	0	0	0	0	512	508	0	0	
11	0	0	0	0	511	507	0	0	
12	0	0	0	0	510	508	0	0	
13	0	0	0	0	509	509	0	0	
14	0	0	0	0	512	508	0	0	
15	0	0	0	0	511	508	0	0	
0	0	0	0	0	511	509	0	0	
1	0	0	0	0	510	505	0	0	
2	0	0	0	0	510	505	0	0	
3	0	0	0	0	511	508	0	0	
4	0	0	0	0	511	508	0	0	
5	0	0	0	0	512	510	0	0	
6	0	0	0	0	511	507	0	0	
7	0	0	0	0	512	510	0	0	
8	0	0	0	0	510	508	0	0	
9	0	0	0	0	512	508	0	0	
10	0	0	0	0	511	508	0	0	
11	0	0	0	0	511	508	0	0	
12	0	0	0	0	509	508	0	0	
13	0	0	0	0	513	509	0	0	
14	0	0	0	0	512	507	0	0	
15	0	0	0	0	511	509	0	0	
0	0	0	0	0	512	508	0	0	
1	0	0	0	0	511	509	0	0	
2	0	0	0	0	512	507	0	0	
3	0	0	0	0	512	509	0	0	
4	0	0	0	0	510	508	0	0	
5	0	0	0	0	510	508	0	0	
6	0	0	0	0	511	508	0	0	
7	0	0	0	0	511	508	0	0	
8	0	0	0	0	509	508	0	0	
9	0	0	0	0	510	507	0	0	
10	0	0	0	0	510	507	0	0	
11	0	0	0	0	510	509	0	0	
12	0	0	0	0	511	506	0	0	
13	0	0	0	0	511	507	0	0	
14	0	0	0	0	510	508	0	0	
15	0	0	0	0	511	509	0	0	
0	0	0	0	0	510	510	0	0	
1	0	0	0	0	511	509	0	0	
2	0	0	0	0	510	508	0	0	
3	0	0	0	0	512	508	0	0	
4	0	0	0	0	510	510	0	0	
5	0	0	0	0	512	510	0	0	
6	0	0	0	0	514	509	0	0	
7	0	0	0	0	512	508	0	0	
8	0	0	0	0	513	508	0	0	
9	0	0	0	0	512	506	0	0	
10	0	0	0	0	510	508	0	0	
11	0	0	0	0	510	508	0	0	
12	0	0	0	0	512	508	0	0	
13	0	0	0	0	510	508	0	0	
14	0	0	0	0	511	508	0	0	
15	0	0	0	0	512	507	0	0	
0	0	0	0	0	510	506	0	0	
1	0	0	0	0	510	508	0	0	
2	0	0	0	0	511	509	0	0	
3	0	0	0	0	511	510	0	0	
4	0	0	0	0	511	510	0	0	
5	0	0	0	0	510	508	0	0	
6	0	0	0	0	512	506	0	0	
7	0	0	0	0	511	509	0	0	
8	0	0	0	0	513	506	0	0	
9	0	0	0	0	511	510	0	0	
10	0	0	0	0	511	510	0	0	
11	0	0	0	0	510	507	0	0	
12	0	0	0	0	509	509	0	0	
13	0	0	0	0	509	505	0	0	
14	0	0	0	0	512	506	0	0	
15	0	0	0	0	513	507	0	0	
0	0	0	0	0	511	507	0	0	
1	0	0	0	0	511	508	0	0	
2	0	0	0	0	510	507	0	0	
3	0	0	0	0	508	506	0	0	
4	0	0	0	0	510	508	0	0	
5	0	0	0	0	511	508	0	0	
6	0	0	0	0	511	508	0	0	
7	0	0	0	0	510	507	0	0	
8	0	0	0	0	510	508	0	0	
9	0	0	0	0	511	508	0	0	
10	0	0	0	0	511	510	0	0	
11	0	0	0	0	512	509	0	0	
12	0	0	0	0	511	508	0	0	
13	0	0	0	0	512	509	0	0	
14	0	0	0	0	511	508	0	0	
15	0	0	0	0	511	508	0	0	
0	0	0	0	0	514	507	0	0	
1	0	0	0	0	512	506	0	0	
2	0	0	0	0	511	508	0	0	
3	0	0	0	0	513	508	0	0	
4	0	0	0	0	510	509	0	0	
5	0	0	0	0	512	507	0	0	
6	0	0	0	0	511	507	0	0	
7	0	0	0	0	510	510	0	0	
8	0	0	0	0	511	509	0	0	
9	0	0	0	0	510	508	0	0	
10	0	0	0	0	512	510	0	0	
11	0	0	0	0	510	508	0	0	
12	0	0	0	0	510	507	0	0	
13	0	0	0	0	512	508	0	0	
14	0	0	0	0	511	508	0	0	
15	0	0	0	0	511	508	0	0	
0	0	0	0	0	510	508	0	0	
1	0	0	0	0	511	508	0	0	
2	0	0	0	0	512	508	0	0	
3	0	0	0	0	511	507	0	0	
4	0	0	0	0	512	506	0	0	
5	0	0	0	0	510	505	0	0	
6	0	0	0	0	512	507	0	0	
7	0	0	0	0	511	509	0	0	
8	0	0	0	0	509	509	0	0	
9	0	0	0	0	513	506	0	0	
10	0	0	0	0	511	509	0	0	
11	0	0	0	0	510	508	0	0	
12	0	0	0	0	511	509	0	0	
13	0	0	0	0	510	508	0	0	
14	0	0	0	0	509	508	0	0	
15	0	0	0	0	513	509	0	0	
0	0	0	0	0	511	508	0	0	
1	0	0	0	0	512	507	0	0	
2	0	0	0	0	511	507	0	0	
3	0	0	0	0	509	508	0	0	
4	0	0	0	0	511	508	0	0	
5	0	0	0	0	511	508	0	0	
6	0	0	0	0	513	507	0	0	
7	0	0	0	0	511	509	0	0	
8	0	0	0	0	511	508	0	0	
9	0	0	0	0	511	507	0	0	
10	0	0	0	0	510	507	0	0	
11	0	0	0	0	511	508	0	0	
12	0	0	0	0	511	509	0	0	
13	0	0	0	0	508	506	0	0	
14	0	0	0	0	508	509	0	0	
15	0	0	0	0	511	508	0	0	
0	0	0	0	0	512	506	0	0	
1	0	0	0	0	512	509	0	0	
2	0	0	0	0	511	510	0	0	
3	0	0	0	0	511	508	0	0	
4	0	0	0	0	514	510	0	0	
5	0	0	0	0	509	508	0	0	
6	0	0	0	0	511	508	0	0	
7	0	0	0	0	509	508	0	0	
8	0	0	0	0	511	509	0	0	
9	0	0	0	0	510	508	0	0	
10	0	0	0	0	513	510	0	0	
11	0	0	0	0	511	509	0	0	
12	0	0	0	0	511	508	0	0	
13	0	0	0	0	511	509	0	0	
14	0	0	0	0	511	506	0	0	
15	0	0	0	0	512	507	0	0	
0	0	0	0	0	510	507	0	0	
1	0	0	0	0	511	505	0	0	
2	0	0	0	0	510	508	0	0	
3	0	0	0	0	511	508	0	0	
4	0	0	0	0	509	508	0	0	
5	0	0	0	0	511	509	0	0	
6	0	0	0	0	511	509	0	0	
7	0	0	0	0	510	508	0	0	
8	0	0	0	0	513	507	0	0	
9	0	0	0	0	511	508	0	0	
10	0	0	0	0	511	508	0	0	
11	0	0	0	0	511	506	0	0	
12	0	0	0	0	511	508	0	0	
13	0	0	0	0	510	508	0	0	
14	0	0	0	0	512	508	0	0	
15	0	0	0	0	512	508	0	0	
0	0	0	0	0	510	508	0	0	
1	0	0	0	0	511	507	0	0	
2	0	0	0	0	512	507	0	0	
3	0	0	0	0	510	509	0	0	
4	0	0	0	0	509	507	0	0	
5	0	0	0	0	510	507	0	0	
6	0	0	0	0	511	508	0	0	
7	0	0	0	0	512	508	0	0	
8	0	0	0	0	509	507	0	0	
9	0	0	0	0	511	508	0	0	
10	0	0	0	0	511	510	0	0	
11	0	0	0	0	511	510	0	0	
12	0	0	0	0	510	508	0	0	
13	0	0	0	0	511	508	0	0	
14	0	0	0	0	513	509	0	0	
15	0	0	0	0	512	509	0	0	
0	0	0	0	0	514	508	0	0	
1	0	0	0	0	511	508	0	0	
2	0	0	0	0	512	507	0	0	
3	0	0	0	0	513	509	0	0	
4	0	0	0	0	510	508	0	0	
5	0	0	0	0	512	508	0	0	
6	0	0	0	0	510	506	0	0	
7	0	0	0	0	512	508	0	0	
8	0	0	0	0	510	509	0	0	
9	0	0	0	0	509	506	0	0	
10	0	0	0	0	510	509	0	0	
11	0	0	0	0	512	508	0	0	
12	0	0	0	0	511	507	0	0	
13	0	0	0	0	508	507	0	0	
14	0	0	0	0	511	509	0	0	
15	0	0	0	0	509	510	0	0	
0	0	0	0	0	511	507	0	0	
1	0	0	0	0	511	509	0	0	
2	0	0	0	0	510	509	0	0	
3	0	0	0	0	511	507	0	0	
4	0	0	0	0	512	507	0	0	
5	0	0	0	0	512	509	0	0	
6	0	0	0	0	511	508	0	0	
7	0	0	0	0	510	508	0	0	
8	0	0	0	0	513	507	0	0	
9	0	0	0	0	512	508	0	0	
10	0	0	0	0	511	509	0	0	
11	0	0	0	0	511	506	0	0	
12	0	0	0	0	512	509	0	0	
13	0	0	0	0	512	507	0	0	
14	0	0	0	0	510	508	0	0	
15	0	0	0	0	511	508	0	0	
0	0	0	0	0	510	508	0	0	
1	0	0	0	0	509	508	0	0	
2	0	0	0	0	509	508	0	0	
3	0	0	0	0	510	509	0	0	
4	0	0	0	0	510	508	0	0	
5	0	0	0	0	512	508	0	0	
6	0	0	0	0	512	506	0	0	
7	0	0	0	0	512	509	0	0	
8	0	0	0	0	511	509	0	0	
9	0	0	0	0	512	506	0	0	
10	0	0	0	0	512	507	0	0	
11	0	0	0	0	513	508	0	0	
12	0	0	0	0	510	508	0	0	
13	0	0	0	0	511	505	0	0	
14	0	0	0	0	511	508	0	0	
15	0	0	0	0	510	507	0	0	
0	0	0	0	0	511	507	0	0	
1	0	0	0	0	508	508	0	0	
2	0	0	0	0	508	509	0	0	
3	0	0	0	0	511	510	0	0	
4	0	0	0	0	509	507	0	0	
5	0	0	0	0	511	509	0	0	
6	0	0	0	0	511	509	0	0	
7	0	0	0	0	511	507	0	0	
8	0	0	0	0	510	508	0	0	
9	0	0	0	0	512	508	0	0	
10	0	0	0	0	512	510	0	0	
11	0	0	0	0	512	507	0	0	
12	0	0	0	0	511	507	0	0	
13	0	0	0	0	511	510	0	0	
14	0	0	0	0	511	508	0	0	
15	0	0	0	0	512	506	0	0	
0	0	0	0	0	514	507	0	0	
1	0	0	0	0	514	507	0	0	
2	0	0	0	0	511	506	0	0	
3	0	0	0	0	511	506	0	0	
4	0	0	0	0	511	510	0	0	
5	0	0	0	0	509	508	0	0	
6	0	0	0	0	511	507	0	0	
7	0	0	0	0	509	508	0	0	
8	0	0	0	0	509	508	0	0	
9	0	0	0	0	510	509	0	0	
10	0	0	0	0	510	508	0	0	
11	0	0	0	0	510	508	0	0	
12	0	0	0	0	510	508	0	0	
13	0	0	0	0	512	509	0	0	
14	0	0	0	0	513	507	0	0	
15	0	0	0	0	513	508	0	0	
0	0	0	0	0	514	508	0	0	
1	0	0	0	0	512	507	0	0	
2	0	0	0	0	511	508	0	0	
3	0	0	0	0	511	508	0	0	
4	0	0	0	0	513	508	0	0	
5	0	0	0	0	510	509	0	0	
6	0	0	0	0	510	507	0	0	
7	0	0	0	0	510	508	0	0	
8	0	0	0	0	509	507	0	0	
9	0	0	0	0	509	506	0	0	
10	0	0	0	0	508	509	0	0	
11	0	0	0	0	509	508	0	0	
12	0	0	0	0	511	507	0	0	
13	0	0	0	0	510	507	0	0	
14	0	0	0	0	510	511	0	0	
15	0	0	0	0	511	508	0	0	
0	0	0	0	0	512	510	0	0	
1	0	0	0	0	511	509	0	0	
2	0	0	0	0	513	509	0	0	
3	0	0	0	0	511	509	0	0	
4	0	0	0	0	511	508	0	0	
5	0	0	0	0	513	507	0	0	
6	0	0	0	0	513	508	0	0	
7	0	0	0	0	512	507	0	0	
8	0	0	0	0	511	508	0	0	
9	0	0	0	0	511	507	0	0	
10	0	0	0	0	510	507	0	0	
11	0	0	0	0	510	507	0	0	
12	0	0	0	0	510	509	0	0	
13	0	0	0	0	511	508	0	0	
14	0	0	0	0	510	507	0	0	
15	0	0	0	0	511	506	0	0	
0	0	0	0	0	512	509	0	0	
1	0	0	0	0	511	507	0	0	
2	0	0	0	0	511	509	0	0	
3	0	0	0	0	510	509	0	0	
4	0	0	0	0	511	506	0	0	
5	0	0	0	0	508	508	0	0	
6	0	0	0	0	510	507	0	0	
7	0	0	0	0	509	508	0	0	
8	0	0	0	0	511	509	0	0	
9	0	0	0	0	513	508	0	0	
10	0	0	0	0	511	508	0	0	
11	0	0	0	0	515	507	0	0	
12	0	0	0	0	512	507	0	0	
13	0	0	0	0	510	510	0	0	
14	0	0	0	0	511	508	0	0	
15	0	0	0	0	510	508	0	0	
0	0	0	0	0	510	506	0	0	
1	0	0	0	0	510	508	0	0	
2	0	0	0	0	510	507	0	0	
3	0	0	0	0	511	508	0	0	
4	0	0	0	0	511	509	0	0	
5	0	0	0	0	512	508	0	0	
6	0	0	0	0	511	508	0	0	
7	0	0	0	0	510	506	0	0	
8	0	0	0	0	509	509	0	0	
9	0	0	0	0	511	507	0	0	
10	0	0	0	0	511	508	0	0	
11	0	0	0	0	510	508	0	0	
12	0	0	0	0	510	508	0	0	
13	0	0	0	0	512	508	0	0	
14	0	0	0	0	512	508	0	0	
15	0	0	0	0	511	508	0	0	
0	0	0	0	0	512	508	0	0	
1	0	0	0	0	511	509	0	0	
2	0	0	0	0	512	508	0	0	
3	0	0	0	0	511	508	0	0	
4	0	0	0	0	511	509	0	0	
5	0	0	0	0	510	508	0	0	
6	0	0	0	0	510	508	0	0	
7	0	0	0	0	511	508	0	0	
8	0	0	0	0	511	508	0	0	
9	0	0	0	0	511	509	0	0	
10	0	0	0	0	510	508	0	0	
11	0	0	0	0	511	506	0	0	
12	0	0	0	0	512	508	0	0	
13	0	0	0	0	512	508	0	0	
14	0	0	0	0	511	509	0	0	
15	0	0	0	0	512	509	0	0	
0	0	0	0	0	511	507	0	0	
1	0	0	0	0	513	507	0	0	
2	0	0	0	0	512	508	0	0	
3	0	0	0	0	511	507	0	0	
4	0	0	0	0	510	508	0	0	
5	0	0	0	0	511	507	0	0	
6	0	0	0	0	512	508	0	0	
7	0	0	0	0	511	507	0	0	
8	0	0	0	0	511	507	0	0	
9	0	0	0	0	510	506	0	0	
10	0	0	0	0	510	509	0	0	
11	0	0	0	0	510	509	0	0	
12	0	0	0	0	512	510	0	0	
13	0	0	0	0	509	509	0	0	
14	0	0	0	0	510	508	0	0	
15	0	0	0	0	510	507	0	0	
0	0	0	0	0	510	508	0	0	
1	0	0	0	0	514	509	0	0	
2	0	0	0	0	511	508	0	0	
3	0	0	0	0	511	506	0	0	
4	0	0	0	0	509	509	0	0	
5	0	0	0	0	510	509	0	0	
6	0	0	0	0	511	509	0	0	
7	0	0	0	0	512	508	0	0	
8	0	0	0	0	512	507	0	0	
9	0	0	0	0	512	509	0	0	
10	0	0	0	0	512	508	0	0	
11	0	0	0	0	511	508	0	0	
12	0	0	0	0	511	507	0	0	
13	0	0	0	0	511	508	0	0	
14	0	0	0	0	510	507	0	0	
15	0	0	0	0	510	508	0	0	
0	0	0	0	0	511	507	0	0	
1	0	0	0	0	510	506	0	0	
2	0	0	0	0	511	507	0	0	
3	0	0	0	0	511	508	0	0	
4	0	0	0	0	510	508	0	0	
5	0	0	0	0	511	508	0	0	
6	0	0	0	0	512	506	0	0	
7	0	0	0	0	510	509	0	0	
8	0	0	0	0	512	508	0	0	
9	0	0	0	0	513	507	0	0	
10	0	0	0	0	511	509	0	0	
11	0	0	0	0	513	508	0	0	
12	0	0	0	0	512	508	0	0	
13	0	0	0	0	511	507	0	0	
14	0	0	0	0	512	508	0	0	
15	0	0	0	0	511	507	0	0	
0	0	0	0	0	511	508	0	0	
1	0	0	0	0	510	508	0	0	
2	0	0	0	0	509	508	0	0	
3	0	0	0	0	511	509	0	0	
4	0	0	0	0	511	510	0	0	
5	0	0	0	0	509	507	0	0	
6	0	0	0	0	510	507	0	0	
7	0	0	0	0	511	507	0	0	
8	0	0	0	0	510	508	0	0	
9	0	0	0	0	512	504	0	0	
10	0	0	0	0	511	508	0	0	
11	0	0	0	0	512	509	0	0	
12	0	0	0	0	513	508	0	0	
13	0	0	0	0	511	508	0	0	
14	0	0	0	0	511	507	0	0	
15	0	0	0	0	513	508	0	0	
0	0	0	0	0	511	505	0	0	
1	0	0	0	0	511	508	0	0	
2	0	0	0	0	511	508	0	0	
3	0	0	0	0	511	507	0	0	
4	0	0	0	0	511	508	0	0	
5	0	0	0	0	510	509	0	0	
6	0	0	0	0	512	510	0	0	
7	0	0	0	0	511	510	0	0	
8	0	0	0	0	511	507	0	0	
9	0	0	0	0	511	508	0	0	
10	0	0	0	0	511	508	0	0	
11	0	0	0	0	509	508	0	0	
12	0	0	0	0	510	508	0	0	
13	0	0	0	0	512	508	0	0	
14	0	0	0	0	511	508	0	0	
15	0	0	0	0	511	507	0	0	
0	0	0	0	0	512	509	0	0	
1	0	0	0	0	510	508	0	0	
2	0	0	0	0	511	508	0	0	
3	0	0	0	0	512	507	0	0	
4	0	0	0	0	512	505	0	0	
5	0	0	0	0	513	507	0	0	
6	0	0	0	0	512	508	0	0	
7	0	0	0	0	512	508	0	0	
8	0	0	0	0	511	508	0	0	
9	0	0	0	0	510	509	0	0	
10	0	0	0	0	509	510	0	0	
11	0	0	0	0	511	507	0	0	
12	0	0	0	0	510	509	0	0	
13	0	0	0	0	510	510	0	0	
14	0	0	0	0	511	509	0	0	
15	0	0	0	0	512	507	0	0	
0	0	0	0	0	510	508	0	0	
1	0	0	0	0	511	508	0	0	
2	0	0	0	0	512	509	0	0	
3	0	0	0	0	512	508	0	0	
4	0	0	0	0	509	507	0	0	
5	0	0	0	0	511	509	0	0	
6	0	0	0	0	512	508	0	0	
7	0	0	0	0	512	509	0	0	
8	0	0	0	0	512	508	0	0	
9	0	0	0	0	511	508	0	0	
10	0	0	0	0	514	509	0	0	
11	0	0	0	0	511	506	0	0	
12	0	0	0	0	511	507	0	0	
13	0	0	0	0	512	507	0	0	
14	0	0	0	0	511	507	0	0	
15	0	0	0	0	511	508	0	0	
0	0	0	0	0	508	507	0	0	
1	0	0	0	0	510	507	0	0	
2	0	0	0	0	509	507	0	0	
3	0	0	0	0	511	510	0	0	
4	0	0	0	0	511	507	0	0	
5	0	0	0	0	512	510	0	0	
6	0	0	0	0	511	509	0	0	
7	0	0	0	0	513	508	0	0	
8	0	0	0	0	512	507	0	0	
9	0	0	0	0	512	510	0	0	
10	0	0	0	0	511	507	0	0	
11	0	0	0	0	511	508	0	0	
12	0	0	0	0	513	506	0	0	
13	0	0	0	0	512	507	0	0	
14	0	0	0	0	514	507	0	0	
15	0	0	0	0	511	510	0	0	
0	0	0	0	0	510	508	0	0	
1	0	0	0	0	511	508	0	0	
2	0	0	0	0	511	509	0	0	
3	0	0	0	0	510	509	0	0	
4	0	0	0	0	510	508	0	0	
5	0	0	0	0	508	508	0	0	
6	0	0	0	0	510	509	0	0	
7	0	0	0	0	510	508	0	0	
8	0	0	0	0	511	507	0	0	
9	0	0	0	0	510	508	0	0	
10	0	0	0	0	511	509	0	0	
11	0	0	0	0	512	508	0	0	
12	0	0	0	0	511	508	0	0	
13	0	0	0	0	512	508	0	0	
14	0	0	0	0	512	507	0	0	
15	0	0	0	0	512	508	0	0	
0	0	0	0	0	510	508	0	0	
1	0	0	0	0	513	506	0	0	
2	0	0	0	0	512	509	0	0	
3	0	0	0	0	511	508	0	0	
4	0	0	0	0	510	509	0	0	
5	0	0	0	0	510	509	0	0	
6	0	0	0	0	512	508	0	0	
7	0	0	0	0	511	508	0	0	
8	0	0	0	0	511	508	0	0	
9	0	0	0	0	510	507	0	0	
10	0	0	0	0	509	507	0	0	
11	0	0	0	0	512	508	0	0	
12	0	0	0	0	511	511	0	0	
13	0	0	0	0	512	509	0	0	
14	0	0	0	0	510	507	0	0	
15	0	0	0	0	512	508	0	0	
0	0	0	0	0	512	510	0	0	
1	0	0	0	0	511	506	0	0	
2	0	0	0	0	512	507	0	0	
3	0	0	0	0	513	507	0	0	
4	0	0	0	0	512	508	0	0	
5	0	0	0	0	511	510	0	0	
6	0	0	0	0	509	507	0	0	
7	0	0	0	0	513	507	0	0	
8	0	0	0	0	511	508	0	0	
9	0	0	0	0	508	507	0	0	
10	0	0	0	0	509	507	0	0	
11	0	0	0	0	510	507	0	0	
12	0	0	0	0	511	509	0	0	
13	0	0	0	0	510	508	0	0	
14	0	0	0	0	510	509	0	0	
15	0	0	0	0	508	508	0	0	
0	0	0	0	0	511	510	0	0	
1	0	0	0	0	512	509	0	0	
2	0	0	0	0	511	508	0	0	
3	0	0	0	0	512	509	0	0	
4	0	0	0	0	513	508	0	0	
5	0	0	0	0	511	508	0	0	
6	0	0	0	0	511	509	0	0	
7	0	0	0	0	511	509	0	0	
8	0	0	0	0	511	508	0	0	
9	0	0	0	0	511	507	0	0	
10	0	0	0	0	511	508	0	0	
11	0	0	0	0	512	507	0	0	
12	0	0	0	0	511	507	0	0	
13	0	0	0	0	512	507	0	0	
14	0	0	0	0	510	508	0	0	
15	0	0	0	0	511	507	0	0	
0	0	0	0	0	509	508	0	0	
1	0	0	0	0	509	507	0	0	
2	0	0	0	0	511	508	0	0	
3	0	0	0	0	511	507	0	0	
4	0	0	0	0	510	509	0	0	
5	0	0	0	0	512	509	0	0	
6	0	0	0	0	512	508	0	0	
7	0	0	0	0	512	509	0	0	
8	0	0	0	0	511	507	0	0	
9	0	0	0	0	510	508	0	0	
10	0	0	0	0	511	506	0	0	
11	0	0	0	0	511	506	0	0	
12	0	0	0	0	511	506	0	0	
13	0	0	0	0	511	507	0	0	
14	0	0	0	0	512	508	0	0	
15	0	0	0	0	511	508	0	0	
0	0	0	0	0	512	508	0	0	
1	0	0	0	0	513	509	0	0	
2	0	0	0	0	510	507	0	0	
3	0	0	0	0	510	510	0	0	
4	0	0	0	0	511	510	0	0	
5	0	0	0	0	509	508	0	0	
6	0	0	0	0	511	509	0	0	
7	0	0	0	0	510	507	0	0	
8	0	0	0	0	511	508	0	0	
9	0	0	0	0	511	505	0	0	
10	0	0	0	0	513	510	0	0	
11	0	0	0	0	510	508	0	0	
12	0	0	0	0	510	508	0	0	
13	0	0	0	0	511	507	0	0	
14	0	0	0	0	510	508	0	0	
15	0	0	0	0	512	510	0	0	
0	0	0	0	0	510	508	0	0	
1	0	0	0	0	511	506	0	0	
2	0	0	0	0	513	507	0	0	
3	0	0	0	0	511	507	0	0	
4	0	0	0	0	511	507	0	0	
5	0	0	0	0	512	506	0	0	
6	0	0	0	0	512	508	0	0	
7	0	0	0	0	510	508	0	0	
8	0	0	0	0	510	508	0	0	
9	0	0	0	0	510	507	0	0	
10	0	0	0	0	510	508	0	0	
11	0	0	0	0	510	509	0	0	
12	0	0	0	0	510	509	0	0	
13	0	0	0	0	511	509	0	0	
14	0	0	0	0	510	508	0	0	
15	0	0	0	0	511	509	0	0	
0	0	0	0	0	513	508	0	0	
1	0	0	0	0	511	506	0	0	
2	0	0	0	0	511	508	0	0	
3	0	0	0	0	510	507	0	0	
4	0	0	0	0	512	509	0	0	
5	0	0	0	0	512	507	0	0	
6	0	0	0	0	513	508	0	0	
7	0	0	0	0	512	508	0	0	
8	0	0	0	0	510	508	0	0	
9	0	0	0	0	512	506	0	0	
10	0	0	0	0	511	510	0	0	
11	0	0	0	0	512	508	0	0	
12	0	0	0	0	511	506	0	0	
13	0	0	0	0	509	506	0	0	
14	0	0	0	0	511	507	0	0	
15	0	0	0	0	512	507	0	0	
0	0	0	0	0	510	509	0	0	
1	0	0	0	0	511	510	0	0	
2	0	0	0	0	511	508	0	0	
3	0	0	0	0	512	508	0	0	
4	0	0	0	0	511	508	0	0	
5	0	0	0	0	512	508	0	0	
6	0	0	0	0	510	509	0	0	
7	0	0	0	0	511	509	0	0	
8	0	0	0	0	509	508	0	0	
9	0	0	0	0	510	508	0	0	
10	0	0	0	0	510	508	0	0	
11	0	0	0	0	509	508	0	0	
12	0	0	0	0	510	506	0	0	
13	0	0	0	0	511	507	0	0	
14	0	0	0	0	511	508	0	0	
15	0	0	0	0	512	508	0	0	
0	0	0	0	0	511	510	0	0	
1	0	0	0	0	510	508	0	0	
2	0	0	0	0	512	509	0	0	
3	0	0	0	0	511	508	0	0	
4	0	0	0	0	510	508	0	0	
5	0	0	0	0	511	507	0	0	
6	0	0	0	0	508	508	0	0	
7	0	0	0	0	511	508	0	0	
8	0	0	0	0	511	510	0	0	
9	0	0	0	0	513	508	0	0	
10	0	0	0	0	512	506	0	0	
11	0	0	0	0	512	507	0	0	
12	0	0	0	0	511	507	0	0	
13	0	0	0	0	511	507	0	0	
14	0	0	0	0	512	508	0	0	
15	0	0	0	0	513	508	0	0	
0	0	0	0	0	511	508	0	0	
1	0	0	0	0	512	507	0	0	
2	0	0	0	0	510	509	0	0	
3	0	0	0	0	511	509	0	0	
4	0	0	0	0	510	509	0	0	
5	0	0	0	0	509	507	0	0	
6	0	0	0	0	510	508	0	0	
7	0	0	0	0	512	510	0	0	
8	0	0	0	0	512	509	0	0	
9	0	0	0	0	511	508	0	0	
10	0	0	0	0	511	506	0	0	
11	0	0	0	0	513	506	0	0	
12	0	0	0	0	511	510	0	0	
13	0	0	0	0	512	505	0	0	
14	0	0	0	0	511	506	0	0	
15	0	0	0	0	511	509	0	0	
0	0	0	0	0	512	509	0	0	
1	0	0	0	0	512	508	0	0	
2	0	0	0	0	511	508	0	0	
3	0	0	0	0	512	506	0	0	
4	0	0	0	0	513	508	0	0	
5	0	0	0	0	511	508	0	0	
6	0	0	0	0	511	508	0	0	
7	0	0	0	0	512	509	0	0	
8	0	0	0	0	511	507	0	0	
9	0	0	0	0	509	507	0	0	
10	0	0	0	0	509	507	0	0	
11	0	0	0	0	511	508	0	0	
12	0	0	0	0	512	510	0	0	
13	0	0	0	0	510	509	0	0	
14	0	0	0	0	510	508	0	0	
15	0	0	0	0	512	510	0	0	
0	0	0	0	0	509	507	0	0	
1	0	0	0	0	511	507	0	0	
2	0	0	0	0	512	510	0	0	
3	0	0	0	0	511	507	0	0	
4	0	0	0	0	512	506	0	0	
5	0	0	0	0	511	506	0	0	
6	0	0	0	0	511	508	0	0	
7	0	0	0	0	511	510	0	0	
8	0	0	0	0	512	509	0	0	
9	0	0	0	0	511	508	0	0	
10	0	0	0	0	510	507	0	0	
11	0	0	0	0	510	506	0	0	
12	0	0	0	0	511	509	0	0	
13	0	0	0	0	511	508	0	0	
14	0	0	0	0	510	509	0	0	
15	0	0	0	0	511	507	0	0	
0	0	0	0	0	508	507	0	0	
1	0	0	0	0	510	509	0	0	
2	0	0	0	0	512	509	0	0	
3	0	0	0	0	511	510	0	0	
4	0	0	0	0	511	508	0	0	
5	0	0	0	0	512	507	0	0	
6	0	0	0	0	512	508	0	0	
7	0	0	0	0	512	511	0	0	
8	0	0	0	0	511	508	0	0	
9	0	0	0	0	511	507	0	0	
10	0	0	0	0	511	508	0	0	
11	0	0	0	0	511	507	0	0	
12	0	0	0	0	511	509	0	0	
13	0	0	0	0	512	506	0	0	
14	0	0	0	0	510	508	0	0	
15	0	0	0	0	512	508	0	0	
0	0	0	0	0	511	509	0	0	
1	0	0	0	0	512	509	0	0	
2	0	0	0	0	511	508	0	0	
3	0	0	0	0	511	507	0	0	
4	0	0	0	0	512	508	0	0	
5	0	0	0	0	512	507	0	0	
6	0	0	0	0	513	508	0	0	
7	0	0	0	0	511	506	0	0	
8	0	0	0	0	510	509	0	0	
9	0	0	0	0	512	510	0	0	
10	0	0	0	0	511	508	0	0	
11	0	0	0	0	511	507	0	0	
12	0	0	0	0	510	508	0	0	
13	0	0	0	0	512	509	0	0	
14	0	0	0	0	512	507	0	0	
15	0	0	0	0	512	508	0	0	
0	0	0	0	0	508	509	0	0	
1	0	0	0	0	511	510	0	0	
2	0	0	0	0	512	507	0	0	
3	0	0	0	0	511	506	0	0	
4	0	0	0	0	511	506	0	0	
5	0	0	0	0	511	506	0	0	
6	0	0	0	0	508	508	0	0	
7	0	0	0	0	510	507	0	0	
8	0	0	0	0	511	507	0	0	
9	0	0	0	0	511	509	0	0	
10	0	0	0	0	509	508	0	0	
11	0	0	0	0	510	508	0	0	
12	0	0	0	0	512	508	0	0	
13	0	0	0	0	511	510	0	0	
14	0	0	0	0	512	508	0	0	
15	0	0	0	0	511	510	0	0	
0	0	0	0	0	513	506	0	0	
1	0	0	0	0	512	507	0	0	
2	0	0	0	0	512	507	0	0	
3	0	0	0	0	511	510	0	0	
4	0	0	0	0	513	510	0	0	
5	0	0	0	0	509	507	0	0	
6	0	0	0	0	510	507	0	0	
7	0	0	0	0	510	508	0	0	
8	0	0	0	0	511	508	0	0	
9	0	0	0	0	511	509	0	0	
10	0	0	0	0	510	509	0	0	
11	0	0	0	0	511	508	0	0	
12	0	0	0	0	512	508	0	0	
13	0	0	0	0	512	508	0	0	
14	0	0	0	0	510	506	0	0	
15	0	0	0	0	510	509	0	0	
0	0	0	0	0	511	507	0	0	
1	0	0	0	0	512	509	0	0	
2	0	0	0	0	512	508	0	0	
3	0	0	0	0	511	509	0	0	
4	0	0	0	0	512	508	0	0	
5	0	0	0	0	511	507	0	0	
6	0	0	0	0	512	509	0	0	
7	0	0	0	0	513	508	0	0	
8	0	0	0	0	510	506	0	0	
9	0	0	0	0	511	509	0	0	
10	0	0	0	0	513	508	0	0	
11	0	0	0	0	510	507	0	0	
12	0	0	0	0	511	508	0	0	
13	0	0	0	0	511	508	0	0	
14	0	0	0	0	510	507	0	0	
15	0	0	0	0	512	507	0	0	
0	0	0	0	0	510	509	0	0	
1	0	0	0	0	510	507	0	0	
2	0	0	0	0	511	508	0	0	
3	0	0	0	0	514	508	0	0	
4	0	0	0	0	512	510	0	0	
5	0	0	0	0	510	510	0	0	
6	0	0	0	0	511	509	0	0	
7	0	0	0	0	512	507	0	0	
8	0	0	0	0	512	506	0	0	
9	0	0	0	0	510	508	0	0	
10	0	0	0	0	511	507	0	0	
11	0	0	0	0	509	508	0	0	
12	0	0	0	0	511	508	0	0	
13	0	0	0	0	511	507	0	0	
14	0	0	0	0	511	507	0	0	
15	0	0	0	0	509	508	0	0	
0	0	0	0	0	511	508	0	0	
1	0	0	0	0	508	508	0	0	
2	0	0	0	0	509	509	0	0	
3	0	0	0	0	512	508	0	0	
4	0	0	0	0	513	510	0	0	
5	0	0	0	0	511	507	0	0	
6	0	0	0	0	512	505	0	0	
7	0	0	0	0	512	509	0	0	
8	0	0	0	0	512	507	0	0	
9	0	0	0	0	513	509	0	0	
10	0	0	0	0	511	509	0	0	
11	0	0	0	0	513	508	0	0	
12	0	0	0	0	512	507	0	0	
13	0	0	0	0	509	508	0	0	
14	0	0	0	0	512	507	0	0	
15	0	0	0	0	511	508	0	0	
0	0	0	0	0	507	508	0	0	
1	0	0	0	0	511	510	0	0	
2	0	0	0	0	512	509	0	0	
3	0	0	0	0	510	506	0	0	
4	0	0	0	0	511	508	0	0	
5	0	0	0	0	509	506	0	0	
6	0	0	0	0	510	508	0	0	
7	0	0	0	0	511	508	0	0	
8	0	0	0	0	510	508	0	0	
9	0	0	0	0	511	507	0	0	
10	0	0	0	0	512	508	0	0	
11	0	0	0	0	514	508	0	0	
12	0	0	0	0	511	509	0	0	
13	0	0	0	0	510	510	0	0	
14	0	0	0	0	514	508	0	0	
15	0	0	0	0	510	506	0	0	
0	0	0	0	0	512	509	0	0	
1	0	0	0	0	511	507	0	0	
2	0	0	0	0	511	508	0	0	
3	0	0	0	0	511	508	0	0	
4	0	0	0	0	511	508	0	0	
5	0	0	0	0	510	507	0	0	
6	0	0	0	0	510	507	0	0	
7	0	0	0	0	511	507	0	0	
8	0	0	0	0	511	508	0	0	
9	0	0	0	0	509	508	0	0	
10	0	0	0	0	510	509	0	0	
11	0	0	0	0	511	508	0	0	
12	0	0	0	0	509	507	0	0	
13	0	0	0	0	509	508	0	0	
14	0	0	0	0	512	508	0	0	
15	0	0	0	0	512	507	0	0	
0	0	0	0	0	512	509	0	0	
1	0	0	0	0	511	509	0	0	
2	0	0	0	0	511	507	0	0	
3	0	0	0	0	512	507	0	0	
4	0	0	0	0	510	507	0	0	
5	0	0	0	0	512	506	0	0	
6	0	0	0	0	511	508	0	0	
7	0	0	0	0	511	511	0	0	
8	0	0	0	0	509	506	0	0	
9	0	0	0	0	511	510	0	0	
10	0	0	0	0	511	508	0	0	
11	0	0	0	0	511	509	0	0	
12	0	0	0	0	512	508	0	0	
13	0	0	0	0	510	508	0	0	
14	0	0	0	0	512	507	0	0	
15	0	0	0	0	513	509	0	0	
0	0	0	0	0	512	508	0	0	
1	0	0	0	0	511	508	0	0	
2	0	0	0	0	512	509	0	0	
3	0	0	0	0	510	509	0	0	
4	0	0	0	0	510	510	0	0	
5	0	0	0	0	512	508	0	0	
6	0	0	0	0	511	506	0	0	
7	0	0	0	0	512	508	0	0	
8	0	0	0	0	513	507	0	0	
9	0	0	0	0	514	507	0	0	
10	0	0	0	0	510	509	0	0	
11	0	0	0	0	510	507	0	0	
12	0	0	0	0	508	506	0	0	
13	0	0	0	0	509	507	0	0	
14	0	0	0	0	510	508	0	0	
15	0	0	0	0	510	508	0	0	
0	0	0	0	0	510	508	0	0	
1	0	0	0	0	512	507	0	0	
2	0	0	0	0	511	508	0	0	
3	0	0	0	0	511	508	0	0	
4	0	0	0	0	512	507	0	0	
5	0	0	0	0	511	508	0	0	
6	0	0	0	0	511	508	0	0	
7	0	0	0	0	510	505	0	0	
8	0	0	0	0	512	507	0	0	
9	0	0	0	0	512	508	0	0	
10	0	0	0	0	511	507	0	0	
11	0	0	0	0	513	509	0	0	
12	0	0	0	0	512	507	0	0	
13	0	0	0	0	511	510	0	0	
14	0	0	0	0	511	508	0	0	
15	0	0	0	0	512	508	0	0	
0	0	0	0	0	512	507	0	0	
1	0	0	0	0	511	507	0	0	
2	0	0	0	0	510	508	0	0	
3	0	0	0	0	509	505	0	0	
4	0	0	0	0	509	508	0	0	
5	0	0	0	0	509	509	0	0	
6	0	0	0	0	510	508	0	0	
7	0	0	0	0	512	508	0	0	
8	0	0	0	0	510	509	0	0	
9	0	0	0	0	511	510	0	0	
10	0	0	0	0	510	508	0	0	
11	0	0	0	0	511	507	0	0	
12	0	0	0	0	510	507	0	0	
13	0	0	0	0	511	508	0	0	
14	0	0	0	0	510	509	0	0	
15	0	0	0	0	515	509	0	0	
0	0	0	0	0	512	508	0	0	
1	0	0	0	0	512	507	0	0	
2	0	0	0	0	510	507	0	0	
3	0	0	0	0	510	507	0	0	
4	0	0	0	0	511	505	0	0	
5	0	0	0	0	510	508	0	0	
6	0	0	0	0	511	508	0	0	
7	0	0	0	0	512	507	0	0	
8	0	0	0	0	511	507	0	0	
9	0	0	0	0	512	509	0	0	
10	0	0	0	0	512	510	0	0	
11	0	0	0	0	511	508	0	0	
12	0	0	0	0	513	508	0	0	
13	0	0	0	0	512	507	0	0	
14	0	0	0	0	511	507	0	0	
15	0	0	0	0	513	508	0	0	
0	0	0	0	0	512	507	0	0	
1	0	0	0	0	511	508	0	0	
2	0	0	0	0	510	508	0	0	
3	0	0	0	0	510	507	0	0	
4	0	0	0	0	512	507	0	0	
5	0	0	0	0	510	508	0	0	
6	0	0	0	0	511	507	0	0	
7	0	0	0	0	510	509	0	0	
8	0	0	0	0	509	507	0	0	
9	0	0	0	0	511	509	0	0	
10	0	0	0	0	509	510	0	0	
11	0	0	0	0	510	508	0	0	
12	0	0	0	0	510	508	0	0	
13	0	0	0	0	511	507	0	0	
14	0	0	0	0	512	508	0	0	
15	0	0	0	0	511	507	0	0	
0	0	0	0	0	510	507	0	0	
1	0	0	0	0	512	508	0	0	
2	0	0	0	0	512	508	0	0	
3	0	0	0	0	511	509	0	0	
4	0	0	0	0	514	508	0	0	
5	0	0	0	0	511	508	0	0	
6	0	0	0	0	511	506	0	0	
7	0	0	0	0	510	508	0	0	
8	0	0	0	0	513	509	0	0	
9	0	0	0	0	514	505	0	0	
10	0	0	0	0	510	508	0	0	
11	0	0	0	0	511	508	0	0	
12	0	0	0	0	508	508	0	0	
13	0	0	0	0	512	506	0	0	
14	0	0	0	0	509	507	0	0	
15	0	0	0	0	512	509	0	0	
0	0	0	0	0	511	508	0	0	
1	0	0	0	0	510	508	0	0	
2	0	0	0	0	512	510	0	0	
3	0	0	0	0	509	509	0	0	
4	0	0	0	0	511	510	0	0	
5	0	0	0	0	511	508	0	0	
6	0	0	0	0	512	508	0	0	
7	0	0	0	0	510	507	0	0	
8	0	0	0	0	511	507	0	0	
9	0	0	0	0	512	508	0	0	
10	0	0	0	0	512	509	0	0	
11	0	0	0	0	513	507	0	0	
12	0	0	0	0	512	508	0	0	
13	0	0	0	0	513	507	0	0	
14	0	0	0	0	511	508	0	0	
15	0	0	0	0	511	508	0	0	
0	0	0	0	0	510	510	0	0	
1	0	0	0	0	510	508	0	0	
2	0	0	0	0	509	508	0	0	
3	0	0	0	0	508	507	0	0	
4	0	0	0	0	509	507	0	0	
5	0	0	0	0	512	508	0	0	
6	0	0	0	0	511	508	0	0	
7	0	0	0	0	513	508	0	0	
8	0	0	0	0	512	506	0	0	
9	0	0	0	0	512	511	0	0	
10	0	0	0	0	513	507	0	0	
11	0	0	0	0	511	507	0	0	
12	0	0	0	0	513	508	0	0	
13	0	0	0	0	512	510	0	0	
14	0	0	0	0	509	509	0	0	
15	0	0	0	0	511	510	0	0	
0	0	0	0	0	509	508	0	0	
1	0	0	0	0	511	508	0	0	
2	0	0	0	0	511	507	0	0	
3	0	0	0	0	511	509	0	0	
4	0	0	0	0	511	508	0	0	
5	0	0	0	0	512	510	0	0	
6	0	0	0	0	511	508	0	0	
7	0	0	0	0	508	508	0	0	
8	0	0	0	0	510	507	0	0	
9	0	0	0	0	508	507	0	0	
10	0	0	0	0	510	508	0	0	
11	0	0	0	0	508	508	0	0	
12	0	0	0	0	511	507	0	0	
13	0	0	0	0	511	508	0	0	
14	0	0	0	0	512	508	0	0	
15	0	0	0	0	514	509	0	0	
0	0	0	0	0	511	508	0	0	
1	0	0	0	0	513	507	0	0	
2	0	0	0	0	511	509	0	0	
3	0	0	0	0	511	507	0	0	
4	0	0	0	0	510	508	0	0	
5	0	0	0	0	509	508	0	0	
6	0	0	0	0	513	508	0	0	
7	0	0	0	0	512	508	0	0	
8	0	0	0	0	513	505	0	0	
9	0	0	0	0	509	508	0	0	
10	0	0	0	0	512	509	0	0	
11	0	0	0	0	509	510	0	0	
12	0	0	0	0	509	508	0	0	
13	0	0	0	0	510	508	0	0	
14	0	0	0	0	512	507	0	0	
15	0	0	0	0	510	508	0	0	
0	0	0	0	0	511	508	0	0	
1	0	0	0	0	511	508	0	0	
2	0	0	0	0	512	510	0	0	
3	0	0	0	0	511	507	0	0	
4	0	0	0	0	513	509	0	0	
5	0	0	0	0	512	507	0	0	
6	0	0	0	0	512	507	0	0	
7	0	0	0	0	512	507	0	0	
8	0	0	0	0	511	508	0	0	
9	0	0	0	0	511	510	0	0	
10	0	0	0	0	512	509	0	0	
11	0	0	0	0	511	508	0	0	
12	0	0	0	0	511	507	0	0	
13	0	0	0	0	511	508	0	0	
14	0	0	0	0	510	508	0	0	
15	0	0	0	0	511	508	0	0	
0	0	0	0	0	509	508	0	0	
1	0	0	0	0	508	508	0	0	
2	0	0	0	0	511	508	0	0	
3	0	0	0	0	511	507	0	0	
4	0	0	0	0	512	508	0	0	
5	0	0	0	0	513	509	0	0	
6	0	0	0	0	513	508	0	0	
7	0	0	0	0	511	506	0	0	
8	0	0	0	0	511	508	0	0	
9	0	0	0	0	511	509	0	0	
10	0	0	0	0	512	508	0	0	
11	0	0	0	0	510	508	0	0	
12	0	0	0	0	510	510	0	0	
13	0	0	0	0	511	507	0	0	
14	0	0	0	0	511	508	0	0	
15	0	0	0	0	510	507	0	0	
0	0	0	0	0	510	507	0	0	
1	0	0	0	0	510	507	0	0	
2	0	0	0	0	509	508	0	0	
3	0	0	0	0	511	509	0	0	
4	0	0	0	0	510	509	0	0	
5	0	0	0	0	510	509	0	0	
6	0	0	0	0	511	508	0	0	
7	0	0	0	0	510	507	0	0	
8	0	0	0	0	510	509	0	0	
9	0	0	0	0	512	506	0	0	
10	0	0	0	0	512	508	0	0	
11	0	0	0	0	511	510	0	0	
12	0	0	0	0	511	508	0	0	
13	0	0	0	0	512	507	0	0	
14	0	0	0	0	512	507	0	0	
15	0	0	0	0	513	508	0	0	
0	0	0	0	0	512	508	0	0	
1	0	0	0	0	510	506	0	0	
2	0	0	0	0	508	506	0	0	
3	0	0	0	0	511	506	0	0	
4	0	0	0	0	512	507	0	0	
5	0	0	0	0	510	508	0	0	
6	0	0	0	0	510	509	0	0	
7	0	0	0	0	510	508	0	0	
8	0	0	0	0	513	509	0	0	
9	0	0	0	0	511	508	0	0	
10	0	0	0	0	511	509	0	0	
11	0	0	0	0	510	508	0	0	
12	0	0	0	0	511	508	0	0	
13	0	0	0	0	511	509	0	0	
14	0	0	0	0	512	507	0	0	
15	0	0	0	0	511	510	0	0	
0	0	0	0	0	510	509	0	0	
1	0	0	0	0	512	508	0	0	
2	0	0	0	0	512	508	0	0	
3	0	0	0	0	511	507	0	0	
4	0	0	0	0	512	505	0	0	
5	0	0	0	0	511	508	0	0	
6	0	0	0	0	511	507	0	0	
7	0	0	0	0	510	505	0	0	
8	0	0	0	0	510	507	0	0	
9	0	0	0	0	510	508	0	0	
10	0	0	0	0	512	508	0	0	
11	0	0	0	0	509	508	0	0	
12	0	0	0	0	510	509	0	0	
13	0	0	0	0	510	508	0	0	
14	0	0	0	0	512	508	0	0	
15	0	0	0	0	510	508	0	0	
0	0	0	0	0	511	509	0	0	
1	0	0	0	0	511	505	0	0	
2	0	0	0	0	511	508	0	0	
3	0	0	0	0	514	509	0	0	
4	0	0	0	0	511	511	0	0	
5	0	0	0	0	511	507	0	0	
6	0	0	0	0	510	508	0	0	
7	0	0	0	0	509	507	0	0	
8	0	0	0	0	511	510	0	0	
9	0	0	0	0	511	509	0	0	
10	0	0	0	0	511	508	0	0	
11	0	0	0	0	512	507	0	0	
12	0	0	0	0	510	508	0	0	
13	0	0	0	0	510	506	0	0	
14	0	0	0	0	510	508	0	0	
15	0	0	0	0	509	508	0	0	
0	0	0	0	0	512	507	0	0	
1	0	0	0	0	511	508	0	0	
2	0	0	0	0	510	511	0	0	
3	0	0	0	0	512	509	0	0	
4	0	0	0	0	513	507	0	0	
5	0	0	0	0	511	507	0	0	
6	0	0	0	0	512	509	0	0	
7	0	0	0	0	511	507	0	0	
8	0	0	0	0	510	508	0	0	
9	0	0	0	0	510	507	0	0	
10	0	0	0	0	512	507	0	0	
11	0	0	0	0	512	508	0	0	
12	0	0	0	0	510	507	0	0	
13	0	0	0	0	512	508	0	0	
14	0	0	0	0	514	506	0	0	
15	0	0	0	0	512	508	0	0	
0	0	0	0	0	511	507	0	0	
1	0	0	0	0	510	508	0	0	
2	0	0	0	0	510	508	0	0	
3	0	0	0	0	511	507	0	0	
4	0	0	0	0	510	508	0	0	
5	0	0	0	0	509	508	0	0	
6	0	0	0	0	510	508	0	0	
7	0	0	0	0	512	508	0	0	
8	0	0	0	0	510	508	0	0	
9	0	0	0	0	511	508	0	0	
10	0	0	0	0	512	508	0	0	
11	0	0	0	0	512	507	0	0	
12	0	0	0	0	512	509	0	0	
13	0	0	0	0	512	507	0	0	
14	0	0	0	0	513	506	0	0	
15	0	0	0	0	512	510	0	0	
0	0	0	0	0	512	510	0	0	
1	0	0	0	0	510	505	0	0	
2	0	0	0	0	510	507	0	0	
3	0	0	0	0	511	507	0	0	
4	0	0	0	0	511	509	0	0	
5	0	0	0	0	511	508	0	0	
6	0	0	0	0	510	509	0	0	
7	0	0	0	0	512	508	0	0	
8	0	0	0	0	510	508	0	0	
9	0	0	0	0	511	508	0	0	
10	0	0	0	0	511	508	0	0	
11	0	0	0	0	511	508	0	0	
12	0	0	0	0	509	508	0	0	
13	0	0	0	0	512	508	0	0	
14	0	0	0	0	512	508	0	0	
15	0	0	0	0	511	508	0	0	
0	0	0	0	0	512	507	0	0	
1	0	0	0	0	510	508	0	0	
2	0	0	0	0	513	510	0	0	
3	0	0	0	0	511	509	0	0	
4	0	0	0	0	510	509	0	0	
5	0	0	0	0	511	508	0	0	
6	0	0	0	0	512	509	0	0	
7	0	0	0	0	510	506	0	0	
8	0	0	0	0	512	504	0	0	
9	0	0	0	0	511	507	0	0	
10	0	0	0	0	511	508	0	0	
11	0	0	0	0	512	507	0	0	
12	0	0	0	0	510	508	0	0	
13	0	0	0	0	511	507	0	0	
14	0	0	0	0	511	509	0	0	
15	0	0	0	0	512	508	0	0	
0	0	0	0	0	511	508	0	0	
1	0	0	0	0	511	506	0	0	
2	0	0	0	0	511	509	0	0	
3	0	0	0	0	512	508	0	0	
4	0	0	0	0	513	508	0	0	
5	0	0	0	0	512	509	0	0	
6	0	0	0	0	511	508	0	0	
7	0	0	0	0	509	509	0	0	
8	0	0	0	0	512	507	0	0	
9	0	0	0	0	511	508	0	0	
10	0	0	0	0	512	507	0	0	
11	0	0	0	0	509	507	0	0	
12	0	0	0	0	510	506	0	0	
13	0	0	0	0	510	508	0	0	
14	0	0	0	0	511	508	0	0	
15	0	0	0	0	512	508	0	0	
0	0	0	0	0	511	509	0	0	
1	0	0	0	0	512	510	0	0	
2	0	0	0	0	511	507	0	0	
3	0	0	0	0	511	508	0	0	
4	0	0	0	0	512	510	0	0	
5	0	0	0	0	511	508	0	0	
6	0	0	0	0	511	508	0	0	
7	0	0	0	0	510	508	0	0	
8	0	0	0	0	510	505	0	0	
9	0	0	0	0	512	508	0	0	
10	0	0	0	0	512	508	0	0	
11	0	0	0	0	511	505	0	0	
12	0	0	0	0	510	509	0	0	
13	0	0	0	0	509	507	0	0	
14	0	0	0	0	509	508	0	0	
15	0	0	0	0	512	510	0	0	
0	0	0	0	0	512	508	0	0	
1	0	0	0	0	511	509	0	0	
2	0	0	0	0	511	507	0	0	
3	0	0	0	0	512	510	0	0	
4	0	0	0	0	511	508	0	0	
5	0	0	0	0	510	506	0	0	
6	0	0	0	0	509	507	0	0	
7	0	0	0	0	511	509	0	0	
8	0	0	0	0	512	509	0	0	
9	0	0	0	0	512	508	0	0	
10	0	0	0	0	511	508	0	0	
11	0	0	0	0	512	510	0	0	
12	0	0	0	0	512	508	0	0	
13	0	0	0	0	511	510	0	0	
14	0	0	0	0	511	506	0	0	
15	0	0	0	0	512	508	0	0	
0	0	0	0	0	512	506	0	0	
1	0	0	0	0	510	508	0	0	
2	0	0	0	0	512	506	0	0	
3	0	0	0	0	510	507	0	0	
4	0	0	0	0	510	509	0	0	
5	0	0	0	0	511	510	0	0	
6	0	0	0	0	511	507	0	0	
7	0	0	0	0	511	508	0	0	
8	0	0	0	0	512	506	0	0	
9	0	0	0	0	512	507	0	0	
10	0	0	0	0	511	508	0	0	
11	0	0	0	0	510	509	0	0	
12	0	0	0	0	513	508	0	0	
13	0	0	0	0	511	508	0	0	
14	0	0	0	0	511	508	0	0	
15	0	0	0	0	512	510	0	0	
0	0	0	0	0	513	508	0	0	
1	0	0	0	0	512	509	0	0	
2	0	0	0	0	509	508	0	0	
3	0	0	0	0	511	508	0	0	
4	0	0	0	0	510	509	0	0	
5	0	0	0	0	510	508	0	0	
6	0	0	0	0	510	508	0	0	
7	0	0	0	0	512	507	0	0	
8	0	0	0	0	510	507	0	0	
9	0	0	0	0	510	508	0	0	
10	0	0	0	0	510	507	0	0	
11	0	0	0	0	511	508	0	0	
12	0	0	0	0	513	509	0	0	
13	0	0	0	0	512	508	0	0	
14	0	0	0	0	510	508	0	0	
15	0	0	0	0	509	508	0	0	
0	0	0	0	0	513	510	0	0	
1	0	0	0	0	512	509	0	0	
2	0	0	0	0	512	510	0	0	
3	0	0	0	0	510	508	0	0	
4	0	0	0	0	512	506	0	0	
5	0	0	0	0	509	507	0	0	
6	0	0	0	0	513	507	0	0	
7	0	0	0	0	512	507	0	0	
8	0	0	0	0	510	508	0	0	
9	0	0	0	0	511	507	0	0	
10	0	0	0	0	511	509	0	0	
11	0	0	0	0	511	510	0	0	
12	0	0	0	0	511	508	0	0	
13	0	0	0	0	509	508	0	0	
14	0	0	0	0	509	507	0	0	
15	0	0	0	0	512	510	0	0	
0	0	0	0	0	511	508	0	0	
1	0	0	0	0	509	508	0	0	
2	0	0	0	0	512	506	0	0	
3	0	0	0	0	510	508	0	0	
4	0	0	0	0	511	507	0	0	
5	0	0	0	0	511	508	0	0	
6	0	0	0	0	511	509	0	0	
7	0	0	0	0	511	509	0	0	
8	0	0	0	0	511	508	0	0	
9	0	0	0	0	511	508	0	0	
10	0	0	0	0	514	508	0	0	
11	0	0	0	0	511	508	0	0	
12	0	0	0	0	510	508	0	0	
13	0	0	0	0	511	507	0	0	
14	0	0	0	0	510	508	0	0	
15	0	0	0	0	509	507	0	0	
0	0	0	0	0	510	506	0	0	
1	0	0	0	0	511	507	0	0	
2	0	0	0	0	511	509	0	0	
3	0	0	0	0	514	508	0	0	
4	0	0	0	0	517	508	0	0	
5	0	0	0	0	511	510	0	0	
6	0	0	0	0	511	506	0	0	
7	0	0	0	0	512	510	0	0	
8	0	0	0	0	509	508	0	0	
9	0	0	0	0	510	508	0	0	
10	0	0	0	0	509	509	0	0	
11	0	0	0	0	510	508	0	0	
12	0	0	0	0	515	510	0	0	
13	0	0	0	0	512	507	0	0	
14	0	0	0	0	509	507	0	0	
15	0	0	0	0	510	507	0	0	
0	0	0	0	0	510	507	0	0	
1	0	0	0	0	511	508	0	0	
2	0	0	0	0	511	506	0	0	
3	0	0	0	0	511	508	0	0	
4	0	0	0	0	510	508	0	0	
5	0	0	0	0	511	508	0	0	
6	0	0	0	0	511	508	0	0	
7	0	0	0	0	511	507	0	0	
8	0	0	0	0	511	508	0	0	
9	0	0	0	0	511	509	0	0	
10	0	0	0	0	511	508	0	0	
11	0	0	0	0	512	510	0	0	
12	0	0	0	0	512	509	0	0	
13	0	0	0	0	513	508	0	0	
14	0	0	0	0	511	507	0	0	
15	0	0	0	0	511	508	0	0	
0	0	0	0	0	511	508	0	0	
1	0	0	0	0	512	509	0	0	
2	0	0	0	0	511	508	0	0	
3	0	0	0	0	511	507	0	0	
4	0	0	0	0	512	508	0	0	
5	0	0	0	0	511	507	0	0	
6	0	0	0	0	511	508	0	0	
7	0	0	0	0	509	507	0	0	
8	0	0	0	0	509	508	0	0	
9	0	0	0	0	509	506	0	0	
10	0	0	0	0	512	506	0	0	
11	0	0	0	0	510	508	0	0	
12	0	0	0	0	512	508	0	0	
13	0	0	0	0	512	509	0	0	
14	0	0	0	0	512	508	0	0	
15	0	0	0	0	513	507	0	0	
0	0	0	0	0	511	509	0	0	
1	0	0	0	0	514	508	0	0	
2	0	0	0	0	510	508	0	0	
3	0	0	0	0	508	509	0	0	
4	0	0	0	0	511	508	0	0	
5	0	0	0	0	512	509	0	0	
6	0	0	0	0	510	510	0	0	
7	0	0	0	0	512	507	0	0	
8	0	0	0	0	512	506	0	0	
9	0	0	0	0	512	508	0	0	
10	0	0	0	0	512	507	0	0	
11	0	0	0	0	511	507	0	0	
12	0	0	0	0	510	508	0	0	
13	0	0	0	0	511	507	0	0	
14	0	0	0	0	509	507	0	0	
15	0	0	0	0	510	509	0	0	
0	0	0	0	0	511	508	0	0	
1	0	0	0	0	510	508	0	0	
2	0	0	0	0	512	509	0	0	
3	0	0	0	0	510	507	0	0	
4	0	0	0	0	512	507	0	0	
5	0	0	0	0	510	508	0	0	
6	0	0	0	0	511	506	0	0	
7	0	0	0	0	509	507	0	0	
8	0	0	0	0	511	507	0	0	
9	0	0	0	0	510	510	0	0	
10	0	0	0	0	510	508	0	0	
11	0	0	0	0	512	507	0	0	
12	0	0	0	0	512	509	0	0	
13	0	0	0	0	512	508	0	0	
14	0	0	0	0	512	507	0	0	
15	0	0	0	0	511	508	0	0	
0	0	0	0	0	510	508	0	0	
1	0	0	0	0	510	507	0	0	
2	0	0	0	0	511	508	0	0	
3	0	0	0	0	510	509	0	0	
4	0	0	0	0	512	507	0	0	
5	0	0	0	0	513	508	0	0	
6	0	0	0	0	511	507	0	0	
7	0	0	0	0	511	507	0	0	
8	0	0	0	0	513	507	0	0	
9	0	0	0	0	512	509	0	0	
10	0	0	0	0	511	509	0	0	
11	0	0	0	0	513	509	0	0	
12	0	0	0	0	512	508	0	0	
13	0	0	0	0	511	509	0	0	
14	0	0	0	0	510	508	0	0	
15	0	0	0	0	510	509	0	0	
0	0	0	0	0	510	507	0	0	
1	0	0	0	0	513	507	0	0	
2	0	0	0	0	508	510	0	0	
3	0	0	0	0	509	509	0	0	
4	0	0	0	0	511	509	0	0	
5	0	0	0	0	509	509	0	0	
6	0	0	0	0	509	507	0	0	
7	0	0	0	0	511	506	0	0	
8	0	0	0	0	512	509	0	0	
9	0	0	0	0	510	508	0	0	
10	0	0	0	0	510	507	0	0	
11	0	0	0	0	511	508	0	0	
12	0	0	0	0	511	508	0	0	
13	0	0	0	0	514	507	0	0	
14	0	0	0	0	512	506	0	0	
15	0	0	0	0	512	506	0	0	
0	0	0	0	0	510	508	0	0	
1	0	0	0	0	510	508	0	0	
2	0	0	0	0	512	509	0	0	
3	0	0	0	0	512	508	0	0	
4	0	0	0	0	513	510	0	0	
5	0	0	0	0	511	508	0	0	
6	0	0	0	0	511	508	0	0	
7	0	0	0	0	512	506	0	0	
8	0	0	0	0	510	508	0	0	
9	0	0	0	0	511	510	0	0	
10	0	0	0	0	511	508	0	0	
11	0	0	0	0	511	509	0	0	
12	0	0	0	0	510	509	0	0	
13	0	0	0	0	511	507	0	0	
14	0	0	0	0	510	506	0	0	
15	0	0	0	0	512	506	0	0	
0	0	0	0	0	513	509	0	0	
1	0	0	0	0	512	509	0	0	
2	0	0	0	0	512	509	0	0	
3	0	0	0	0	512	509	0	0	
4	0	0	0	0	512	507	0	0	
5	0	0	0	0	509	508	0	0	
6	0	0	0	0	511	508	0	0	
7	0	0	0	0	512	507	0	0	
8	0	0	0	0	511	505	0	0	
9	0	0	0	0	512	506	0	0	
10	0	0	0	0	510	508	0	0	
11	0	0	0	0	510	507	0	0	
12	0	0	0	0	509	509	0	0	
13	0	0	0	0	511	507	0	0	
14	0	0	0	0	510	508	0	0	
15	0	0	0	0	510	510	0	0	
0	0	0	0	0	511	510	0	0	
1	0	0	0	0	511	511	0	0	
2	0	0	0	0	511	506	0	0	
3	0	0	0	0	511	507	0	0	
4	0	0	0	0	511	507	0	0	
5	0	0	0	0	512	507	0	0	
6	0	0	0	0	512	507	0	0	
7	0	0	0	0	509	507	0	0	
8	0	0	0	0	512	508	0	0	
9	0	0	0	0	512	507	0	0	
10	0	0	0	0	512	507	0	0	
11	0	0	0	0	511	506	0	0	
12	0	0	0	0	509	509	0	0	
13	0	0	0	0	509	509	0	0	
14	0	0	0	0	510	508	0	0	
15	0	0	0	0	511	507	0	0	
0	0	0	0	0	510	509	0	0	
1	0	0	0	0	512	508	0	0	
2	0	0	0	0	510	508	0	0	
3	0	0	0	0	511	507	0	0	
4	0	0	0	0	511	508	0	0	
5	0	0	0	0	508	510	0	0	
6	0	0	0	0	512	507	0	0	
7	0	0	0	0	512	510	0	0	
8	0	0	0	0	511	506	0	0	
9	0	0	0	0	512	506	0	0	
10	0	0	0	0	511	508	0	0	
11	0	0	0	0	512	508	0	0	
12	0	0	0	0	510	508	0	0	
13	0	0	0	0	513	508	0	0	
14	0	0	0	0	511	508	0	0	
15	0	0	0	0	512	508	0	0	
0	0	0	0	0	512	508	0	0	
1	0	0	0	0	513	506	0	0	
2	0	0	0	0	512	507	0	0	
3	0	0	0	0	510	510	0	0	
4	0	0	0	0	511	510	0	0	
5	0	0	0	0	509	508	0	0	
6	0	0	0	0	509	510	0	0	
7	0	0	0	0	510	507	0	0	
8	0	0	0	0	510	508	0	0	
9	0	0	0	0	511	508	0	0	
10	0	0	0	0	512	507	0	0	
11	0	0	0	0	510	508	0	0	
12	0	0	0	0	510	508	0	0	
13	0	0	0	0	512	507	0	0	
14	0	0	0	0	512	508	0	0	
15	0	0	0	0	513	508	0	0	
0	0	0	0	0	511	508	0	0	
1	0	0	0	0	512	508	0	0	
2	0	0	0	0	512	510	0	0	
3	0	0	0	0	513	507	0	0	
4	0	0	0	0	511	509	0	0	
5	0	0	0	0	509	509	0	0	
6	0	0	0	0	511	508	0	0	
7	0	0	0	0	512	507	0	0	
8	0	0	0	0	511	507	0	0	
9	0	0	0	0	509	507	0	0	
10	0	0	0	0	511	508	0	0	
11	0	0	0	0	507	507	0	0	
12	0	0	0	0	509	509	0	0	
13	0	0	0	0	508	508	0	0	
14	0	0	0	0	510	509	0	0	
15	0	0	0	0	510	506	0	0	
0	0	0	0	0	510	507	0	0	
1	0	0	0	0	516	507	0	0	
2	0	0	0	0	513	508	0	0	
3	0	0	0	0	513	509	0	0	
4	0	0	0	0	512	508	0	0	
5	0	0	0	0	511	507	0	0	
6	0	0	0	0	513	509	0	0	
7	0	0	0	0	511	509	0	0	
8	0	0	0	0	511	507	0	0	
9	0	0	0	0	511	508	0	0	
10	0	0	0	0	511	507	0	0	
11	0	0	0	0	512	506	0	0	
12	0	0	0	0	509	510	0	0	
13	0	0	0	0	511	510	0	0	
14	0	0	0	0	510	508	0	0	
15	0	0	0	0	508	508	0	0	
0	0	0	0	0	510	507	0	0	
1	0	0	0	0	510	509	0	0	
2	0	0	0	0	511	509	0	0	
3	0	0	0	0	512	507	0	0	
4	0	0	0	0	512	508	0	0	
5	0	0	0	0	512	508	0	0	
6	0	0	0	0	511	508	0	0	
7	0	0	0	0	512	510	0	0	
8	0	0	0	0	511	507	0	0	
9	0	0	0	0	513	507	0	0	
10	0	0	0	0	511	506	0	0	
11	0	0	0	0	511	509	0	0	
12	0	0	0	0	513	508	0	0	
13	0	0	0	0	511	506	0	0	
14	0	0	0	0	511	510	0	0	
15	0	0	0	0	511	508	0	0	
0	0	0	0	0	511	509	0	0	
1	0	0	0	0	510	508	0	0	
2	0	0	0	0	511	507	0	0	
3	0	0	0	0	511	507	0	0	
4	0	0	0	0	513	508	0	0	
5	0	0	0	0	511	508	0	0	
6	0	0	0	0	510	507	0	0	
7	0	0	0	0	509	507	0	0	
8	0	0	0	0	511	508	0	0	
9	0	0	0	0	513	508	0	0	
10	0	0	0	0	511	507	0	0	
11	0	0	0	0	512	510	0	0	
12	0	0	0	0	512	510	0	0	
13	0	0	0	0	511	508	0	0	
14	0	0	0	0	512	508	0	0	
15	0	0	0	0	509	508	0	0	
0	0	0	0	0	511	507	0	0	
1	0	0	0	0	512	507	0	0	
2	0	0	0	0	511	509	0	0	
3	0	0	0	0	511	508	0	0	
4	0	0	0	0	511	508	0	0	
5	0	0	0	0	511	506	0	0	
6	0	0	0	0	510	509	0	0	
7	0	0	0	0	511	510	0	0	
8	0	0	0	0	510	508	0	0	
9	0	0	0	0	510	508	0	0	
10	0	0	0	0	513	508	0	0	
11	0	0	0	0	511	507	0	0	
12	0	0	0	0	511	506	0	0	
13	0	0	0	0	512	510	0	0	
14	0	0	0	0	511	508	0	0	
15	0	0	0	0	511	508	0	0	
0	0	0	0	0	511	506	0	0	
1	0	0	0	0	508	509	0	0	
2	0	0	0	0	511	508	0	0	
3	0	0	0	0	511	508	0	0	
4	0	0	0	0	509	507	0	0	
5	0	0	0	0	511	508	0	0	
6	0	0	0	0	510	508	0	0	
7	0	0	0	0	511	506	0	0	
8	0	0	0	0	511	507	0	0	
9	0	0	0	0	512	509	0	0	
10	0	0	0	0	510	510	0	0	
11	0	0	0	0	511	508	0	0	
12	0	0	0	0	511	507	0	0	
13	0	0	0	0	510	508	0	0	
14	0	0	0	0	510	509	0	0	
15	0	0	0	0	509	507	0	0	
0	0	0	0	0	511	508	0	0	
1	0	0	0	0	511	508	0	0	
2	0	0	0	0	510	509	0	0	
3	0	0	0	0	512	508	0	0	
4	0	0	0	0	512	508	0	0	
5	0	0	0	0	511	507	0	0	
6	0	0	0	0	510	509	0	0	
7	0	0	0	0	512	507	0	0	
8	0	0	0	0	511	507	0	0	
9	0	0	0	0	511	507	0	0	
10	0	0	0	0	512	506	0	0	
11	0	0	0	0	510	508	0	0	
12	0	0	0	0	512	509	0	0	
13	0	0	0	0	511	508	0	0	
14	0	0	0	0	512	509	0	0	
15	0	0	0	0	511	508	0	0	
0	0	0	0	0	508	510	0	0	
1	0	0	0	0	511	508	0	0	
2	0	0	0	0	509	508	0	0	
3	0	0	0	0	511	507	0	0	
4	0	0	0	0	511	508	0	0	
5	0	0	0	0	511	510	0	0	
6	0	0	0	0	511	508	0	0	
7	0	0	0	0	512	508	0	0	
8	0	0	0	0	512	509	0	0	
9	0	0	0	0	512	509	0	0	
10	0	0	0	0	511	507	0	0	
11	0	0	0	0	511	508	0	0	
12	0	0	0	0	510	508	0	0	
13	0	0	0	0	512	509	0	0	
14	0	0	0	0	511	505	0	0	
15	0	0	0	0	508	506	0	0	
0	0	0	0	0	512	509	0	0	
1	0	0	0	0	511	509	0	0	
2	0	0	0	0	512	509	0	0	
3	0	0	0	0	511	508	0	0	
4	0	0	0	0	510	508	0	0	
5	0	0	0	0	509	508	0	0	
6	0	0	0	0	511	508	0	0	
7	0	0	0	0	509	507	0	0	
8	0	0	0	0	511	508	0	0	
9	0	0	0	0	511	509	0	0	
10	0	0	0	0	512	508	0	0	
11	0	0	0	0	512	508	0	0	
12	0	0	0	0	511	507	0	0	
13	0	0	0	0	515	507	0	0	
14	0	0	0	0	513	508	0	0	
15	0	0	0	0	511	507	0	0	
0	0	0	0	0	512	506	0	0	
1	0	0	0	0	511	506	0	0	
2	0	0	0	0	512	510	0	0	
3	0	0	0	0	509	508	0	0	
4	0	0	0	0	510	508	0	0	
5	0	0	0	0	513	509	0	0	
6	0	0	0	0	511	509	0	0	
7	0	0	0	0	509	509	0	0	
8	0	0	0	0	508	508	0	0	
9	0	0	0	0	509	507	0	0	
10	0	0	0	0	509	507	0	0	
11	0	0	0	0	509	508	0	0	
12	0	0	0	0	511	508	0	0	
13	0	0	0	0	513	508	0	0	
14	0	0	0	0	512	508	0	0	
15	0	0	0	0	512	508	0	0	
0	0	0	0	0	511	508	0	0	
1	0	0	0	0	511	508	0	0	
2	0	0	0	0	511	510	0	0	
3	0	0	0	0	512	507	0	0	
4	0	0	0	0	510	510	0	0	
5	0	0	0	0	511	508	0	0	
6	0	0	0	0	511	510	0	0	
7	0	0	0	0	511	507	0	0	
8	0	0	0	0	509	507	0	0	
9	0	0	0	0	512	507	0	0	
10	0	0	0	0	511	508	0	0	
11	0	0	0	0	512	507	0	0	
12	0	0	0	0	510	510	0	0	
13	0	0	0	0	513	508	0	0	
14	0	0	0	0	510	507	0	0	
15	0	0	0	0	510	510	0	0	
0	0	0	0	0	510	509	0	0	
1	0	0	0	0	511	508	0	0	
2	0	0	0	0	513	508	0	0	
3	0	0	0	0	512	507	0	0	
4	0	0	0	0	511	508	0	0	
5	0	0	0	0	511	507	0	0	
6	0	0	0	0	512	508	0	0	
7	0	0	0	0	513	510	0	0	
8	0	0	0	0	511	508	0	0	
9	0	0	0	0	508	507	0	0	
10	0	0	0	0	511	507	0	0	
11	0	0	0	0	510	509	0	0	
12	0	0	0	0	510	508	0	0	
13	0	0	0	0	510	508	0	0	
14	0	0	0	0	513	507	0	0	
15	0	0	0	0	510	509	0	0	
0	0	0	0	0	510	509	0	0	
1	0	0	0	0	511	508	0	0	
2	0	0	0	0	509	508	0	0	
3	0	0	0	0	511	509	0	0	
4	0	0	0	0	511	508	0	0	
5	0	0	0	0	510	507	0	0	
6	0	0	0	0	513	508	0	0	
7	0	0	0	0	514	508	0	0	
8	0	0	0	0	511	509	0	0	
9	0	0	0	0	512	509	0	0	
10	0	0	0	0	513	507	0	0	
11	0	0	0	0	511	507	0	0	
12	0	0	0	0	512	508	0	0	
13	0	0	0	0	513	507	0	0	
14	0	0	0	0	513	509	0	0	
15	0	0	0	0	511	507	0	0	
0	0	0	0	0	512	508	0	0	
1	0	0	0	0	510	510	0	0	
2	0	0	0	0	510	510	0	0	
3	0	0	0	0	512	507	0	0	
4	0	0	0	0	508	508	0	0	
5	0	0	0	0	508	508	0	0	
6	0	0	0	0	509	507	0	0	
7	0	0	0	0	511	508	0	0	
8	0	0	0	0	510	510	0	0	
9	0	0	0	0	512	508	0	0	
10	0	0	0	0	509	508	0	0	
11	0	0	0	0	514	506	0	0	
12	0	0	0	0	512	508	0	0	
13	0	0	0	0	511	509	0	0	
14	0	0	0	0	514	509	0	0	
15	0	0	0	0	513	507	0	0	
0	0	0	0	0	513	505	0	0	
1	0	0	0	0	511	506	0	0	
2	0	0	0	0	510	507	0	0	
3	0	0	0	0	512	507	0	0	
4	0	0	0	0	509	507	0	0	
5	0	0	0	0	511	508	0	0	
6	0	0	0	0	511	508	0	0	
7	0	0	0	0	510	509	0	0	
8	0	0	0	0	510	509	0	0	
9	0	0	0	0	512	507	0	0	
10	0	0	0	0	513	508	0	0	
11	0	0	0	0	511	508	0	0	
12	0	0	0	0	510	508	0	0	
13	0	0	0	0	511	507	0	0	
14	0	0	0	0	512	507	0	0	
15	0	0	0	0	512	509	0	0	
0	0	0	0	0	511	508	0	0	
1	0	0	0	0	510	508	0	0	
2	0	0	0	0	510	509	0	0	
3	0	0	0	0	511	508	0	0	
4	0	0	0	0	509	507	0	0	
5	0	0	0	0	511	507	0	0	
6	0	0	0	0	510	508	0	0	
7	0	0	0	0	511	509	0	0	
8	0	0	0	0	511	507	0	0	
9	0	0	0	0	512	509	0	0	
10	0	0	0	0	509	508	0	0	
11	0	0	0	0	511	508	0	0	
12	0	0	0	0	511	508	0	0	
13	0	0	0	0	511	509	0	0	
14	0	0	0	0	512	507	0	0	
15	0	0	0	0	512	506	0	0	
0	0	0	0	0	511	508	0	0	
1	0	0	0	0	512	509	0	0	
2	0	0	0	0	510	507	0	0	
3	0	0	0	0	510	507	0	0	
4	0	0	0	0	511	509	0	0	
5	0	0	0	0	510	508	0	0	
6	0	0	0	0	510	509	0	0	
7	0	0	0	0	511	507	0	0	
8	0	0	0	0	513	508	0	0	
9	0	0	0	0	512	510	0	0	
10	0	0	0	0	511	508	0	0	
11	0	0	0	0	510	508	0	0	
12	0	0	0	0	510	508	0	0	
13	0	0	0	0	509	508	0	0	
14	0	0	0	0	513	508	0	0	
15	0	0	0	0	512	507	0	0	
0	0	0	0	0	509	509	0	0	
1	0	0	0	0	511	507	0	0	
2	0	0	0	0	511	506	0	0	
3	0	0	0	0	511	507	0	0	
4	0	0	0	0	510	510	0	0	
5	0	0	0	0	511	509	0	0	
6	0	0	0	0	511	509	0	0	
7	0	0	0	0	510	508	0	0	
8	0	0	0	0	511	508	0	0	
9	0	0	0	0	512	507	0	0	
10	0	0	0	0	512	507	0	0	
11	0	0	0	0	512	508	0	0	
12	0	0	0	0	512	510	0	0	
13	0	0	0	0	511	508	0	0	
14	0	0	0	0	511	505	0	0	
15	0	0	0	0	512	508	0	0	
0	0	0	0	0	510	508	0	0	
1	0	0	0	0	509	508	0	0	
2	0	0	0	0	509	508	0	0	
3	0	0	0	0	510	508	0	0	
4	0	0	0	0	512	508	0	0	
5	0	0	0	0	510	507	0	0	
6	0	0	0	0	511	508	0	0	
7	0	0	0	0	511	509	0	0	
8	0	0	0	0	509	508	0	0	
9	0	0	0	0	508	508	0	0	
10	0	0	0	0	512	508	0	0	
11	0	0	0	0	514	509	0	0	
12	0	0	0	0	511	506	0	0	
13	0	0	0	0	513	508	0	0	
14	0	0	0	0	512	508	0	0	
15	0	0	0	0	511	508	0	0	
0	0	0	0	0	514	509	0	0	
1	0	0	0	0	511	508	0	0	
2	0	0	0	0	511	508	0	0	
3	0	0	0	0	512	507	0	0	
4	0	0	0	0	511	507	0	0	
5	0	0	0	0	511	508	0	0	
6	0	0	0	0	510	508	0	0	
7	0	0	0	0	510	508	0	0	
8	0	0	0	0	510	508	0	0	
9	0	0	0	0	511	508	0	0	
10	0	0	0	0	513	507	0	0	
11	0	0	0	0	511	507	0	0	
12	0	0	0	0	512	508	0	0	
13	0	0	0	0	511	509	0	0	
14	0	0	0	0	512	509	0	0	
15	0	0	0	0	510	508	0	0	
0	0	0	0	0	511	507	0	0	
1	0	0	0	0	514	508	0	0	
2	0	0	0	0	511	510	0	0	
3	0	0	0	0	512	508	0	0	
4	0	0	0	0	511	507	0	0	
5	0	0	0	0	512	508	0	0	
6	0	0	0	0	510	508	0	0	
7	0	0	0	0	512	506	0	0	
8	0	0	0	0	511	508	0	0	
9	0	0	0	0	511	508	0	0	
10	0	0	0	0	511	508	0	0	
11	0	0	0	0	510	508	0	0	
12	0	0	0	0	511	508	0	0	
13	0	0	0	0	509	507	0	0	
14	0	0	0	0	510	510	0	0	
15	0	0	0	0	511	507	0	0	
0	0	0	0	0	511	508	0	0	
1	0	0	0	0	512	509	0	0	
2	0	0	0	0	512	508	0	0	
3	0	0	0	0	513	507	0	0	
4	0	0	0	0	511	508	0	0	
5	0	0	0	0	511	509	0	0	
6	0	0	0	0	511	507	0	0	
7	0	0	0	0	511	508	0	0	
8	0	0	0	0	511	508	0	0	
9	0	0	0	0	511	508	0	0	
10	0	0	0	0	510	506	0	0	
11	0	0	0	0	511	509	0	0	
12	0	0	0	0	510	505	0	0	
13	0	0	0	0	510	508	0	0	
14	0	0	0	0	511	507	0	0	
15	0	0	0	0	510	510	0	0	
0	0	0	0	0	511	509	0	0	
1	0	0	0	0	509	507	0	0	
2	0	0	0	0	511	507	0	0	
3	0	0	0	0	512	508	0	0	
4	0	0	0	0	511	509	0	0	
5	0	0	0	0	513	508	0	0	
6	0	0	0	0	510	509	0	0	
7	0	0	0	0	513	510	0	0	
8	0	0	0	0	511	509	0	0	
9	0	0	0	0	511	507	0	0	
10	0	0	0	0	511	508	0	0	
11	0	0	0	0	513	506	0	0	
12	0	0	0	0	512	508	0	0	
13	0	0	0	0	511	508	0	0	
14	0	0	0	0	512	507	0	0	
15	0	0	0	0	513	507	0	0	
0	0	0	0	0	511	508	0	0	
1	0	0	0	0	509	507	0	0	
2	0	0	0	0	510	508	0	0	
3	0	0	0	0	511	509	0	0	
4	0	0	0	0	511	508	0	0	
5	0	0	0	0	511	509	0	0	
6	0	0	0	0	511	508	0	0	
7	0	0	0	0	511	510	0	0	
8	0	0	0	0	508	509	0	0	
9	0	0	0	0	511	508	0	0	
10	0	0	0	0	513	509	0	0	
11	0	0	0	0	515	507	0	0	
12	0	0	0	0	511	510	0	0	
13	0	0	0	0	512	508	0	0	
14	0	0	0	0	511	508	0	0	
15	0	0	0	0	513	509	0	0	
0	0	0	0	0	511	505	0	0	
1	0	0	0	0	510	508	0	0	
2	0	0	0	0	510	505	0	0	
3	0	0	0	0	511	508	0	0	
4	0	0	0	0	511	509	0	0	
5	0	0	0	0	509	511	0	0	
6	0	0	0	0	509	507	0	0	
7	0	0	0	0	509	508	0	0	
8	0	0	0	0	508	507	0	0	
9	0	0	0	0	512	508	0	0	
10	0	0	0	0	512	507	0	0	
11	0	0	0	0	511	509	0	0	
12	0	0	0	0	512	509	0	0	
13	0	0	0	0	512	511	0	0	
14	0	0	0	0	512	508	0	0	
15	0	0	0	0	512	508	0	0	
0	0	0	0	0	512	508	0	0	
1	0	0	0	0	510	507	0	0	
2	0	0	0	0	510	508	0	0	
3	0	0	0	0	511	506	0	0	
4	0	0	0	0	511	508	0	0	
5	0	0	0	0	511	508	0	0	
6	0	0	0	0	513	507	0	0	
7	0	0	0	0	512	508	0	0	
8	0	0	0	0	513	507	0	0	
9	0	0	0	0	512	508	0	0	
10	0	0	0	0	510	508	0	0	
11	0	0	0	0	510	508	0	0	
12	0	0	0	0	511	508	0	0	
13	0	0	0	0	508	509	0	0	
14	0	0	0	0	512	509	0	0	
15	0	0	0	0	509	507	0	0	
0	0	0	0	0	512	508	0	0	
1	0	0	0	0	512	508	0	0	
2	0	0	0	0	511	509	0	0	
3	0	0	0	0	513	509	0	0	
4	0	0	0	0	511	508	0	0	
5	0	0	0	0	511	507	0	0	
6	0	0	0	0	512	506	0	0	
7	0	0	0	0	509	510	0	0	
8	0	0	0	0	512	509	0	0	
9	0	0	0	0	513	507	0	0	
10	0	0	0	0	514	508	0	0	
11	0	0	0	0	511	508	0	0	
12	0	0	0	0	512	508	0	0	
13	0	0	0	0	510	507	0	0	
14	0	0	0	0	511	508	0	0	
15	0	0	0	0	512	509	0	0	
0	0	0	0	0	509	508	0	0	
1	0	0	0	0	511	507	0	0	
2	0	0	0	0	512	509	0	0	
3	0	0	0	0	511	508	0	0	
4	0	0	0	0	512	509	0	0	
5	0	0	0	0	512	508	0	0	
6	0	0	0	0	512	508	0	0	
7	0	0	0	0	513	508	0	0	
8	0	0	0	0	511	508	0	0	
9	0	0	0	0	509	507	0	0	
10	0	0	0	0	513	507	0	0	
11	0	0	0	0	514	510	0	0	
12	0	0	0	0	512	508	0	0	
13	0	0	0	0	510	510	0	0	
14	0	0	0	0	508	506	0	0	
15	0	0	0	0	510	507	0	0	
0	0	0	0	0	510	505	0	0	
1	0	0	0	0	511	508	0	0	
2	0	0	0	0	510	507	0	0	
3	0	0	0	0	510	506	0	0	
4	0	0	0	0	513	509	0	0	
5	0	0	0	0	513	508	0	0	
6	0	0	0	0	511	508	0	0	
7	0	0	0	0	511	509	0	0	
8	0	0	0	0	506	509	0	0	
9	0	0	0	0	511	508	0	0	
10	0	0	0	0	510	508	0	0	
11	0	0	0	0	511	510	0	0	
12	0	0	0	0	511	507	0	0	
13	0	0	0	0	510	508	0	0	
14	0	0	0	0	511	508	0	0	
15	0	0	0	0	512	509	0	0	
0	0	0	0	0	512	508	0	0	
1	0	0	0	0	511	508	0	0	
2	0	0	0	0	511	509	0	0	
3	0	0	0	0	512	509	0	0	
4	0	0	0	0	512	507	0	0	
5	0	0	0	0	510	508	0	0	
6	0	0	0	0	510	507	0	0	
7	0	0	0	0	511	509	0	0	
8	0	0	0	0	511	509	0	0	
9	0	0	0	0	510	507	0	0	
10	0	0	0	0	512	508	0	0	
11	0	0	0	0	511	509	0	0	
12	0	0	0	0	511	510	0	0	
13	0	0	0	0	510	509	0	0	
14	0	0	0	0	510	508	0	0	
15	0	0	0	0	512	506	0	0	
0	0	0	0	0	510	508	0	0	
1	0	0	0	0	512	508	0	0	
2	0	0	0	0	512	507	0	0	
3	0	0	0	0	512	507	0	0	
4	0	0	0	0	513	506	0	0	
5	0	0	0	0	512	507	0	0	
6	0	0	0	0	512	507	0	0	
7	0	0	0	0	508	507	0	0	
8	0	0	0	0	508	509	0	0	
9	0	0	0	0	508	508	0	0	
10	0	0	0	0	509	507	0	0	
11	0	0	0	0	511	508	0	0	
12	0	0	0	0	516	511	0	0	
13	0	0	0	0	514	508	0	0	
14	0	0	0	0	511	508	0	0	
15	0	0	0	0	509	508	0	0	
0	0	0	0	0	511	507	0	0	
1	0	0	0	0	511	507	0	0	
2	0	0	0	0	510	507	0	0	
3	0	0	0	0	511	509	0	0	
4	0	0	0	0	510	506	0	0	
5	0	0	0	0	513	507	0	0	
6	0	0	0	0	514	510	0	0	
7	0	0	0	0	512	508	0	0	
8	0	0	0	0	512	507	0	0	
9	0	0	0	0	508	507	0	0	
10	0	0	0	0	507	509	0	0	
11	0	0	0	0	510	508	0	0	
12	0	0	0	0	515	509	0	0	
13	0	0	0	0	513	510	0	0	
14	0	0	0	0	514	508	0	0	
15	0	0	0	0	514	507	0	0	
0	0	0	0	0	516	509	0	0	
1	0	0	0	0	510	505	0	0	
2	0	0	0	0	507	507	0	0	
3	0	0	0	0	505	507	0	0	
4	0	0	0	0	508	509	0	0	
5	0	0	0	0	507	509	0	0	
6	0	0	0	0	511	509	0	0	
7	0	0	0	0	510	511	0	0	
8	0	0	0	0	507	508	0	0	
9	0	0	0	0	513	509	0	0	
10	0	0	0	0	515	508	0	0	
11	0	0	0	0	510	505	0	0	
12	0	0	0	0	511	508	0	0	
13	0	0	0	0	512	510	0	0	
14	0	0	0	0	513	510	0	0	
15	0	0	0	0	515	509	0	0	
0	0	0	0	0	512	508	0	0	
1	0	0	0	0	509	507	0	0	
2	0	0	0	0	512	508	0	0	
3	0	0	0	0	511	507	0	0	
4	0	0	0	0	513	508	0	0	
5	0	0	0	0	510	505	0	0	
6	0	0	0	0	506	508	0	0	
7	0	0	0	0	508	507	0	0	
8	0	0	0	0	509	508	0	0	
9	0	0	0	0	512	508	0	0	
10	0	0	0	0	509	510	0	0	
11	0	0	0	0	508	511	0	0	
12	0	0	0	0	511	508	0	0	
13	0	0	0	0	512	508	0	0	
14	0	0	0	0	509	508	0	0	
15	0	0	0	0	508	504	0	0	
0	0	0	0	0	510	505	0	0	
1	0	0	0	0	515	506	0	0	
2	0	0	0	0	514	508	0	0	
3	0	0	0	0	523	508	0	0	
4	0	0	0	0	513	507	0	0	
5	0	0	0	0	510	510	0	0	
6	0	0	0	0	509	511	0	0	
7	0	0	0	0	513	510	0	0	
8	0	0	0	0	519	512	0	0	
9	0	0	0	0	504	509	0	0	
10	0	0	0	0	501	510	0	0	
11	0	0	0	0	507	508	0	0	
12	0	0	0	0	509	509	0	0	
13	0	0	0	0	508	507	0	0	
14	0	0	0	0	508	507	0	0	
15	0	0	0	0	509	507	0	0	
0	0	0	0	0	508	506	0	0	
1	0	0	0	0	514	506	0	0	
2	0	0	0	0	513	507	0	0	
3	0	0	0	0	511	508	0	0	
4	0	0	0	0	519	511	0	0	
5	0	0	0	0	517	507	0	0	
6	0	0	0	0	511	507	0	0	
7	0	0	0	0	510	510	0	0	
8	0	0	0	0	509	509	0	0	
9	0	0	0	0	512	508	0	0	
10	0	0	0	0	513	505	0	0	
11	0	0	0	0	511	509	0	0	
12	0	0	0	0	509	507	0	0	
13	0	0	0	0	511	508	0	0	
14	0	0	0	0	505	506	0	0	
15	0	0	0	0	509	509	0	0	
0	0	0	0	0	514	512	0	0	
1	0	0	0	0	512	511	0	0	
2	0	0	0	0	513	510	0	0	
3	0	0	0	0	513	508	0	0	
4	0	0	0	0	512	506	0	0	
5	0	0	0	0	513	506	0	0	
6	0	0	0	0	515	511	0	0	
7	0	0	0	0	515	510	0	0	
8	0	0	0	0	508	507	0	0	
9	0	0	0	0	511	502	0	0	
10	0	0	0	0	512	505	0	0	
11	0	0	0	0	508	507	0	0	
12	0	0	0	0	505	510	0	0	
13	0	0	0	0	505	509	0	0	
14	0	0	0	0	517	508	0	0	
15	0	0	0	0	524	509	0	0	
0	0	0	0	0	519	510	0	0	
1	0	0	0	0	519	509	0	0	
2	0	0	0	0	508	509	0	0	
3	0	0	0	0	501	504	0	0	
4	0	0	0	0	501	506	0	0	
5	0	0	0	0	501	507	0	0	
6	0	0	0	0	493	510	0	0	
7	0	0	0	0	500	508	0	0	
8	0	0	0	0	511	510	0	0	
9	0	0	0	0	519	511	0	0	
10	0	0	0	0	515	507	1	0	
11	0	0	0	0	519	510	2	0	
12	0	0	0	0	519	507	2	0	
13	0	0	0	0	517	505	3	0	
14	0	0	0	0	514	510	3	0	
15	0	0	0	0	512	507	19	0	
0	0	0	0	0	507	508	19	0	
1	0	0	0	0	511	506	20	0	
2	0	0	0	0	507	508	21	0	
3	0	0	0	0	503	504	22	0	
4	0	0	0	0	504	508	21	0	
5	0	0	0	0	511	508	22	0	
6	0	0	0	0	511	512	22	0	
7	0	0	0	0	511	508	22	0	
8	0	0	0	0	512	509	22	0	
9	0	0	0	0	516	512	22	0	
10	0	0	0	0	516	508	22	0	
11	0	0	0	0	512	505	23	0	
12	0	0	0	0	515	505	23	0	
13	0	0	0	0	511	505	24	0	
14	0	0	0	0	511	504	28	0	
15	0	0	0	0	512	508	25	0	
0	0	0	0	0	511	512	33	0	
1	0	0	0	0	515	512	39	0	
2	0	0	0	0	518	513	45	0	
3	0	0	0	0	520	512	47	0	
4	0	0	0	0	508	505	50	0	
5	0	0	0	0	504	507	56	0	
6	0	0	0	0	503	508	60	0	
7	0	0	0	0	504	507	63	0	
8	0	0	0	0	510	507	63	0	
9	0	0	0	0	517	507	63	0	
10	0	0	0	0	515	504	68	0	
11	0	0	0	0	512	505	66	0	
12	0	0	0	0	515	509	69	0	
13	0	0	0	0	506	508	71	0	
14	0	0	0	0	504	507	73	0	
15	0	0	0	0	506	509	77	0	
0	0	0	0	0	516	512	78	0	
1	0	0	0	0	519	506	79	0	
2	0	0	0	0	518	506	81	0	
3	0	0	0	0	509	507	79	0	
4	0	0	0	0	509	508	81	0	
5	0	0	0	0	511	505	83	0	
6	0	0	0	0	504	508	86	0	
7	0	0	0	0	521	512	87	0	
8	0	0	0	0	516	511	88	0	
9	0	0	0	0	502	505	89	0	
10	0	0	0	0	502	506	91	0	
11	0	0	0	0	508	508	94	0	
12	0	0	0	0	508	507	97	0	
13	0	0	0	0	508	510	98	0	
14	0	0	0	0	512	509	97	0	
15	0	0	0	0	516	507	100	0	
0	0	0	0	0	514	512	102	0	
1	0	0	0	0	518	508	102	0	
2	0	0	0	0	519	512	103	0	
3	0	0	0	0	515	513	104	0	
4	0	0	0	0	518	511	105	0	
5	0	0	0	0	513	505	111	0	
6	0	0	0	0	507	505	113	0	
7	0	0	0	0	506	510	114	0	
8	0	0	0	0	512	507	112	0	
9	0	0	0	0	508	504	114	0	
10	0	0	0	0	500	501	116	0	
11	0	0	0	0	503	505	119	0	
12	0	0	0	0	503	508	120	0	
13	0	0	0	0	507	510	122	0	
14	0	0	0	0	512	514	126	0	
15	0	0	0	0	513	513	127	0	
0	0	0	0	0	512	508	132	0	
1	0	0	0	0	514	509	135	0	
2	0	0	0	0	512	503	135	0	
3	0	0	0	0	512	499	137	0	
4	0	0	0	0	509	502	138	0	
5	0	0	0	0	505	504	143	0	
6	0	0	0	0	512	512	146	0	
7	0	0	0	0	514	511	147	0	
8	0	0	0	0	513	508	148	0	
9	0	0	0	0	516	510	151	0	
10	0	0	0	0	515	511	153	0	
11	0	0	0	0	513	507	153	0	
12	0	0	0	0	511	507	153	0	
13	0	0	0	0	509	510	153	0	
14	0	0	0	0	508	511	154	0	
15	0	0	0	0	511	512	152	0	
0	0	0	0	0	511	513	153	0	
1	0	0	0	0	514	509	153	0	
2	0	0	0	0	513	503	153	0	
3	0	0	0	0	512	503	153	0	
4	0	0	0	0	507	503	155	0	
5	0	0	0	0	514	508	156	0	
6	0	0	0	0	515	508	158	0	
7	0	0	0	0	514	505	161	0	
8	0	0	0	0	512	508	162	0	
9	0	0	0	0	515	507	163	0	
10	0	0	0	0	508	508	166	0	
11	0	0	0	0	503	511	166	0	
12	0	0	0	0	506	510	168	0	
13	0	0	0	0	509	507	170	0	
14	0	0	0	0	514	509	168	0	
15	0	0	0	0	515	510	167	0	
0	0	0	0	0	511	506	170	0	
1	0	0	0	0	511	507	178	0	
2	0	0	0	0	502	505	179	0	
3	0	0	0	0	495	507	180	0	
4	0	0	0	0	502	511	183	0	
5	0	0	0	0	509	515	183	0	
6	0	0	0	0	508	508	183	0	
7	0	0	0	0	512	498	185	0	
8	0	0	0	0	521	494	187	0	
9	0	0	0	0	534	508	189	0	
10	0	0	0	0	532	511	190	0	
11	0	0	0	0	519	503	193	0	
12	0	0	0	0	506	512	193	0	
13	0	0	0	0	505	510	198	0	
14	0	0	0	0	500	510	196	0	
15	0	0	0	0	505	512	198	0	
0	0	0	0	0	514	515	199	0	
1	0	0	0	0	511	507	201	0	
2	0	0	0	0	518	503	201	0	
3	0	0	0	0	515	506	203	0	
4	0	0	0	0	517	512	204	0	
5	0	0	0	0	515	511	205	0	
6	0	0	0	0	518	511	206	0	
7	0	0	0	0	519	505	207	0	
8	0	0	0	0	508	497	213	0	
9	0	0	0	0	491	496	215	0	
10	0	0	0	0	490	504	222	0	
11	0	0	0	0	496	515	230	0	
12	0	0	0	0	506	515	234	0	
13	0	0	0	0	508	512	238	0	
14	0	0	0	0	517	512	242	0	
15	0	0	0	0	505	501	244	0	
0	0	0	0	0	497	499	248	0	
1	0	0	0	0	504	509	251	0	
2	0	0	0	0	510	514	252	0	
3	0	0	0	0	511	513	254	0	
4	0	0	0	0	511	516	256	0	
5	0	0	0	0	532	519	261	0	
6	0	0	0	0	546	515	263	0	
7	0	0	0	0	543	504	263	0	
8	0	0	0	0	530	502	263	0	
9	0	0	0	0	524	505	262	0	
10	0	0	0	0	506	505	263	0	
11	0	0	0	0	495	508	264	0	
12	0	0	0	0	497	510	265	0	
13	0	0	0	0	489	505	267	0	
14	0	0	0	0	483	506	269	0	
15	0	0	0	0	489	508	272	0	
0	0	0	0	0	512	511	276	0	
1	0	0	0	0	511	501	277	0	
2	0	0	0	0	512	501	280	0	
3	0	0	0	0	515	508	284	0	
4	0	0	0	0	527	507	281	0	
5	0	0	0	0	520	503	282	1	
6	0	0	0	0	515	512	287	0	
7	0	0	0	0	504	514	288	0	
8	0	0	0	0	500	508	288	1	
9	0	0	0	0	510	504	290	1	
10	0	0	0	0	513	509	291	3	
11	0	0	0	0	520	502	293	2	
12	0	0	0	0	524	508	295	5	
13	0	0	0	0	527	513	294	5	
14	0	0	0	0	527	504	297	6	
15	0	0	0	0	509	494	298	7	
0	0	0	0	0	502	492	298	6	
1	0	0	0	0	506	511	298	6	
2	0	0	0	0	503	517	303	5	
3	0	0	0	0	504	506	308	6	
4	0	0	0	0	500	511	309	6	
5	0	0	0	0	497	513	314	11	
6	0	0	0	0	503	520	312	13	
7	0	0	0	0	518	522	312	11	
8	0	0	0	0	511	506	314	10	
9	0	0	0	0	514	509	315	14	
10	0	0	0	0	510	513	317	14	
11	0	0	0	0	507	512	319	12	
12	0	0	0	0	515	507	322	13	
13	0	0	0	0	513	500	323	14	
14	0	0	0	0	513	506	325	13	
15	0	0	0	0	525	510	327	14	
0	0	0	0	0	524	514	328	15	
1	0	0	0	0	514	508	328	17	
2	0	0	0	0	512	502	330	21	
3	0	0	0	0	499	489	332	19	
4	0	0	0	0	510	497	330	21	
5	0	0	0	0	515	513	333	19	
6	0	0	0	0	510	511	334	22	
7	0	0	0	0	511	516	335	29	
8	0	0	0	0	511	513	335	41	
9	0	0	0	0	511	511	335	42	
10	0	0	0	0	508	510	337	46	
11	0	0	0	0	512	513	338	41	
12	0	0	0	0	511	509	339	46	
13	0	0	0	0	514	508	341	48	
14	0	0	0	0	513	506	344	48	
15	0	0	0	0	511	504	346	48	
0	0	0	0	0	503	505	347	51	
1	0	0	0	0	507	496	346	53	
2	0	0	0	0	506	500	345	57	
3	0	0	0	0	511	510	350	57	
4	0	0	0	0	520	513	352	57	
5	0	0	0	0	519	510	352	60	
6	0	0	0	0	515	512	351	57	
7	0	0	0	0	512	510	353	60	
8	0	0	0	0	512	505	358	65	
9	0	0	0	0	510	517	359	65	
10	0	0	0	0	506	515	359	67	
11	0	0	0	0	511	508	360	68	
12	0	0	0	0	515	506	362	68	
13	0	0	0	0	509	502	363	70	
14	0	0	0	0	511	501	365	71	
15	0	0	0	0	507	506	365	75	
0	0	0	0	0	508	511	366	79	
1	0	0	0	0	507	511	365	89	
2	0	0	0	0	509	508	367	84	
3	0	0	0	0	506	509	367	91	
4	0	0	0	0	506	507	371	89	
5	0	0	0	0	511	512	371	95	
6	0	0	0	0	521	508	375	94	
7	0	0	0	0	520	510	376	96	
8	0	0	0	0	518	502	376	100	
9	0	0	0	0	512	503	376	101	
10	0	0	0	0	510	511	375	103	
11	0	0	0	0	509	510	376	103	
12	0	0	0	0	511	510	381	104	
13	0	0	0	0	508	508	383	109	
14	0	0	0	0	506	501	384	113	
15	0	0	0	0	506	502	386	111	
0	0	0	0	0	510	513	388	126	
1	0	0	0	0	520	513	389	126	
2	0	0	0	0	524	511	390	130	
3	0	0	0	0	518	508	391	134	
4	0	0	0	0	507	506	392	134	
5	0	0	0	0	508	507	393	138	
6	0	0	0	0	510	508	393	138	
7	0	0	0	0	509	505	393	140	
8	0	0	0	0	512	507	395	141	
9	0	0	0	0	508	511	396	142	
10	0	0	0	0	502	511	396	138	
11	0	0	0	0	505	508	398	138	
12	0	0	0	0	508	507	399	140	
13	0	0	0	0	505	509	398	140	
14	0	0	0	0	504	509	398	142	
15	0	0	0	0	500	503	399	143	
0	0	0	0	0	506	507	399	142	
1	0	0	0	0	515	509	399	143	
2	0	0	0	0	519	509	400	144	
3	0	0	0	0	524	509	398	143	
4	0	0	0	0	526	507	399	146	
5	0	0	0	0	515	507	400	145	
6	0	0	0	0	509	505	400	149	
7	0	0	0	0	507	506	400	149	
8	0	0	0	0	509	503	400	151	
9	0	0	0	0	510	505	399	150	
10	0	0	0	0	512	509	400	148	
11	0	0	0	0	515	514	400	147	
12	0	0	0	0	508	512	401	148	
13	0	0	0	0	515	508	401	147	
14	0	0	0	0	512	505	399	147	
15	0	0	0	0	511	504	401	147	
0	0	0	0	0	513	512	400	179	
1	0	0	0	0	505	514	403	187	
2	0	0	0	0	505	510	401	187	
3	0	0	0	0	508	510	401	189	
4	0	0	0	0	503	505	402	188	
5	0	0	0	0	507	505	405	188	
6	0	0	0	0	510	498	406	191	
7	0	0	0	0	526	506	405	191	
8	0	0	0	0	533	512	406	191	
9	0	0	0	0	524	513	404	190	
10	0	0	0	0	513	514	406	191	
11	0	0	0	0	517	519	405	191	
12	0	0	0	0	515	520	404	191	
13	0	0	0	0	505	511	408	190	
14	0	0	0	0	499	500	409	191	
15	0	0	0	0	504	497	408	191	
0	0	0	0	0	504	503	409	193	
1	0	0	0	0	499	505	410	192	
2	0	0	0	0	502	503	408	193	
3	0	0	0	0	509	504	408	191	
4	0	0	0	0	517	506	409	193	
5	0	0	0	0	519	510	410	193	
6	0	0	0	0	517	515	412	194	
7	0	0	0	0	516	508	413	195	
8	0	0	0	0	513	507	414	194	
9	0	0	0	0	511	504	414	196	
10	0	0	0	0	507	496	412	196	
11	0	0	0	0	512	512	412	195	
12	0	0	0	0	508	511	412	194	
13	0	0	0	0	506	511	415	194	
14	0	0	0	0	497	510	415	195	
15	0	0	0	0	505	509	413	195	
0	0	0	0	0	515	511	413	195	
1	0	0	0	0	512	510	414	197	
2	0	0	0	0	512	503	415	196	
3	0	0	0	0	515	510	416	198	
4	0	0	0	0	522	516	418	201	
5	0	0	0	0	520	509	418	200	
6	0	0	0	0	511	507	417	199	
7	0	0	0	0	514	508	416	200	
8	0	0	0	0	505	502	415	200	
9	0	0	0	0	507	509	415	199	
10	0	0	0	0	509	508	415	199	
11	0	0	0	0	514	505	416	200	
12	0	0	0	0	518	512	416	200	
13	0	0	0	0	511	508	417	201	
14	0	0	0	0	504	507	419	202	
15	0	0	0	0	508	508	420	204	
0	0	0	0	0	512	511	420	204	
1	0	0	0	0	506	504	423	203	
2	0	0	0	0	504	500	423	202	
3	0	0	0	0	506	500	422	204	
4	0	0	0	0	501	500	423	203	
5	0	0	0	0	508	518	423	205	
6	0	0	0	0	519	511	423	204	
7	0	0	0	0	522	506	422	204	
8	0	0	0	0	518	513	424	207	
9	0	0	0	0	516	512	424	206	
10	0	0	0	0	518	506	425	209	
11	0	0	0	0	516	512	428	209	
12	0	0	0	0	510	509	425	211	
13	0	0	0	0	503	503	428	211	
14	0	0	0	0	508	503	426	210	
15	0	0	0	0	504	505	428	211	
0	0	0	0	0	503	505	429	210	
1	0	0	0	0	510	510	431	211	
2	0	0	0	0	513	514	434	212	
3	0	0	0	0	519	509	436	210	
4	0	0	0	0	511	507	434	210	
5	0	0	0	0	518	506	436	211	
6	0	0	0	0	527	510	434	210	
7	0	0	0	0	524	512	435	211	
8	0	0	0	0	514	510	435	213	
9	0	0	0	0	516	511	435	213	
10	0	0	0	0	514	504	435	214	
11	0	0	0	0	507	503	434	214	
12	0	0	0	0	509	506	434	214	
13	0	0	0	0	512	506	433	216	
14	0	0	0	0	505	503	432	215	
15	0	0	0	0	501	507	433	215	
0	0	0	0	0	495	509	433	216	
1	0	0	0	0	471	504	433	214	
2	0	0	0	0	474	516	436	215	
3	0	0	0	0	505	521	438	215	
4	0	0	0	0	519	511	439	215	
5	0	0	0	0	525	508	440	217	
6	0	0	0	0	531	508	439	216	
7	0	0	0	0	526	504	440	216	
8	0	0	0	0	513	503	440	216	
9	0	0	0	0	513	502	441	216	
10	0	0	0	0	508	502	442	215	
11	0	0	0	0	514	504	440	216	
12	0	0	0	0	513	510	440	215	
13	0	0	0	0	516	518	440	216	
14	0	0	0	0	517	510	441	216	
15	0	0	0	0	518	510	442	217	
0	0	0	0	0	513	512	440	216	
1	0	0	0	0	507	504	442	216	
2	0	0	0	0	509	505	442	216	
3	0	0	0	0	512	505	441	216	
4	0	0	0	0	515	500	442	215	
5	0	0	0	0	515	506	443	216	
6	0	0	0	0	515	508	442	217	
7	0	0	0	0	505	513	441	215	
8	0	0	0	0	509	516	442	216	
9	0	0	0	0	518	517	441	217	
10	0	0	0	0	516	509	442	217	
11	0	0	0	0	517	505	443	218	
12	0	0	0	0	511	507	443	217	
13	0	0	0	0	502	503	443	219	
14	0	0	0	0	499	499	444	219	
15	0	0	0	0	502	512	444	218	
0	0	0	0	0	511	512	446	217	
1	0	0	0	0	509	509	447	216	
2	0	0	0	0	509	510	445	216	
3	0	0	0	0	511	510	446	217	
4	0	0	0	0	520	507	447	216	
5	0	0	0	0	516	508	447	216	
6	0	0	0	0	512	513	448	218	
7	0	0	0	0	513	515	446	218	
8	0	0	0	0	515	503	447	217	
9	0	0	0	0	511	502	447	217	
10	0	0	0	0	505	502	448	219	
11	0	0	0	0	504	504	448	220	
12	0	0	0	0	508	506	448	217	
13	0	0	0	0	513	509	449	218	
14	0	0	0	0	515	510	449	218	
15	0	0	0	0	519	510	449	218	
0	0	0	0	0	524	508	450	219	
1	0	0	0	0	508	509	449	219	
2	0	0	0	0	505	513	451	219	
3	0	0	0	0	507	508	450	220	
4	0	0	0	0	506	507	450	221	
5	0	0	0	0	509	509	451	221	
6	0	0	0	0	506	506	452	222	
7	0	0	0	0	500	506	452	222	
8	0	0	0	0	508	513	452	222	
9	0	0	0	0	508	514	451	222	
10	0	0	0	0	509	505	451	222	
11	0	0	0	0	511	507	451	223	
12	0	0	0	0	516	505	453	223	
13	0	0	0	0	520	502	452	222	
14	0	0	0	0	524	507	453	223	
15	0	0	0	0	515	508	454	224	
0	0	0	0	0	507	508	453	224	
1	0	0	0	0	506	508	455	223	
2	0	0	0	0	506	509	455	225	
3	0	0	0	0	513	510	455	227	
4	0	0	0	0	513	514	455	228	
5	0	0	0	0	511	508	455	227	
6	0	0	0	0	506	509	456	228	
7	0	0	0	0	511	509	457	229	
8	0	0	0	0	513	504	457	226	
9	0	0	0	0	516	497	457	226	
10	0	0	0	0	518	504	457	227	
11	0	0	0	0	511	506	456	227	
12	0	0	0	0	508	510	455	225	
13	0	0	0	0	506	508	457	227	
14	0	0	0	0	505	505	457	227	
15	0	0	0	0	503	512	457	227	
0	0	0	0	0	504	522	457	227	
1	0	0	0	0	509	518	458	225	
2	0	0	0	0	511	510	457	226	
3	0	0	0	0	520	505	459	226	
4	0	0	0	0	514	510	456	226	
5	0	0	0	0	512	504	457	227	
6	0	0	0	0	512	498	456	225	
7	0	0	0	0	510	505	459	226	
8	0	0	0	0	515	502	457	226	
9	0	0	0	0	519	507	459	226	
10	0	0	0	0	516	509	459	227	
11	0	0	0	0	512	506	457	226	
12	0	0	0	0	513	517	458	227	
13	0	0	0	0	511	514	458	229	
14	0	0	0	0	511	506	459	229	
15	0	0	0	0	513	504	459	228	
0	0	0	0	0	511	507	461	229	
1	0	0	0	0	512	511	461	229	
2	0	0	0	0	509	505	461	230	
3	0	0	0	0	508	500	463	231	
4	0	0	0	0	509	510	463	230	
5	0	0	0	0	508	514	461	229	
6	0	0	0	0	512	510	462	231	
7	0	0	0	0	516	508	462	229	
8	0	0	0	0	518	509	462	230	
9	0	0	0	0	510	511	463	228	
10	0	0	0	0	511	511	462	228	
11	0	0	0	0	509	509	462	228	
12	0	0	0	0	506	509	462	228	
13	0	0	0	0	509	507	462	228	
14	0	0	0	0	516	506	463	228	
15	0	0	0	0	513	505	463	229	
0	0	0	0	0	515	504	463	229	
1	0	0	0	0	507	507	463	230	
2	0	0	0	0	510	501	463	230	
3	0	0	0	0	514	509	464	229	
4	0	0	0	0	510	510	463	229	
5	0	0	0	0	507	509	463	229	
6	0	0	0	0	512	510	463	230	
7	0	0	0	0	512	515	464	229	
8	0	0	0	0	514	508	463	230	
9	0	0	0	0	504	506	465	231	
10	0	0	0	0	507	506	465	230	
11	0	0	0	0	512	509	463	230	
12	0	0	0	0	518	510	464	231	
13	0	0	0	0	511	505	465	230	
14	0	0	0	0	505	502	465	231	
15	0	0	0	0	500	508	464	231	
0	0	0	0	0	509	511	464	231	
1	0	0	0	0	508	510	465	231	
2	0	0	0	0	510	510	464	230	
3	0	0	0	0	516	508	464	231	
4	0	0	0	0	522	507	465	231	
5	0	0	0	0	520	506	465	231	
6	0	0	0	0	511	509	465	231	
7	0	0	0	0	512	509	464	231	
8	0	0	0	0	514	508	465	231	
9	0	0	0	0	510	509	464	231	
10	0	0	0	0	510	508	465	232	
11	0	0	0	0	512	510	466	233	
12	0	0	0	0	516	512	465	235	
13	0	0	0	0	511	506	465	235	
14	0	0	0	0	511	506	465	235	
15	0	0	0	0	510	508	465	235	
0	0	0	0	0	510	508	465	235	
1	0	0	0	0	505	506	466	234	
2	0	0	0	0	507	510	464	234	
3	0	0	0	0	511	507	464	235	
4	0	0	0	0	515	499	466	235	
5	0	0	0	0	517	500	465	235	
6	0	0	0	0	512	507	465	236	
7	0	0	0	0	512	513	466	234	
8	0	0	0	0	504	515	465	235	
9	0	0	0	0	510	510	466	235	
10	0	0	0	0	511	511	465	234	
11	0	0	0	0	505	507	465	236	
12	0	0	0	0	510	505	465	235	
13	0	0	0	0	508	506	466	234	
14	0	0	0	0	509	510	465	232	
15	0	0	0	0	510	509	465	231	
0	0	0	0	0	511	508	464	231	
1	0	0	0	0	510	511	465	230	
2	0	0	0	0	513	508	465	230	
3	0	0	0	0	514	509	465	230	
4	0	0	0	0	512	508	465	229	
5	0	0	0	0	511	506	463	227	
6	0	0	0	0	513	507	461	227	
7	0	0	0	0	512	509	460	226	
8	0	0	0	0	510	511	459	227	
9	0	0	0	0	506	506	457	225	
10	0	0	0	0	503	505	456	226	
11	0	0	0	0	509	509	457	226	
12	0	0	0	0	508	509	455	226	
13	0	0	0	0	515	505	455	226	
14	0	0	0	0	520	503	453	226	
15	0	0	0	0	522	504	454	226	
0	0	0	0	0	519	504	454	225	
1	0	0	0	0	516	509	455	225	
2	0	0	0	0	515	508	455	224	
3	0	0	0	0	511	506	451	224	
4	0	0	0	0	509	513	452	224	
5	0	0	0	0	509	513	454	224	
6	0	0	0	0	506	512	453	224	
7	0	0	0	0	511	512	451	223	
8	0	0	0	0	507	509	451	224	
9	0	0	0	0	509	506	451	224	
10	0	0	0	0	513	508	451	223	
11	0	0	0	0	508	509	453	223	
12	0	0	0	0	508	507	453	223	
13	0	0	0	0	508	511	452	223	
14	0	0	0	0	512	507	454	222	
15	0	0	0	0	511	503	452	222	
0	0	0	0	0	508	502	452	222	
1	0	0	0	0	506	506	453	221	
2	0	0	0	0	511	509	454	221	
3	0	0	0	0	515	512	454	221	
4	0	0	0	0	513	507	452	222	
5	0	0	0	0	510	511	452	221	
6	0	0	0	0	507	511	451	223	
7	0	0	0	0	510	509	451	223	
8	0	0	0	0	513	508	451	223	
9	0	0	0	0	513	508	450	223	
10	0	0	0	0	512	505	450	223	
11	0	0	0	0	514	508	445	223	
12	0	0	0	0	513	507	446	223	
13	0	0	0	0	515	505	445	223	
14	0	0	0	0	512	506	446	222	
15	0	0	0	0	508	509	447	223	
0	0	0	0	0	511	511	447	222	
1	0	0	0	0	512	513	446	220	
2	0	0	0	0	510	510	446	221	
3	0	0	0	0	508	508	445	220	
4	0	0	0	0	510	506	445	220	
5	0	0	0	0	511	512	445	220	
6	0	0	0	0	510	510	444	221	
7	0	0	0	0	512	502	444	220	
8	0	0	0	0	513	508	446	220	
9	0	0	0	0	511	508	443	220	
10	0	0	0	0	512	506	442	220	
11	0	0	0	0	514	504	441	219	
12	0	0	0	0	514	503	440	219	
13	0	0	0	0	515	510	443	219	
14	0	0	0	0	511	510	443	217	
15	0	0	0	0	512	511	442	219	
0	0	0	0	0	512	509	444	217	
1	0	0	0	0	508	510	443	217	
2	0	0	0	0	515	510	444	221	
3	0	0	0	0	518	507	443	221	
4	0	0	0	0	510	508	443	221	
5	0	0	0	0	508	510	443	221	
6	0	0	0	0	506	507	443	220	
7	0	0	0	0	504	508	442	221	
8	0	0	0	0	506	507	441	220	
9	0	0	0	0	507	506	440	216	
10	0	0	0	0	504	508	440	216	
11	0	0	0	0	511	509	437	216	
12	0	0	0	0	511	508	438	217	
13	0	0	0	0	523	509	437	217	
14	0	0	0	0	526	509	438	217	
15	0	0	0	0	513	507	437	216	
0	0	0	0	0	512	508	438	216	
1	0	0	0	0	511	509	438	215	
2	0	0	0	0	512	511	436	215	
3	0	0	0	0	504	504	436	213	
4	0	0	0	0	497	503	435	212	
5	0	0	0	0	506	507	435	212	
6	0	0	0	0	510	508	435	213	
7	0	0	0	0	518	510	436	212	
8	0	0	0	0	521	513	436	213	
9	0	0	0	0	511	509	436	212	
10	0	0	0	0	511	508	437	212	
11	0	0	0	0	506	510	435	210	
12	0	0	0	0	504	509	433	210	
13	0	0	0	0	511	504	432	211	
14	0	0	0	0	506	507	434	211	
15	0	0	0	0	506	507	433	210	
0	0	0	0	0	510	506	432	211	
1	0	0	0	0	509	504	432	210	
2	0	0	0	0	512	510	432	209	
3	0	0	0	0	520	512	435	208	
4	0	0	0	0	516	506	435	208	
5	0	0	0	0	516	508	434	207	
6	0	0	0	0	518	507	433	207	
7	0	0	0	0	515	509	433	205	
8	0	0	0	0	515	512	432	204	
9	0	0	0	0	512	511	432	204	
10	0	0	0	0	509	508	433	204	
11	0	0	0	0	505	509	433	204	
12	0	0	0	0	510	510	434	203	
13	0	0	0	0	509	510	436	203	
14	0	0	0	0	510	508	437	202	
15	0	0	0	0	512	504	431	201	
0	0	0	0	0	513	503	430	203	
1	0	0	0	0	510	507	430	202	
2	0	0	0	0	508	511	430	202	
3	0	0	0	0	507	509	430	202	
4	0	0	0	0	509	510	429	203	
5	0	0	0	0	514	510	428	200	
6	0	0	0	0	514	509	429	200	
7	0	0	0	0	510	506	429	199	
8	0	0	0	0	507	505	430	200	
9	0	0	0	0	507	505	430	199	
10	0	0	0	0	508	505	429	198	
11	0	0	0	0	511	508	431	198	
12	0	0	0	0	515	507	432	199	
13	0	0	0	0	515	508	429	198	
14	0	0	0	0	511	506	430	196	
15	0	0	0	0	509	505	430	196	
0	0	0	0	0	511	508	430	196	
1	0	0	0	0	514	513	430	196	
2	0	0	0	0	514	508	431	195	
3	0	0	0	0	507	508	430	195	
4	0	0	0	0	511	511	431	195	
5	0	0	0	0	512	509	430	195	
6	0	0	0	0	513	504	430	194	
7	0	0	0	0	515	509	431	194	
8	0	0	0	0	514	509	431	192	
9	0	0	0	0	509	508	430	193	
10	0	0	0	0	511	504	431	191	
11	0	0	0	0	514	508	429	192	
12	0	0	0	0	515	512	431	192	
13	0	0	0	0	512	509	430	192	
14	0	0	0	0	510	508	430	191	
15	0	0	0	0	512	514	430	190	
0	0	0	0	0	512	509	431	190	
1	0	0	0	0	512	504	431	188	
2	0	0	0	0	511	507	430	187	
3	0	0	0	0	510	508	430	185	
4	0	0	0	0	508	506	432	184	
5	0	0	0	0	510	508	431	184	
6	0	0	0	0	512	507	430	182	
7	0	0	0	0	509	508	431	182	
8	0	0	0	0	503	505	430	183	
9	0	0	0	0	505	505	431	183	
10	0	0	0	0	510	507	432	180	
11	0	0	0	0	512	510	431	181	
12	0	0	0	0	511	509	432	181	
13	0	0	0	0	513	505	432	181	
14	0	0	0	0	514	510	432	182	
15	0	0	0	0	514	513	431	182	
0	0	0	0	0	513	508	431	180	
1	0	0	0	0	515	508	432	179	
2	0	0	0	0	517	511	432	179	
3	0	0	0	0	518	504	433	177	
4	0	0	0	0	512	505	433	176	
5	0	0	0	0	509	509	432	174	
6	0	0	0	0	503	510	432	174	
7	0	0	0	0	505	512	433	174	
8	0	0	0	0	503	504	434	175	
9	0	0	0	0	506	505	433	174	
10	0	0	0	0	510	510	433	174	
11	0	0	0	0	507	508	433	175	
12	0	0	0	0	505	511	432	175	
13	0	0	0	0	515	511	432	175	
14	0	0	0	0	515	508	432	173	
15	0	0	0	0	513	505	432	173	
0	0	0	0	0	514	506	433	172	
1	0	0	0	0	513	505	432	172	
2	0	0	0	0	511	508	431	171	
3	0	0	0	0	516	509	432	171	
4	0	0	0	0	513	510	431	172	
5	0	0	0	0	511	508	432	171	
6	0	0	0	0	511	507	432	172	
7	0	0	0	0	512	511	431	171	
8	0	0	0	0	508	508	431	171	
9	0	0	0	0	505	505	431	172	
10	0	0	0	0	508	509	431	171	
11	0	0	0	0	511	511	431	171	
12	0	0	0	0	510	505	431	172	
13	0	0	0	0	507	504	431	172	
14	0	0	0	0	509	508	430	172	
15	0	0	0	0	511	511	432	170	
0	0	0	0	0	518	511	432	171	
1	0	0	0	0	511	508	431	169	
2	0	0	0	0	508	505	430	168	
3	0	0	0	0	512	511	431	169	
4	0	0	0	0	511	507	429	168	
5	0	0	0	0	518	510	430	168	
6	0	0	0	0	518	510	430	167	
7	0	0	0	0	516	507	431	168	
8	0	0	0	0	514	509	431	168	
9	0	0	0	0	506	505	431	168	
10	0	0	0	0	505	504	431	167	
11	0	0	0	0	508	502	432	167	
12	0	0	0	0	510	507	432	168	
13	0	0	0	0	518	512	432	167	
14	0	0	0	0	516	513	432	167	
15	0	0	0	0	520	517	432	167	
0	0	0	0	0	511	508	431	165	
1	0	0	0	0	505	508	431	163	
2	0	0	0	0	506	503	431	165	
3	0	0	0	0	505	504	431	166	
4	0	0	0	0	507	507	431	166	
5	0	0	0	0	512	506	431	166	
6	0	0	0	0	514	507	431	167	
7	0	0	0	0	512	509	431	167	
8	0	0	0	0	510	510	431	163	
9	0	0	0	0	511	509	430	163	
10	0	0	0	0	509	506	430	163	
11	0	0	0	0	514	506	430	163	
12	0	0	0	0	515	510	429	161	
13	0	0	0	0	519	509	429	161	
14	0	0	0	0	512	508	430	160	
15	0	0	0	0	506	509	431	161	
0	0	0	0	0	504	511	430	160	
1	0	0	0	0	501	511	430	159	
2	0	0	0	0	506	508	430	158	
3	0	0	0	0	515	505	429	151	
4	0	0	0	0	511	505	430	155	
5	0	0	0	0	515	507	430	153	
6	0	0	0	0	517	510	429	151	
7	0	0	0	0	517	510	428	155	
8	0	0	0	0	512	504	428	152	
9	0	0	0	0	510	505	428	152	
10	0	0	0	0	511	509	428	152	
11	0	0	0	0	510	511	428	152	
12	0	0	0	0	510	512	428	153	
13	0	0	0	0	508	506	428	153	
14	0	0	0	0	511	506	426	146	
15	0	0	0	0	512	502	427	117	
0	0	0	0	0	515	506	427	118	
1	0	0	0	0	515	508	428	122	
2	0	0	0	0	516	510	427	124	
3	0	0	0	0	515	510	426	121	
4	0	0	0	0	511	510	427	122	
5	0	0	0	0	503	503	428	123	
6	0	0	0	0	506	504	427	124	
7	0	0	0	0	510	511	427	123	
8	0	0	0	0	508	511	428	125	
9	0	0	0	0	510	511	428	126	
10	0	0	0	0	508	509	427	129	
11	0	0	0	0	510	510	427	129	
12	0	0	0	0	514	509	426	128	
13	0	0	0	0	514	506	426	129	
14	0	0	0	0	513	508	426	131	
15	0	0	0	0	509	508	427	132	
0	0	0	0	0	510	506	426	130	
1	0	0	0	0	509	511	425	132	
2	0	0	0	0	508	508	426	131	
3	0	0	0	0	506	508	426	127	
4	0	0	0	0	508	507	425	126	
5	0	0	0	0	513	508	425	122	
6	0	0	0	0	508	504	426	123	
7	0	0	0	0	503	505	427	124	
8	0	0	0	0	504	508	425	122	
9	0	0	0	0	510	511	427	122	
10	0	0	0	0	516	508	427	124	
11	0	0	0	0	519	508	427	124	
12	0	0	0	0	519	509	428	123	
13	0	0	0	0	517	509	428	120	
14	0	0	0	0	511	510	427	120	
15	0	0	0	0	511	511	427	124	
0	0	0	0	0	511	508	428	120	
1	0	0	0	0	509	504	427	121	
2	0	0	0	0	509	505	428	123	
3	0	0	0	0	511	512	427	120	
4	0	0	0	0	514	510	427	120	
5	0	0	0	0	513	508	427	119	
6	0	0	0	0	514	505	426	117	
7	0	0	0	0	518	504	425	118	
8	0	0	0	0	512	506	424	116	
9	0	0	0	0	511	508	424	118	
10	0	0	0	0	505	507	424	119	
11	0	0	0	0	509	505	423	117	
12	0	0	0	0	510	507	422	116	
13	0	0	0	0	511	511	422	118	
14	0	0	0	0	510	510	421	117	
15	0	0	0	0	507	517	420	117	
0	0	0	0	0	509	511	419	116	
1	0	0	0	0	513	507	418	115	
2	0	0	0	0	512	508	419	119	
3	0	0	0	0	508	502	419	119	
4	0	0	0	0	510	508	417	122	
5	0	0	0	0	510	507	417	125	
6	0	0	0	0	513	505	417	123	
7	0	0	0	0	514	510	416	123	
8	0	0	0	0	514	510	416	121	
9	0	0	0	0	513	507	415	120	
10	0	0	0	0	508	500	416	121	
11	0	0	0	0	513	510	417	121	
12	0	0	0	0	518	513	416	125	
13	0	0	0	0	515	512	416	123	
14	0	0	0	0	515	510	416	124	
15	0	0	0	0	512	508	416	123	
0	0	0	0	0	511	505	416	123	
1	0	0	0	0	507	507	416	124	
2	0	0	0	0	505	508	415	122	
3	0	0	0	0	503	504	416	121	
4	0	0	0	0	509	507	416	123	
5	0	0	0	0	511	508	415	123	
6	0	0	0	0	510	507	415	124	
7	0	0	0	0	511	510	416	124	
8	0	0	0	0	514	509	416	126	
9	0	0	0	0	510	508	416	125	
10	0	0	0	0	509	511	415	126	
11	0	0	0	0	509	510	415	126	
12	0	0	0	0	511	509	415	124	
13	0	0	0	0	513	508	416	125	
14	0	0	0	0	512	508	415	126	
15	0	0	0	0	507	508	416	125	
0	0	0	0	0	511	511	416	126	
1	0	0	0	0	509	503	416	124	
2	0	0	0	0	513	507	416	125	
3	0	0	0	0	514	508	416	126	
4	0	0	0	0	510	507	416	125	
5	0	0	0	0	515	510	417	126	
6	0	0	0	0	518	507	416	126	
7	0	0	0	0	513	509	416	124	
8	0	0	0	0	508	509	416	125	
9	0	0	0	0	507	511	415	123	
10	0	0	0	0	511	507	415	124	
11	0	0	0	0	512	507	415	123	
12	0	0	0	0	512	505	416	124	
13	0	0	0	0	506	506	416	123	
14	0	0	0	0	514	508	416	123	
15	0	0	0	0	526	506	416	124	
0	0	0	0	0	513	507	416	124	
1	0	0	0	0	508	508	415	123	
2	0	0	0	0	506	508	415	123	
3	0	0	0	0	505	506	415	124	
4	0	0	0	0	510	508	415	124	
5	0	0	0	0	511	510	414	124	
6	0	0	0	0	507	506	415	125	
7	0	0	0	0	510	508	416	125	
8	0	0	0	0	511	506	416	127	
9	0	0	0	0	506	507	416	124	
10	0	0	0	0	509	512	415	125	
11	0	0	0	0	513	510	415	125	
12	0	0	0	0	511	510	415	125	
13	0	0	0	0	515	502	414	125	
14	0	0	0	0	517	502	415	124	
15	0	0	0	0	510	508	415	123	
0	0	0	0	0	511	514	415	121	
1	0	0	0	0	509	512	416	120	
2	0	0	0	0	511	511	415	120	
3	0	0	0	0	516	508	415	120	
4	0	0	0	0	513	505	416	121	
5	0	0	0	0	513	505	416	122	
6	0	0	0	0	496	504	416	121	
7	0	0	0	0	494	505	416	122	
8	0	0	0	0	502	509	416	123	
9	0	0	0	0	513	510	417	124	
10	0	0	0	0	515	508	416	124	
11	0	0	0	0	519	507	417	124	
12	0	0	0	0	523	511	417	124	
13	0	0	0	0	517	509	417	124	
14	0	0	0	0	514	508	416	124	
15	0	0	0	0	513	511	417	123	
0	0	0	0	0	506	509	418	123	
1	0	0	0	0	509	508	418	119	
2	0	0	0	0	511	507	417	118	
3	0	0	0	0	510	505	417	118	
4	0	0	0	0	510	507	416	119	
5	0	0	0	0	510	506	417	120	
6	0	0	0	0	511	508	417	120	
7	0	0	0	0	518	512	417	120	
8	0	0	0	0	513	511	417	119	
9	0	0	0	0	507	506	417	119	
10	0	0	0	0	510	508	416	119	
11	0	0	0	0	511	508	417	120	
12	0	0	0	0	513	505	418	119	
13	0	0	0	0	513	504	418	119	
14	0	0	0	0	512	504	417	121	
15	0	0	0	0	511	508	418	120	
0	0	0	0	0	510	504	417	121	
1	0	0	0	0	506	504	417	121	
2	0	0	0	0	504	508	417	121	
3	0	0	0	0	503	509	418	120	
4	0	0	0	0	510	515	418	122	
5	0	0	0	0	516	517	418	122	
6	0	0	0	0	514	510	418	122	
7	0	0	0	0	515	512	418	121	
8	0	0	0	0	513	506	419	121	
9	0	0	0	0	511	508	418	122	
10	0	0	0	0	511	507	417	122	
11	0	0	0	0	508	507	416	123	
12	0	0	0	0	510	506	416	124	
13	0	0	0	0	510	506	417	121	
14	0	0	0	0	511	506	418	121	
15	0	0	0	0	509	506	416	122	
0	0	0	0	0	507	507	418	121	
1	0	0	0	0	511	509	417	121	
2	0	0	0	0	513	508	417	121	
3	0	0	0	0	514	508	417	121	
4	0	0	0	0	511	506	417	121	
5	0	0	0	0	514	506	418	122	
6	0	0	0	0	513	509	417	121	
7	0	0	0	0	511	509	417	120	
8	0	0	0	0	511	503	417	121	
9	0	0	0	0	507	504	417	120	
10	0	0	0	0	508	508	415	121	
11	0	0	0	0	513	510	416	121	
12	0	0	0	0	510	508	417	121	
13	0	0	0	0	510	509	417	120	
14	0	0	0	0	512	509	416	122	
15	0	0	0	0	513	512	417	121	
0	0	0	0	0	517	516	417	121	
1	0	0	0	0	513	507	417	120	
2	0	0	0	0	512	504	417	120	
3	0	0	0	0	514	508	416	119	
4	0	0	0	0	508	504	415	119	
5	0	0	0	0	507	505	416	119	
6	0	0	0	0	509	510	416	120	
7	0	0	0	0	513	510	416	119	
8	0	0	0	0	509	504	416	120	
9	0	0	0	0	505	503	415	119	
10	0	0	0	0	515	510	415	118	
11	0	0	0	0	510	511	415	120	
12	0	0	0	0	508	507	417	120	
13	0	0	0	0	507	507	417	120	
14	0	0	0	0	510	509	416	120	
15	0	0	0	0	507	510	416	121	
0	0	0	0	0	512	509	417	122	
1	0	0	0	0	511	510	416	121	
2	0	0	0	0	515	509	417	120	
3	0	0	0	0	512	507	416	121	
4	0	0	0	0	510	508	416	120	
5	0	0	0	0	513	506	416	120	
6	0	0	0	0	510	509	417	120	
7	0	0	0	0	512	508	418	120	
8	0	0	0	0	512	504	418	120	
9	0	0	0	0	512	506	418	121	
10	0	0	0	0	515	506	417	120	
11	0	0	0	0	511	509	417	121	
12	0	0	0	0	507	509	417	121	
13	0	0	0	0	509	508	417	121	
14	0	0	0	0	511	511	417	121	
15	0	0	0	0	511	511	418	120	
0	0	0	0	0	512	509	418	120	
1	0	0	0	0	513	507	418	121	
2	0	0	0	0	516	509	419	122	
3	0	0	0	0	518	511	419	122	
4	0	0	0	0	513	509	419	122	
5	0	0	0	0	512	511	419	122	
6	0	0	0	0	500	508	419	122	
7	0	0	0	0	497	508	419	123	
8	0	0	0	0	498	508	418	121	
9	0	0	0	0	505	507	418	121	
10	0	0	0	0	515	505	418	122	
11	0	0	0	0	524	508	418	122	
12	0	0	0	0	520	507	417	123	
13	0	0	0	0	511	505	417	123	
14	0	0	0	0	510	507	417	123	
15	0	0	0	0	515	507	417	122	
0	0	0	0	0	507	510	418	123	
1	0	0	0	0	507	508	417	123	
2	0	0	0	0	512	509	416	123	
3	0	0	0	0	513	511	417	123	
4	0	0	0	0	512	510	417	123	
5	0	0	0	0	515	509	417	123	
6	0	0	0	0	512	510	417	123	
7	0	0	0	0	505	509	418	123	
8	0	0	0	0	511	503	419	123	
9	0	0	0	0	508	501	419	122	
10	0	0	0	0	507	501	419	123	
11	0	0	0	0	519	502	419	123	
12	0	0	0	0	517	506	419	123	
13	0	0	0	0	509	512	418	122	
14	0	0	0	0	508	514	417	123	
15	0	0	0	0	505	511	417	123	
0	0	0	0	0	512	516	418	123	
1	0	0	0	0	515	513	418	124	
2	0	0	0	0	507	507	418	124	
3	0	0	0	0	513	506	417	124	
4	0	0	0	0	519	507	417	124	
5	0	0	0	0	512	504	418	124	
6	0	0	0	0	510	505	417	124	
7	0	0	0	0	509	507	417	124	
8	0	0	0	0	510	505	418	125	
9	0	0	0	0	511	508	417	124	
10	0	0	0	0	509	510	418	124	
11	0	0	0	0	508	512	419	124	
12	0	0	0	0	509	511	418	125	
13	0	0	0	0	512	507	418	124	
14	0	0	0	0	511	506	418	125	
15	0	0	0	0	512	506	418	125	
0	0	0	0	0	512	510	417	125	
1	0	0	0	0	511	508	418	125	
2	0	0	0	0	511	508	418	125	
3	0	0	0	0	512	508	419	125	
4	0	0	0	0	515	508	419	125	
5	0	0	0	0	511	508	418	125	
6	0	0	0	0	511	509	417	125	
7	0	0	0	0	511	505	418	124	
8	0	0	0	0	507	508	418	125	
9	0	0	0	0	507	507	418	124	
10	0	0	0	0	509	505	417	124	
11	0	0	0	0	513	511	417	124	
12	0	0	0	0	513	510	417	125	
13	0	0	0	0	511	509	418	125	
14	0	0	0	0	510	505	417	125	
15	0	0	0	0	511	505	417	125	
0	0	0	0	0	512	511	417	125	
1	0	0	0	0	511	510	418	125	
2	0	0	0	0	509	507	417	124	
3	0	0	0	0	511	506	418	124	
4	0	0	0	0	513	508	418	124	
5	0	0	0	0	511	507	418	124	
6	0	0	0	0	514	510	418	124	
7	0	0	0	0	511	510	417	124	
8	0	0	0	0	511	510	417	125	
9	0	0	0	0	511	508	418	125	
10	0	0	0	0	513	508	417	124	
11	0	0	0	0	512	508	417	125	
12	0	0	0	0	511	507	417	124	
13	0	0	0	0	510	507	417	125	
14	0	0	0	0	508	510	416	125	
15	0	0	0	0	511	511	416	125	
0	0	0	0	0	512	507	416	125	
1	0	0	0	0	511	506	416	125	
2	0	0	0	0	508	510	416	125	
3	0	0	0	0	505	505	415	124	
4	0	0	0	0	506	505	415	125	
5	0	0	0	0	505	506	415	124	
6	0	0	0	0	511	510	415	124	
7	0	0	0	0	512	511	415	124	
8	0	0	0	0	513	509	415	124	
9	0	0	0	0	512	508	414	124	
10	0	0	0	0	515	504	415	125	
11	0	0	0	0	518	506	415	125	
12	0	0	0	0	518	511	415	125	
13	0	0	0	0	513	513	414	125	
14	0	0	0	0	516	510	414	125	
15	0	0	0	0	517	508	414	125	
0	0	0	0	0	509	506	414	125	
1	0	0	0	0	508	508	414	125	
2	0	0	0	0	506	506	414	124	
3	0	0	0	0	505	504	414	124	
4	0	0	0	0	502	504	414	124	
5	0	0	0	0	507	505	413	124	
6	0	0	0	0	515	507	414	124	
7	0	0	0	0	519	508	413	124	
8	0	0	0	0	518	511	414	124	
9	0	0	0	0	508	509	414	124	
10	0	0	0	0	508	507	413	125	
11	0	0	0	0	510	508	413	124	
12	0	0	0	0	509	508	412	124	
13	0	0	0	0	512	508	414	124	
14	0	0	0	0	512	509	413	124	
15	0	0	0	0	508	509	413	124	
0	0	0	0	0	509	508	412	124	
1	0	0	0	0	511	509	412	124	
2	0	0	0	0	511	510	412	124	
3	0	0	0	0	518	509	412	124	
4	0	0	0	0	512	506	412	124	
5	0	0	0	0	512	505	412	124	
6	0	0	0	0	511	508	411	124	
7	0	0	0	0	515	511	411	124	
8	0	0	0	0	511	508	412	123	
9	0	0	0	0	508	507	412	123	
10	0	0	0	0	510	508	411	123	
11	0	0	0	0	505	514	412	123	
12	0	0	0	0	503	512	412	124	
13	0	0	0	0	506	509	412	124	
14	0	0	0	0	512	507	411	124	
15	0	0	0	0	511	507	412	124	
0	0	0	0	0	511	508	412	124	
1	0	0	0	0	513	503	412	124	
2	0	0	0	0	521	503	412	124	
3	0	0	0	0	520	505	412	123	
4	0	0	0	0	513	503	413	123	
5	0	0	0	0	513	510	412	124	
6	0	0	0	0	512	510	412	124	
7	0	0	0	0	511	510	412	124	
8	0	0	0	0	511	512	412	123	
9	0	0	0	0	512	507	412	123	
10	0	0	0	0	513	507	412	122	
11	0	0	0	0	509	507	411	123	
12	0	0	0	0	510	509	411	123	
13	0	0	0	0	508	508	411	123	
14	0	0	0	0	507	507	411	123	
15	0	0	0	0	507	512	411	123	
0	0	0	0	0	508	510	410	123	
1	0	0	0	0	505	508	410	122	
2	0	0	0	0	510	507	411	123	
3	0	0	0	0	512	511	410	122	
4	0	0	0	0	511	510	412	122	
5	0	0	0	0	509	506	412	123	
6	0	0	0	0	513	508	412	123	
7	0	0	0	0	508	508	411	123	
8	0	0	0	0	513	506	412	123	
9	0	0	0	0	512	504	412	122	
10	0	0	0	0	510	505	412	123	
11	0	0	0	0	515	504	412	123	
12	0	0	0	0	514	510	411	123	
13	0	0	0	0	513	513	411	123	
14	0	0	0	0	512	510	411	122	
15	0	0	0	0	511	513	410	122	
0	0	0	0	0	516	509	410	123	
1	0	0	0	0	510	505	411	123	
2	0	0	0	0	511	507	411	123	
3	0	0	0	0	510	511	411	122	
4	0	0	0	0	508	508	411	123	
5	0	0	0	0	508	506	412	123	
6	0	0	0	0	505	505	411	122	
7	0	0	0	0	507	508	412	123	
8	0	0	0	0	508	509	411	123	
9	0	0	0	0	514	508	412	123	
10	0	0	0	0	514	507	412	122	
11	0	0	0	0	511	506	412	123	
12	0	0	0	0	511	508	413	123	
13	0	0	0	0	510	506	412	123	
14	0	0	0	0	511	508	412	123	
15	0	0	0	0	511	511	412	123	
0	0	0	0	0	513	507	412	123	
1	0	0	0	0	512	507	413	123	
2	0	0	0	0	510	504	413	122	
3	0	0	0	0	506	507	413	123	
4	0	0	0	0	507	508	413	123	
5	0	0	0	0	508	508	412	123	
6	0	0	0	0	514	511	413	123	
7	0	0	0	0	517	508	412	123	
8	0	0	0	0	520	510	411	123	
9	0	0	0	0	524	510	412	123	
10	0	0	0	0	522	508	413	123	
11	0	0	0	0	514	507	413	124	
12	0	0	0	0	508	512	412	124	
13	0	0	0	0	497	508	412	124	
14	0	0	0	0	506	507	413	123	
15	0	0	0	0	509	502	412	123	
0	0	0	0	0	507	503	412	124	
1	0	0	0	0	514	509	412	123	
2	0	0	0	0	509	508	411	123	
3	0	0	0	0	510	507	412	123	
4	0	0	0	0	510	507	412	123	
5	0	0	0	0	509	509	411	123	
6	0	0	0	0	510	509	412	122	
7	0	0	0	0	511	508	411	123	
8	0	0	0	0	511	509	411	123	
9	0	0	0	0	512	510	412	122	
10	0	0	0	0	511	509	412	121	
11	0	0	0	0	511	512	412	122	
12	0	0	0	0	507	509	412	122	
13	0	0	0	0	509	506	412	123	
14	0	0	0	0	510	505	413	122	
15	0	0	0	0	512	508	413	123	
0	0	0	0	0	512	508	412	122	
1	0	0	0	0	515	508	412	122	
2	0	0	0	0	511	508	411	122	
3	0	0	0	0	512	505	412	122	
4	0	0	0	0	514	510	412	122	
5	0	0	0	0	513	507	410	123	
6	0	0	0	0	511	506	411	123	
7	0	0	0	0	510	508	411	122	
8	0	0	0	0	513	506	411	123	
9	0	0	0	0	513	510	411	123	
10	0	0	0	0	509	507	409	122	
11	0	0	0	0	509	506	410	122	
12	0	0	0	0	509	506	410	122	
13	0	0	0	0	512	513	411	122	
14	0	0	0	0	514	511	409	121	
15	0	0	0	0	510	510	409	122	
0	0	0	0	0	507	505	408	123	
1	0	0	0	0	511	508	409	121	
2	0	0	0	0	511	508	409	122	
3	0	0	0	0	511	511	408	122	
4	0	0	0	0	511	507	408	122	
5	0	0	0	0	504	504	409	123	
6	0	0	0	0	509	505	408	122	
7	0	0	0	0	504	504	408	123	
8	0	0	0	0	506	505	409	122	
9	0	0	0	0	511	506	411	123	
10	0	0	0	0	513	505	409	122	
11	0	0	0	0	516	504	411	123	
12	0	0	0	0	516	511	410	123	
13	0	0	0	0	511	510	410	123	
14	0	0	0	0	514	512	409	123	
15	0	0	0	0	514	511	410	121	
0	0	0	0	0	510	511	411	122	
1	0	0	0	0	509	509	410	122	
2	0	0	0	0	509	507	409	122	
3	0	0	0	0	511	505	409	122	
4	0	0	0	0	510	506	409	123	
5	0	0	0	0	512	512	410	123	
6	0	0	0	0	511	507	409	121	
7	0	0	0	0	513	507	408	123	
8	0	0	0	0	511	509	409	122	
9	0	0	0	0	511	509	408	122	
10	0	0	0	0	512	510	407	123	
11	0	0	0	0	512	510	408	123	
12	0	0	0	0	510	509	408	122	
13	0	0	0	0	510	508	408	123	
14	0	0	0	0	512	506	408	123	
15	0	0	0	0	516	508	407	123	
0	0	0	0	0	514	509	406	123	
1	0	0	0	0	512	507	406	123	
2	0	0	0	0	510	508	406	123	
3	0	0	0	0	507	509	406	123	
4	0	0	0	0	507	505	404	123	
5	0	0	0	0	509	509	404	123	
6	0	0	0	0	511	507	405	123	
7	0	0	0	0	511	510	405	123	
8	0	0	0	0	517	506	404	124	
9	0	0	0	0	519	506	404	124	
10	0	0	0	0	512	505	404	123	
11	0	0	0	0	505	509	404	123	
12	0	0	0	0	499	505	405	123	
13	0	0	0	0	500	506	404	124	
14	0	0	0	0	508	511	404	123	
15	0	0	0	0	515	512	405	123	
0	0	0	0	0	517	512	404	124	
1	0	0	0	0	519	510	405	123	
2	0	0	0	0	510	507	405	124	
3	0	0	0	0	513	508	405	124	
4	0	0	0	0	511	507	404	123	
5	0	0	0	0	511	507	404	123	
6	0	0	0	0	512	506	404	123	
7	0	0	0	0	513	506	405	123	
8	0	0	0	0	512	505	405	123	
9	0	0	0	0	512	508	404	123	
10	0	0	0	0	509	507	404	123	
11	0	0	0	0	508	508	405	123	
12	0	0	0	0	509	508	406	123	
13	0	0	0	0	512	510	405	123	
14	0	0	0	0	515	509	404	122	
15	0	0	0	0	515	510	404	123	
0	0	0	0	0	514	508	405	123	
1	0	0	0	0	513	508	405	122	
2	0	0	0	0	511	510	405	122	
3	0	0	0	0	514	507	405	122	
4	0	0	0	0	511	508	405	122	
5	0	0	0	0	507	508	404	122	
6	0	0	0	0	508	507	403	123	
7	0	0	0	0	508	507	403	122	
8	0	0	0	0	503	509	403	122	
9	0	0	0	0	500	510	403	122	
10	0	0	0	0	501	510	403	122	
11	0	0	0	0	502	509	403	122	
12	0	0	0	0	512	508	403	121	
13	0	0	0	0	519	506	403	121	
14	0	0	0	0	522	503	403	122	
15	0	0	0	0	525	508	404	123	
0	0	0	0	0	512	505	403	122	
1	0	0	0	0	511	509	403	123	
2	0	0	0	0	511	508	403	122	
3	0	0	0	0	514	511	404	124	
4	0	0	0	0	511	505	404	122	
5	0	0	0	0	513	510	404	122	
6	0	0	0	0	515	511	405	122	
7	0	0	0	0	511	509	404	123	
8	0	0	0	0	511	506	404	122	
9	0	0	0	0	510	504	404	122	
10	0	0	0	0	510	506	403	122	
11	0	0	0	0	508	507	403	122	
12	0	0	0	0	512	509	403	123	
13	0	0	0	0	510	509	404	123	
14	0	0	0	0	512	510	404	121	
15	0	0	0	0	511	507	403	121	
0	0	0	0	0	508	506	403	120	
1	0	0	0	0	507	511	402	120	
2	0	0	0	0	506	509	402	121	
3	0	0	0	0	510	509	401	120	
4	0	0	0	0	511	508	401	120	
5	0	0	0	0	511	508	403	120	
6	0	0	0	0	511	511	402	121	
7	0	0	0	0	515	507	402	120	
8	0	0	0	0	512	511	403	120	
9	0	0	0	0	510	504	401	119	
10	0	0	0	0	512	505	401	120	
11	0	0	0	0	510	504	402	119	
12	0	0	0	0	508	508	401	119	
13	0	0	0	0	510	507	402	118	
14	0	0	0	0	511	510	402	118	
15	0	0	0	0	513	512	402	119	
0	0	0	0	0	516	509	402	118	
1	0	0	0	0	513	506	402	118	
2	0	0	0	0	513	504	402	119	
3	0	0	0	0	510	508	403	118	
4	0	0	0	0	513	511	402	119	
5	0	0	0	0	512	511	402	120	
6	0	0	0	0	510	511	402	119	
7	0	0	0	0	513	506	402	119	
8	0	0	0	0	513	507	401	120	
9	0	0	0	0	513	510	402	119	
10	0	0	0	0	510	505	402	118	
11	0	0	0	0	507	504	401	120	
12	0	0	0	0	507	507	401	119	
13	0	0	0	0	510	509	402	118	
14	0	0	0	0	511	507	403	119	
15	0	0	0	0	511	508	402	119	
0	0	0	0	0	512	511	402	118	
1	0	0	0	0	512	510	403	119	
2	0	0	0	0	511	507	402	119	
3	0	0	0	0	510	510	402	119	
4	0	0	0	0	512	512	401	118	
5	0	0	0	0	510	511	401	119	
6	0	0	0	0	511	504	401	118	
7	0	0	0	0	511	504	402	118	
8	0	0	0	0	514	509	402	118	
9	0	0	0	0	511	504	402	118	
10	0	0	0	0	512	507	402	118	
11	0	0	0	0	508	508	402	118	
12	0	0	0	0	507	508	402	118	
13	0	0	0	0	510	510	402	119	
14	0	0	0	0	509	510	403	119	
15	0	0	0	0	512	512	402	118	
0	0	0	0	0	512	507	402	118	
1	0	0	0	0	508	504	403	119	
2	0	0	0	0	511	504	403	119	
3	0	0	0	0	510	506	403	119	
4	0	0	0	0	510	508	403	119	
5	0	0	0	0	508	511	403	118	
6	0	0	0	0	516	511	403	118	
7	0	0	0	0	522	511	403	119	
8	0	0	0	0	516	508	404	119	
9	0	0	0	0	513	507	404	119	
10	0	0	0	0	512	507	404	118	
11	0	0	0	0	510	509	403	119	
12	0	0	0	0	509	509	403	119	
13	0	0	0	0	512	509	403	119	
14	0	0	0	0	507	507	403	118	
15	0	0	0	0	508	507	403	118	
0	0	0	0	0	510	509	402	119	
1	0	0	0	0	512	508	403	119	
2	0	0	0	0	511	508	403	119	
3	0	0	0	0	509	509	404	118	
4	0	0	0	0	512	509	403	119	
5	0	0	0	0	510	508	403	118	
6	0	0	0	0	511	506	403	118	
7	0	0	0	0	512	508	403	118	
8	0	0	0	0	515	506	404	119	
9	0	0	0	0	510	508	403	118	
10	0	0	0	0	510	508	403	119	
11	0	0	0	0	509	511	403	119	
12	0	0	0	0	511	507	403	119	
13	0	0	0	0	513	506	404	119	
14	0	0	0	0	516	508	404	119	
15	0	0	0	0	515	508	404	118	
0	0	0	0	0	511	509	404	119	
1	0	0	0	0	508	506	404	119	
2	0	0	0	0	511	508	403	119	
3	0	0	0	0	510	507	403	119	
4	0	0	0	0	507	508	403	119	
5	0	0	0	0	511	508	403	119	
6	0	0	0	0	510	510	403	118	
7	0	0	0	0	509	509	403	118	
8	0	0	0	0	512	510	403	119	
9	0	0	0	0	509	507	404	118	
10	0	0	0	0	510	507	404	118	
11	0	0	0	0	512	507	403	118	
12	0	0	0	0	514	511	403	119	
13	0	0	0	0	515	511	403	119	
14	0	0	0	0	513	508	403	118	
15	0	0	0	0	512	507	403	119	
0	0	0	0	0	510	508	403	118	
1	0	0	0	0	512	507	402	118	
2	0	0	0	0	511	504	403	117	
3	0	0	0	0	509	507	403	117	
4	0	0	0	0	510	508	403	117	
5	0	0	0	0	511	508	403	116	
6	0	0	0	0	511	510	403	117	
7	0	0	0	0	508	509	402	115	
8	0	0	0	0	510	508	403	115	
9	0	0	0	0	508	507	403	114	
10	0	0	0	0	511	510	401	114	
11	0	0	0	0	511	509	402	114	
12	0	0	0	0	513	509	403	114	
13	0	0	0	0	513	509	402	115	
14	0	0	0	0	512	508	402	114	
15	0	0	0	0	512	509	401	114	
0	0	0	0	0	513	507	401	113	
1	0	0	0	0	511	506	401	113	
2	0	0	0	0	512	507	401	111	
3	0	0	0	0	512	508	400	111	
4	0	0	0	0	510	504	400	111	
5	0	0	0	0	511	506	400	111	
6	0	0	0	0	511	508	399	111	
7	0	0	0	0	512	507	398	112	
8	0	0	0	0	515	509	399	112	
9	0	0	0	0	512	510	399	112	
10	0	0	0	0	511	510	399	112	
11	0	0	0	0	508	511	399	112	
12	0	0	0	0	506	508	399	113	
13	0	0	0	0	508	508	400	113	
14	0	0	0	0	508	509	399	114	
15	0	0	0	0	511	509	398	113	
0	0	0	0	0	512	509	399	113	
1	0	0	0	0	503	509	398	114	
2	0	0	0	0	504	507	398	112	
3	0	0	0	0	511	509	398	111	
4	0	0	0	0	515	508	398	113	
5	0	0	0	0	517	504	398	113	
6	0	0	0	0	514	508	397	113	
7	0	0	0	0	512	504	398	112	
8	0	0	0	0	519	504	397	113	
9	0	0	0	0	517	508	397	113	
10	0	0	0	0	513	511	397	113	
11	0	0	0	0	513	510	397	113	
12	0	0	0	0	509	510	397	113	
13	0	0	0	0	508	509	398	114	
14	0	0	0	0	509	508	398	114	
15	0	0	0	0	506	508	399	114	
0	0	0	0	0	505	507	399	114	
1	0	0	0	0	511	507	399	115	
2	0	0	0	0	510	508	399	115	
3	0	0	0	0	511	507	400	115	
4	0	0	0	0	514	506	399	115	
5	0	0	0	0	513	507	400	115	
6	0	0	0	0	510	511	398	115	
7	0	0	0	0	513	507	398	115	
8	0	0	0	0	514	508	397	114	
9	0	0	0	0	511	507	398	115	
10	0	0	0	0	512	508	398	115	
11	0	0	0	0	513	510	397	115	
12	0	0	0	0	511	508	397	114	
13	0	0	0	0	511	509	397	115	
14	0	0	0	0	509	510	397	114	
15	0	0	0	0	514	510	397	114	
0	0	0	0	0	515	506	397	114	
1	0	0	0	0	512	503	397	114	
2	0	0	0	0	516	504	397	114	
3	0	0	0	0	507	507	396	114	
4	0	0	0	0	504	505	397	113	
5	0	0	0	0	507	504	397	113	
6	0	0	0	0	509	508	396	113	
7	0	0	0	0	507	512	396	113	
8	0	0	0	0	512	513	395	114	
9	0	0	0	0	514	511	395	113	
10	0	0	0	0	514	511	395	114	
11	0	0	0	0	511	511	395	113	
12	0	0	0	0	508	511	395	113	
13	0	0	0	0	511	504	395	114	
14	0	0	0	0	512	500	394	113	
15	0	0	0	0	518	506	394	114	
0	0	0	0	0	518	505	395	113	
1	0	0	0	0	507	508	394	113	
2	0	0	0	0	505	511	395	114	
3	0	0	0	0	504	509	394	114	
4	0	0	0	0	508	507	394	114	
5	0	0	0	0	510	508	394	114	
6	0	0	0	0	514	508	395	114	
7	0	0	0	0	515	509	395	114	
8	0	0	0	0	515	510	395	114	
9	0	0	0	0	513	508	395	114	
10	0	0	0	0	514	510	395	115	
11	0	0	0	0	507	506	395	115	
12	0	0	0	0	507	505	396	115	
13	0	0	0	0	509	507	395	115	
14	0	0	0	0	506	508	396	114	
15	0	0	0	0	506	506	396	114	
0	0	0	0	0	507	508	397	115	
1	0	0	0	0	514	510	398	115	
2	0	0	0	0	521	508	397	115	
3	0	0	0	0	519	509	397	115	
4	0	0	0	0	515	509	397	116	
5	0	0	0	0	514	509	396	115	
6	0	0	0	0	511	510	397	114	
7	0	0	0	0	510	509	397	115	
8	0	0	0	0	509	508	396	115	
9	0	0	0	0	506	505	396	115	
10	0	0	0	0	508	507	396	115	
11	0	0	0	0	510	503	396	115	
12	0	0	0	0	509	508	398	115	
13	0	0	0	0	513	510	398	115	
14	0	0	0	0	514	512	397	115	
15	0	0	0	0	508	510	397	115	
0	0	0	0	0	510	507	397	115	
1	0	0	0	0	511	509	398	115	
2	0	0	0	0	510	508	399	117	
3	0	0	0	0	512	509	399	115	
4	0	0	0	0	513	508	399	114	
5	0	0	0	0	513	507	398	115	
6	0	0	0	0	511	507	398	113	
7	0	0	0	0	508	506	397	115	
8	0	0	0	0	509	505	397	114	
9	0	0	0	0	510	508	397	113	
10	0	0	0	0	511	510	397	113	
11	0	0	0	0	512	510	397	114	
12	0	0	0	0	512	508	397	114	
13	0	0	0	0	513	510	397	114	
14	0	0	0	0	512	510	396	115	
15	0	0	0	0	511	504	397	114	
0	0	0	0	0	513	503	397	115	
1	0	0	0	0	516	506	397	113	
2	0	0	0	0	512	510	396	114	
3	0	0	0	0	511	512	395	113	
4	0	0	0	0	508	509	396	112	
5	0	0	0	0	509	507	397	112	
6	0	0	0	0	510	508	396	112	
7	0	0	0	0	513	508	397	111	
8	0	0	0	0	505	507	396	113	
9	0	0	0	0	511	505	395	112	
10	0	0	0	0	517	509	396	110	
11	0	0	0	0	516	511	396	111	
12	0	0	0	0	513	509	396	111	
13	0	0	0	0	510	507	396	111	
14	0	0	0	0	508	507	396	111	
15	0	0	0	0	511	508	396	109	
0	0	0	0	0	512	513	396	111	
1	0	0	0	0	510	508	396	111	
2	0	0	0	0	506	506	396	109	
3	0	0	0	0	511	507	395	104	
4	0	0	0	0	512	508	396	102	
5	0	0	0	0	514	509	396	103	
6	0	0	0	0	511	509	395	102	
7	0	0	0	0	511	506	397	102	
8	0	0	0	0	508	509	395	100	
9	0	0	0	0	508	510	396	101	
10	0	0	0	0	510	510	396	102	
11	0	0	0	0	511	507	396	103	
12	0	0	0	0	511	508	396	102	
13	0	0	0	0	514	504	395	102	
14	0	0	0	0	512	503	395	103	
15	0	0	0	0	509	506	396	102	
0	0	0	0	0	508	511	396	102	
1	0	0	0	0	510	512	396	103	
2	0	0	0	0	510	507	396	103	
3	0	0	0	0	511	505	396	103	
4	0	0	0	0	512	509	396	103	
5	0	0	0	0	513	508	396	103	
6	0	0	0	0	513	508	396	103	
7	0	0	0	0	508	507	395	103	
8	0	0	0	0	513	508	396	104	
9	0	0	0	0	515	508	396	104	
10	0	0	0	0	510	508	396	104	
11	0	0	0	0	508	508	395	104	
12	0	0	0	0	508	511	395	105	
13	0	0	0	0	507	509	395	104	
14	0	0	0	0	506	510	396	104	
15	0	0	0	0	511	509	396	104	
0	0	0	0	0	510	506	395	104	
1	0	0	0	0	508	506	395	104	
2	0	0	0	0	513	507	396	104	
3	0	0	0	0	513	506	395	104	
4	0	0	0	0	521	508	395	104	
5	0	0	0	0	523	512	395	105	
6	0	0	0	0	512	505	395	104	
7	0	0	0	0	512	504	395	104	
8	0	0	0	0	509	507	395	104	
9	0	0	0	0	504	507	396	103	
10	0	0	0	0	511	511	395	104	
11	0	0	0	0	514	509	396	101	
12	0	0	0	0	514	507	396	100	
13	0	0	0	0	517	508	396	100	
14	0	0	0	0	515	508	396	98	
15	0	0	0	0	510	510	397	100	
0	0	0	0	0	508	510	396	98	
1	0	0	0	0	509	508	396	98	
2	0	0	0	0	506	505	396	99	
3	0	0	0	0	507	505	397	98	
4	0	0	0	0	509	508	396	98	
5	0	0	0	0	513	508	396	97	
6	0	0	0	0	513	508	397	98	
7	0	0	0	0	511	508	396	98	
8	0	0	0	0	510	507	397	99	
9	0	0	0	0	512	509	398	98	
10	0	0	0	0	510	509	398	97	
11	0	0	0	0	511	508	397	99	
12	0	0	0	0	509	509	397	99	
13	0	0	0	0	511	510	397	100	
14	0	0	0	0	512	506	396	102	
15	0	0	0	0	509	507	396	101	
0	0	0	0	0	511	509	395	101	
1	0	0	0	0	510	507	397	100	
2	0	0	0	0	510	507	396	102	
3	0	0	0	0	511	510	396	100	
4	0	0	0	0	512	508	395	99	
5	0	0	0	0	515	512	395	99	
6	0	0	0	0	512	510	396	99	
7	0	0	0	0	513	508	394	101	
8	0	0	0	0	511	508	393	103	
9	0	0	0	0	515	509	392	103	
10	0	0	0	0	511	508	392	103	
11	0	0	0	0	511	506	393	103	
12	0	0	0	0	508	505	392	103	
13	0	0	0	0	508	505	393	103	
14	0	0	0	0	510	506	392	105	
15	0	0	0	0	511	508	392	104	
0	0	0	0	0	507	507	392	103	
1	0	0	0	0	507	508	392	103	
2	0	0	0	0	509	508	392	104	
3	0	0	0	0	510	511	391	105	
4	0	0	0	0	511	509	391	103	
5	0	0	0	0	509	508	391	103	
6	0	0	0	0	509	510	391	103	
7	0	0	0	0	509	508	390	105	
8	0	0	0	0	512	507	390	105	
9	0	0	0	0	512	508	390	105	
10	0	0	0	0	515	506	390	103	
11	0	0	0	0	517	507	390	101	
12	0	0	0	0	515	507	390	106	
13	0	0	0	0	514	511	390	105	
14	0	0	0	0	512	508	390	104	
15	0	0	0	0	512	508	388	102	
0	0	0	0	0	511	507	388	102	
1	0	0	0	0	511	509	387	102	
2	0	0	0	0	509	508	388	103	
3	0	0	0	0	512	509	388	101	
4	0	0	0	0	513	510	388	103	
5	0	0	0	0	511	507	388	101	
6	0	0	0	0	509	508	387	102	
7	0	0	0	0	511	505	388	100	
8	0	0	0	0	511	508	387	100	
9	0	0	0	0	511	508	387	103	
10	0	0	0	0	508	508	386	102	
11	0	0	0	0	511	508	386	101	
12	0	0	0	0	513	508	386	102	
13	0	0	0	0	511	508	386	101	
14	0	0	0	0	508	507	385	103	
15	0	0	0	0	511	505	386	103	
0	0	0	0	0	511	508	387	103	
1	0	0	0	0	512	508	386	103	
2	0	0	0	0	511	508	385	103	
3	0	0	0	0	508	508	386	103	
4	0	0	0	0	510	508	384	103	
5	0	0	0	0	512	508	383	103	
6	0	0	0	0	511	509	384	103	
7	0	0	0	0	512	507	384	103	
8	0	0	0	0	511	508	384	101	
9	0	0	0	0	509	508	383	103	
10	0	0	0	0	511	508	383	103	
11	0	0	0	0	511	508	382	102	
12	0	0	0	0	510	510	382	101	
13	0	0	0	0	510	508	380	101	
14	0	0	0	0	511	508	380	100	
15	0	0	0	0	510	508	379	101	
0	0	0	0	0	513	507	379	99	
1	0	0	0	0	514	507	378	98	
2	0	0	0	0	514	508	379	99	
3	0	0	0	0	513	509	377	99	
4	0	0	0	0	510	511	377	99	
5	0	0	0	0	510	508	376	98	
6	0	0	0	0	511	505	376	96	
7	0	0	0	0	510	505	374	97	
8	0	0	0	0	508	510	375	96	
9	0	0	0	0	511	508	374	95	
10	0	0	0	0	509	508	373	97	
11	0	0	0	0	508	510	371	95	
12	0	0	0	0	509	508	371	96	
13	0	0	0	0	511	509	370	97	
14	0	0	0	0	512	511	369	95	
15	0	0	0	0	512	509	369	95	
0	0	0	0	0	514	508	369	95	
1	0	0	0	0	511	508	369	96	
2	0	0	0	0	512	506	367	95	
3	0	0	0	0	509	507	366	96	
4	0	0	0	0	510	507	365	94	
5	0	0	0	0	510	509	365	93	
6	0	0	0	0	513	509	364	93	
7	0	0	0	0	511	507	363	95	
8	0	0	0	0	510	505	362	94	
9	0	0	0	0	515	508	361	93	
10	0	0	0	0	511	507	361	94	
11	0	0	0	0	513	508	360	93	
12	0	0	0	0	511	505	360	93	
13	0	0	0	0	510	509	360	92	
14	0	0	0	0	510	506	359	89	
15	0	0	0	0	510	508	359	89	
0	0	0	0	0	511	508	358	89	
1	0	0	0	0	511	510	357	89	
2	0	0	0	0	508	509	356	89	
3	0	0	0	0	511	509	355	87	
4	0	0	0	0	509	511	354	86	
5	0	0	0	0	506	508	353	86	
6	0	0	0	0	510	511	352	86	
7	0	0	0	0	511	514	351	85	
8	0	0	0	0	511	514	349	84	
9	0	0	0	0	515	510	347	84	
10	0	0	0	0	512	507	345	84	
11	0	0	0	0	514	504	343	85	
12	0	0	0	0	515	502	340	85	
13	0	0	0	0	512	499	335	85	
14	0	0	0	0	511	502	334	85	
15	0	0	0	0	507	504	333	85	
0	0	0	0	0	510	505	332	87	
1	0	0	0	0	510	508	332	85	
2	0	0	0	0	511	508	329	79	
3	0	0	0	0	514	511	327	77	
4	0	0	0	0	510	511	326	77	
5	0	0	0	0	507	510	320	75	
6	0	0	0	0	511	509	313	77	
7	0	0	0	0	516	508	310	75	
8	0	0	0	0	515	510	308	72	
9	0	0	0	0	511	510	306	70	
10	0	0	0	0	512	508	307	70	
11	0	0	0	0	513	506	305	66	
12	0	0	0	0	514	508	304	70	
13	0	0	0	0	511	508	303	69	
14	0	0	0	0	511	511	302	65	
15	0	0	0	0	508	506	300	71	
0	0	0	0	0	502	510	299	70	
1	0	0	0	0	502	508	297	71	
2	0	0	0	0	503	508	295	72	
3	0	0	0	0	504	505	295	56	
4	0	0	0	0	506	507	291	55	
5	0	0	0	0	507	506	288	59	
6	0	0	0	0	509	508	285	61	
7	0	0	0	0	517	510	281	45	
8	0	0	0	0	530	510	278	38	
9	0	0	0	0	535	505	276	21	
10	0	0	0	0	534	501	273	27	
11	0	0	0	0	516	508	272	36	
12	0	0	0	0	513	507	270	35	
13	0	0	0	0	509	511	270	28	
14	0	0	0	0	511	510	267	10	
15	0	0	0	0	512	506	265	9	
0	0	0	0	0	508	507	263	8	
1	0	0	0	0	512	507	262	7	
2	0	0	0	0	513	506	259	6	
3	0	0	0	0	517	506	251	6	
4	0	0	0	0	511	505	247	6	
5	0	0	0	0	505	506	238	5	
6	0	0	0	0	503	506	228	5	
7	0	0	0	0	502	505	223	4	
8	0	0	0	0	500	508	214	4	
9	0	0	0	0	504	510	206	5	
10	0	0	0	0	504	512	203	4	
11	0	0	0	0	507	509	202	5	
12	0	0	0	0	511	510	199	4	
13	0	0	0	0	523	512	197	5	
14	0	0	0	0	497	507	195	5	
15	0	0	0	0	483	510	192	4	
0	0	0	0	0	483	507	190	3	
1	0	0	0	0	486	508	189	3	
2	0	0	0	0	487	508	191	2	
3	0	0	0	0	480	510	191	1	
4	0	0	0	0	522	513	191	0	
5	0	0	0	0	561	513	190	0	
6	0	0	0	0	575	516	188	0	
7	0	0	0	0	561	518	187	0	
8	0	0	0	0	521	515	186	0	
9	0	0	0	0	509	510	185	0	
10	0	0	0	0	508	511	183	0	
11	0	0	0	0	510	508	184	0	
12	0	0	0	0	507	506	183	0	
13	0	0	0	0	505	507	183	0	
14	0	0	0	0	502	508	184	0	
15	0	0	0	0	501	507	181	0	
0	0	0	0	0	502	507	178	0	
1	0	0	0	0	505	506	174	0	
2	0	0	0	0	507	507	173	0	
3	0	0	0	0	507	508	171	0	
4	0	0	0	0	510	507	170	0	
5	0	0	0	0	526	504	169	0	
6	0	0	0	0	520	507	169	0	
7	0	0	0	0	515	508	167	0	
8	0	0	0	0	512	508	168	0	
9	0	0	0	0	508	508	167	0	
10	0	0	0	0	510	508	161	0	
11	0	0	0	0	511	505	161	0	
12	0	0	0	0	508	504	155	0	
13	0	0	0	0	512	506	154	0	
14	0	0	0	0	514	506	150	0	
15	0	0	0	0	507	508	148	0	
0	0	0	0	0	503	510	145	0	
1	0	0	0	0	511	510	140	0	
2	0	0	0	0	509	508	141	0	
3	0	0	0	0	507	509	140	0	
4	0	0	0	0	517	508	138	0	
5	0	0	0	0	515	506	134	0	
6	0	0	0	0	510	509	135	0	
7	0	0	0	0	512	507	128	0	
8	0	0	0	0	513	507	125	0	
9	0	0	0	0	512	508	126	0	
10	0	0	0	0	512	509	121	0	
11	0	0	0	0	515	505	124	0	
12	0	0	0	0	511	507	122	0	
13	0	0	0	0	511	508	115	0	
14	0	0	0	0	507	510	114	0	
15	0	0	0	0	509	508	113	0	
0	0	0	0	0	510	508	112	0	
1	0	0	0	0	515	507	110	0	
2	0	0	0	0	515	507	108	0	
3	0	0	0	0	514	507	101	0	
4	0	0	0	0	515	507	95	0	
5	0	0	0	0	513	507	95	0	
6	0	0	0	0	505	508	94	0	
7	0	0	0	0	492	508	91	0	
8	0	0	0	0	498	511	89	0	
9	0	0	0	0	506	510	89	0	
10	0	0	0	0	505	512	79	0	
11	0	0	0	0	506	508	73	0	
12	0	0	0	0	499	506	76	0	
13	0	0	0	0	510	509	74	0	
14	0	0	0	0	514	506	75	0	
15	0	0	0	0	516	505	77	0	
0	0	0	0	0	521	506	76	0	
1	0	0	0	0	536	508	76	0	
2	0	0	0	0	540	508	71	0	
3	0	0	0	0	530	508	73	0	
4	0	0	0	0	517	509	70	0	
5	0	0	0	0	507	509	66	0	
6	0	0	0	0	501	509	66	0	
7	0	0	0	0	504	509	67	0	
8	0	0	0	0	512	508	66	0	
9	0	0	0	0	511	508	64	0	
10	0	0	0	0	508	506	62	0	
11	0	0	0	0	505	507	58	0	
12	0	0	0	0	519	508	57	0	
13	0	0	0	0	514	507	57	0	
14	0	0	0	0	518	508	56	0	
15	0	0	0	0	511	509	46	0	
0	0	0	0	0	501	510	47	0	
1	0	0	0	0	503	509	43	0	
2	0	0	0	0	499	509	43	0	
3	0	0	0	0	502	509	38	0	
4	0	0	0	0	508	508	27	0	
5	0	0	0	0	507	509	19	0	
6	0	0	0	0	506	507	19	0	
7	0	0	0	0	506	503	19	0	
8	0	0	0	0	502	506	19	0	
9	0	0	0	0	506	508	17	0	
10	0	0	0	0	518	506	14	0	
11	0	0	0	0	535	508	13	0	
12	0	0	0	0	524	507	5	0	
13	0	0	0	0	526	509	5	0	
14	0	0	0	0	520	509	3	0	
15	0	0	0	0	508	512	0	0	
0	0	0	0	0	502	509	0	0	
1	0	0	0	0	507	505	0	0	
2	0	0	0	0	509	508	0	0	
3	0	0	0	0	510	509	0	0	
4	0	0	0	0	508	508	0	0	
5	0	0	0	0	505	509	0	0	
6	0	0	0	0	503	506	0	0	
7	0	0	0	0	507	507	0	0	
8	0	0	0	0	511	508	0	0	
9	0	0	0	0	511	507	0	0	
10	0	0	0	0	513	510	0	0	
11	0	0	0	0	517	508	0	0	
12	0	0	0	0	511	508	0	0	
13	0	0	0	0	511	506	0	0	
14	0	0	0	0	510	508	0	0	
15	0	0	0	0	509	507	0	0	
0	0	0	0	0	511	507	0	0	
1	0	0	0	0	510	508	0	0	
2	0	0	0	0	513	508	0	0	
3	0	0	0	0	514	508	0	0	
4	0	0	0	0	513	509	0	0	
5	0	0	0	0	512	507	0	0	
6	0	0	0	0	512	506	0	0	
7	0	0	0	0	510	508	0	0	
8	0	0	0	0	504	508	0	0	
9	0	0	0	0	505	507	0	0	
10	0	0	0	0	510	508	0	0	
11	0	0	0	0	511	509	0	0	
12	0	0	0	0	509	508	0	0	
13	0	0	0	0	512	508	0	0	
14	0	0	0	0	514	508	0	0	
15	0	0	0	0	513	508	0	0	
0	0	0	0	0	514	509	0	0	
1	0	0	0	0	512	508	0	0	
2	0	0	0	0	512	508	0	0	
3	0	0	0	0	514	507	0	0	
4	0	0	0	0	515	506	0	0	
5	0	0	0	0	511	506	0	0	
6	0	0	0	0	511	509	0	0	
7	0	0	0	0	508	508	0	0	
8	0	0	0	0	510	507	0	0	
9	0	0	0	0	511	506	0	0	
10	0	0	0	0	512	508	0	0	
11	0	0	0	0	513	508	0	0	
12	0	0	0	0	510	510	0	0	
13	0	0	0	0	511	508	0	0	
14	0	0	0	0	510	509	0	0	
15	0	0	0	0	511	510	0	0	
0	0	0	0	0	509	508	0	0	
1	0	0	0	0	511	509	0	0	
2	0	0	0	0	511	508	0	0	
3	0	0	0	0	509	505	0	0	
4	0	0	0	0	512	508	0	0	
5	0	0	0	0	512	509	0	0	
6	0	0	0	0	509	507	0	0	
7	0	0	0	0	511	509	0	0	
8	0	0	0	0	512	507	0	0	
9	0	0	0	0	511	508	0	0	
10	0	0	0	0	512	506	0	0	
11	0	0	0	0	510	507	0	0	
12	0	0	0	0	509	507	0	0	
13	0	0	0	0	510	509	0	0	
14	0	0	0	0	509	509	0	0	
15	0	0	0	0	511	507	0	0	
0	0	0	0	0	511	508	0	0	
1	0	0	0	0	510	509	0	0	
2	0	0	0	0	512	510	0	0	
3	0	0	0	0	513	506	0	0	
4	0	0	0	0	512	507	0	0	
5	0	0	0	0	515	508	0	0	
6	0	0	0	0	511	508	0	0	
7	0	0	0	0	508	508	0	0	
8	0	0	0	0	512	509	0	0	
9	0	0	0	0	510	508	0	0	
10	0	0	0	0	514	508	0	0	
11	0	0	0	0	512	508	0	0	
12	0	0	0	0	511	508	0	0	
13	0	0	0	0	513	509	0	0	
14	0	0	0	0	510	508	0	0	
15	0	0	0	0	507	508	0	0	
0	0	0	0	0	509	506	0	0	
1	0	0	0	0	512	508	0	0	
2	0	0	0	0	513	508	0	0	
3	0	0	0	0	512	508	0	0	
4	0	0	0	0	512	507	0	0	
5	0	0	0	0	511	508	0	0	
6	0	0	0	0	510	508	0	0	
7	0	0	0	0	511	507	0	0	
8	0	0	0	0	511	508	0	0	
9	0	0	0	0	511	507	0	0	
10	0	0	0	0	511	509	0	0	
11	0	0	0	0	511	508	0	0	
12	0	0	0	0	510	508	0	0	
13	0	0	0	0	511	507	0	0	
14	0	0	0	0	513	507	0	0	
15	0	0	0	0	513	507	0	0	
0	0	0	0	0	510	507	0	0	
1	0	0	0	0	508	506	0	0	
2	0	0	0	0	508	508	0	0	
3	0	0	0	0	510	510	0	0	
4	0	0	0	0	508	510	0	0	
5	0	0	0	0	509	509	0	0	
6	0	0	0	0	510	509	0	0	
7	0	0	0	0	512	509	0	0	
8	0	0	0	0	512	506	0	0	
9	0	0	0	0	511	507	0	0	
10	0	0	0	0	514	509	0	0	
11	0	0	0	0	516	506	0	0	
12	0	0	0	0	512	507	0	0	
13	0	0	0	0	510	509	0	0	
14	0	0	0	0	512	509	0	0	
15	0	0	0	0	511	507	0	0	
0	0	0	0	0	512	508	0	0	
1	0	0	0	0	513	508	0	0	
2	0	0	0	0	512	509	0	0	
3	0	0	0	0	509	508	0	0	
4	0	0	0	0	510	507	0	0	
5	0	0	0	0	510	508	0	0	
6	0	0	0	0	511	508	0	0	
7	0	0	0	0	511	508	0	0	
8	0	0	0	0	510	508	0	0	
9	0	0	0	0	510	508	0	0	
10	0	0	0	0	509	508	0	0	
11	0	0	0	0	505	509	0	0	
12	0	0	0	0	509	508	0	0	
13	0	0	0	0	512	508	0	0	
14	0	0	0	0	516	507	0	0	
15	0	0	0	0	511	509	0	0	
0	0	0	0	0	513	509	0	0	
1	0	0	0	0	511	508	0	0	
2	0	0	0	0	511	508	0	0	
3	0	0	0	0	510	507	0	0	
4	0	0	0	0	511	508	0	0	
5	0	0	0	0	511	509	0	0	
6	0	0	0	0	512	509	0	0	
7	0	0	0	0	513	508	0	0	
8	0	0	0	0	511	508	0	0	
9	0	0	0	0	512	508	0	0	
10	0	0	0	0	510	506	0	0	
11	0	0	0	0	508	509	0	0	
12	0	0	0	0	509	508	0	0	
13	0	0	0	0	510	509	0	0	
14	0	0	0	0	511	508	0	0	
15	0	0	0	0	514	508	0	0	
0	0	0	0	0	512	508	0	0	
1	0	0	0	0	513	508	0	0	
2	0	0	0	0	512	509	0	0	
3	0	0	0	0	511	508	0	0	
4	0	0	0	0	510	507	0	0	
5	0	0	0	0	510	507	0	0	
6	0	0	0	0	509	507	0	0	
7	0	0	0	0	510	509	0	0	
8	0	0	0	0	513	509	0	0	
9	0	0	0	0	511	509	0	0	
10	0	0	0	0	511	506	0	0	
11	0	0	0	0	511	506	0	0	
12	0	0	0	0	511	509	0	0	
13	0	0	0	0	510	507	0	0	
14	0	0	0	0	510	506	0	0	
15	0	0	0	0	512	508	0	0	
0	0	0	0	0	513	510	0	0	
1	0	0	0	0	513	510	0	0	
2	0	0	0	0	510	510	0	0	
3	0	0	0	0	509	508	0	0	
4	0	0	0	0	511	508	0	0	
5	0	0	0	0	512	508	0	0	
6	0	0	0	0	510	506	0	0	
7	0	0	0	0	512	508	0	0	
8	0	0	0	0	512	509	0	0	
9	0	0	0	0	510	510	0	0	
10	0	0	0	0	511	510	0	0	
11	0	0	0	0	510	507	0	0	
12	0	0	0	0	511	507	0	0	
13	0	0	0	0	511	508	0	0	
14	0	0	0	0	513	510	0	0	
15	0	0	0	0	511	508	0	0	
0	0	0	0	0	508	507	0	0	
1	0	0	0	0	510	507	0	0	
2	0	0	0	0	510	505	0	0	
3	0	0	0	0	511	508	0	0	
4	0	0	0	0	511	508	0	0	
5	0	0	0	0	511	507	0	0	
6	0	0	0	0	513	508	0	0	
7	0	0	0	0	513	510	0	0	
8	0	0	0	0	511	508	0	0	
9	0	0	0	0	509	510	0	0	
10	0	0	0	0	512	509	0	0	
11	0	0	0	0	510	506	0	0	
12	0	0	0	0	510	508	0	0	
13	0	0	0	0	510	507	0	0	
14	0	0	0	0	512	508	0	0	
15	0	0	0	0	512	508	0	0	
0	0	0	0	0	512	508	0	0	
1	0	0	0	0	512	511	0	0	
2	0	0	0	0	514	507	0	0	
3	0	0	0	0	514	505	0	0	
4	0	0	0	0	511	509	0	0	
5	0	0	0	0	514	508	0	0	
6	0	0	0	0	508	507	0	0	
7	0	0	0	0	511	507	0	0	
8	0	0	0	0	511	508	0	0	
9	0	0	0	0	512	509	0	0	
10	0	0	0	0	512	507	0	0	
11	0	0	0	0	512	509	0	0	
12	0	0	0	0	511	509	0	0	
13	0	0	0	0	509	507	0	0	
14	0	0	0	0	509	508	0	0	
15	0	0	0	0	512	508	0	0	
0	0	0	0	0	511	510	0	0	
1	0	0	0	0	511	508	0	0	
2	0	0	0	0	512	509	0	0	
3	0	0	0	0	511	507	0	0	
4	0	0	0	0	511	506	0	0	
5	0	0	0	0	511	508	0	0	
6	0	0	0	0	513	507	0	0	
7	0	0	0	0	510	509	0	0	
8	0	0	0	0	512	506	0	0	
9	0	0	0	0	509	508	0	0	
10	0	0	0	0	508	509	0	0	
11	0	0	0	0	508	508	0	0	
