# OpenSignals Text File Format. Version 1
# {"98:D3:31:B2:12:BA": {"position": 0, "device": "bitalino", "device name": "98:D3:31:B2:12:BA", "device connection": "BTH98:D3:31:B2:12:BA", "sampling rate": 1000, "resolution": [4, 1, 1, 1, 1, 10, 10, 10, 10], "firmware version": 771, "comments": "", "keywords": "", "mode": 0, "sync interval": 2, "date": "2022-7-28", "time": "13:2:44.364", "channels": [1, 2, 3, 4], "sensor": ["EMGBIT", "EMGBIT", "RAW", "RAW"], "label": ["A1", "A2", "A3", "A4"], "column": ["nSeq", "I1", "I2", "I3", "I4", "A1", "A2", "A3", "A4"], "special": [{}, {}, {}, {}], "digital IO": [0, 0, 0, 0, 1, 1, 1, 1]}}
# EndOfHeader
0	0	0	0	0	487	511	0	0	
1	0	0	0	0	481	508	0	0	
2	0	0	0	0	480	511	0	0	
3	0	0	0	0	480	510	0	0	
4	0	0	0	0	480	508	0	0	
5	0	0	0	0	481	511	0	0	
6	0	0	0	0	480	510	0	0	
7	0	0	0	0	472	508	0	0	
8	0	0	0	0	472	508	0	0	
9	0	0	0	0	472	511	0	0	
10	0	0	0	0	472	510	0	0	
11	0	0	0	0	467	508	0	0	
12	0	0	0	0	465	510	0	0	
13	0	0	0	0	467	508	0	0	
14	0	0	0	0	472	511	0	0	
15	0	0	0	0	473	510	0	0	
0	0	0	0	0	476	510	0	0	
1	0	0	0	0	476	510	0	0	
2	0	0	0	0	480	511	0	0	
3	0	0	0	0	478	512	0	0	
4	0	0	0	0	478	512	0	0	
5	0	0	0	0	481	508	0	0	
6	0	0	0	0	480	508	0	0	
7	0	0	0	0	480	508	0	0	
8	0	0	0	0	476	510	0	0	
9	0	0	0	0	472	508	0	0	
10	0	0	0	0	470	508	0	0	
11	0	0	0	0	472	505	0	0	
12	0	0	0	0	472	510	0	0	
13	0	0	0	0	472	504	0	0	
14	0	0	0	0	472	508	0	0	
15	0	0	0	0	472	508	0	0	
0	0	0	0	0	467	508	0	0	
1	0	0	0	0	472	512	0	0	
2	0	0	0	0	472	511	0	0	
3	0	0	0	0	476	510	0	0	
4	0	0	0	0	480	512	0	0	
5	0	0	0	0	480	511	0	0	
6	0	0	0	0	483	512	0	0	
7	0	0	0	0	487	511	0	0	
8	0	0	0	0	483	512	0	0	
9	0	0	0	0	483	511	0	0	
10	0	0	0	0	480	511	0	0	
11	0	0	0	0	476	510	0	0	
12	0	0	0	0	472	510	0	0	
13	0	0	0	0	465	508	0	0	
14	0	0	0	0	465	508	0	0	
15	0	0	0	0	465	511	0	0	
0	0	0	0	0	467	510	0	0	
1	0	0	0	0	463	510	0	0	
2	0	0	0	0	463	508	0	0	
3	0	0	0	0	463	508	0	0	
4	0	0	0	0	463	508	0	0	
5	0	0	0	0	467	508	0	0	
6	0	0	0	0	472	510	0	0	
7	0	0	0	0	476	511	0	0	
8	0	0	0	0	480	510	0	0	
9	0	0	0	0	481	508	0	0	
10	0	0	0	0	481	512	0	0	
11	0	0	0	0	480	511	0	0	
12	0	0	0	0	478	510	0	0	
13	0	0	0	0	480	513	0	0	
14	0	0	0	0	480	511	0	0	
15	0	0	0	0	480	508	0	0	
0	0	0	0	0	480	510	0	0	
1	0	0	0	0	480	510	0	0	
2	0	0	0	0	476	510	0	0	
3	0	0	0	0	476	508	0	0	
4	0	0	0	0	473	508	0	0	
5	0	0	0	0	473	508	0	0	
6	0	0	0	0	472	510	0	0	
7	0	0	0	0	467	508	0	0	
8	0	0	0	0	472	508	0	0	
9	0	0	0	0	472	508	0	0	
10	0	0	0	0	472	511	0	0	
11	0	0	0	0	480	510	0	0	
12	0	0	0	0	486	511	0	0	
13	0	0	0	0	487	510	0	0	
14	0	0	0	0	492	511	0	0	
15	0	0	0	0	487	511	0	0	
0	0	0	0	0	483	508	0	0	
1	0	0	0	0	480	511	0	0	
2	0	0	0	0	480	508	0	0	
3	0	0	0	0	481	510	0	0	
4	0	0	0	0	483	508	0	0	
5	0	0	0	0	476	511	0	0	
6	0	0	0	0	472	510	0	0	
7	0	0	0	0	472	508	0	0	
8	0	0	0	0	465	505	0	0	
9	0	0	0	0	465	508	0	0	
10	0	0	0	0	463	508	0	0	
11	0	0	0	0	462	508	0	0	
12	0	0	0	0	463	508	0	0	
13	0	0	0	0	463	513	0	0	
14	0	0	0	0	472	512	0	0	
15	0	0	0	0	472	512	0	0	
0	0	0	0	0	472	510	0	0	
1	0	0	0	0	472	511	0	0	
2	0	0	0	0	476	511	0	0	
3	0	0	0	0	480	511	0	0	
4	0	0	0	0	480	508	0	0	
5	0	0	0	0	483	510	0	0	
6	0	0	0	0	487	508	0	0	
7	0	0	0	0	483	504	0	0	
8	0	0	0	0	480	508	0	0	
9	0	0	0	0	480	512	0	0	
10	0	0	0	0	472	510	0	0	
11	0	0	0	0	467	508	0	0	
12	0	0	0	0	463	508	0	0	
13	0	0	0	0	463	511	0	0	
14	0	0	0	0	463	510	0	0	
15	0	0	0	0	463	511	0	0	
0	0	0	0	0	467	510	0	0	
1	0	0	0	0	472	511	0	0	
2	0	0	0	0	480	512	0	0	
3	0	0	0	0	478	512	0	0	
4	0	0	0	0	481	511	0	0	
5	0	0	0	0	481	511	0	0	
6	0	0	0	0	480	510	0	0	
7	0	0	0	0	478	511	0	0	
8	0	0	0	0	480	513	0	0	
9	0	0	0	0	483	511	0	0	
10	0	0	0	0	480	510	0	0	
11	0	0	0	0	480	510	0	0	
12	0	0	0	0	478	511	0	0	
13	0	0	0	0	472	510	0	0	
14	0	0	0	0	472	508	0	0	
15	0	0	0	0	472	508	0	0	
0	0	0	0	0	467	508	0	0	
1	0	0	0	0	463	505	0	0	
2	0	0	0	0	463	508	0	0	
3	0	0	0	0	463	508	0	0	
4	0	0	0	0	467	510	0	0	
5	0	0	0	0	472	508	0	0	
6	0	0	0	0	472	508	0	0	
7	0	0	0	0	473	510	0	0	
8	0	0	0	0	478	510	0	0	
9	0	0	0	0	478	511	0	0	
10	0	0	0	0	480	508	0	0	
11	0	0	0	0	480	510	0	0	
12	0	0	0	0	480	511	0	0	
13	0	0	0	0	487	510	0	0	
14	0	0	0	0	487	512	0	0	
15	0	0	0	0	487	511	0	0	
0	0	0	0	0	483	510	0	0	
1	0	0	0	0	480	508	0	0	
2	0	0	0	0	476	508	0	0	
3	0	0	0	0	472	508	0	0	
4	0	0	0	0	467	508	0	0	
5	0	0	0	0	465	508	0	0	
6	0	0	0	0	467	508	0	0	
7	0	0	0	0	467	508	0	0	
8	0	0	0	0	467	511	0	0	
9	0	0	0	0	472	512	0	0	
10	0	0	0	0	473	512	0	0	
11	0	0	0	0	472	511	0	0	
12	0	0	0	0	476	510	0	0	
13	0	0	0	0	480	511	0	0	
14	0	0	0	0	483	511	0	0	
15	0	0	0	0	483	508	0	0	
0	0	0	0	0	486	511	0	0	
1	0	0	0	0	483	512	0	0	
2	0	0	0	0	481	508	0	0	
3	0	0	0	0	480	508	0	0	
4	0	0	0	0	480	510	0	0	
5	0	0	0	0	480	511	0	0	
6	0	0	0	0	478	510	0	0	
7	0	0	0	0	478	511	0	0	
8	0	0	0	0	467	511	0	0	
9	0	0	0	0	462	511	0	0	
10	0	0	0	0	460	508	0	0	
11	0	0	0	0	462	510	0	0	
12	0	0	0	0	463	510	0	0	
13	0	0	0	0	465	510	0	0	
14	0	0	0	0	472	510	0	0	
15	0	0	0	0	472	510	0	0	
0	0	0	0	0	478	511	0	0	
1	0	0	0	0	478	510	0	0	
2	0	0	0	0	480	511	0	0	
3	0	0	0	0	481	512	0	0	
4	0	0	0	0	483	511	0	0	
5	0	0	0	0	481	508	0	0	
6	0	0	0	0	483	508	0	0	
7	0	0	0	0	481	508	0	0	
8	0	0	0	0	480	508	0	0	
9	0	0	0	0	476	510	0	0	
10	0	0	0	0	476	511	0	0	
11	0	0	0	0	472	508	0	0	
12	0	0	0	0	463	510	0	0	
13	0	0	0	0	463	511	0	0	
14	0	0	0	0	463	510	0	0	
15	0	0	0	0	463	511	0	0	
0	0	0	0	0	463	511	0	0	
1	0	0	0	0	472	511	0	0	
2	0	0	0	0	476	510	0	0	
3	0	0	0	0	478	512	0	0	
4	0	0	0	0	480	510	0	0	
5	0	0	0	0	480	511	0	0	
6	0	0	0	0	476	510	0	0	
7	0	0	0	0	480	510	0	0	
8	0	0	0	0	483	511	0	0	
9	0	0	0	0	487	508	0	0	
10	0	0	0	0	487	510	0	0	
11	0	0	0	0	487	510	0	0	
12	0	0	0	0	480	508	0	0	
13	0	0	0	0	472	508	0	0	
14	0	0	0	0	473	510	0	0	
15	0	0	0	0	476	510	0	0	
0	0	0	0	0	472	508	0	0	
1	0	0	0	0	472	508	0	0	
2	0	0	0	0	472	511	0	0	
3	0	0	0	0	465	510	0	0	
4	0	0	0	0	463	508	0	0	
5	0	0	0	0	463	511	0	0	
6	0	0	0	0	467	511	0	0	
7	0	0	0	0	472	510	0	0	
8	0	0	0	0	478	511	0	0	
9	0	0	0	0	480	511	0	0	
10	0	0	0	0	483	510	0	0	
11	0	0	0	0	487	512	0	0	
12	0	0	0	0	486	510	0	0	
13	0	0	0	0	481	512	0	0	
14	0	0	0	0	483	511	0	0	
15	0	0	0	0	480	508	0	0	
0	0	0	0	0	480	508	0	0	
1	0	0	0	0	480	508	0	0	
2	0	0	0	0	480	508	0	0	
3	0	0	0	0	472	508	0	0	
4	0	0	0	0	463	508	0	0	
5	0	0	0	0	463	510	0	0	
6	0	0	0	0	463	504	0	0	
7	0	0	0	0	463	510	0	0	
8	0	0	0	0	463	512	0	0	
9	0	0	0	0	463	508	0	0	
10	0	0	0	0	472	511	0	0	
11	0	0	0	0	476	512	0	0	
12	0	0	0	0	476	511	0	0	
13	0	0	0	0	472	511	0	0	
14	0	0	0	0	472	511	0	0	
15	0	0	0	0	473	510	0	0	
0	0	0	0	0	481	510	0	0	
1	0	0	0	0	486	511	0	0	
2	0	0	0	0	487	511	0	0	
3	0	0	0	0	483	510	0	0	
4	0	0	0	0	476	508	0	0	
5	0	0	0	0	472	508	0	0	
6	0	0	0	0	476	510	0	0	
7	0	0	0	0	472	510	0	0	
8	0	0	0	0	467	505	0	0	
9	0	0	0	0	463	508	0	0	
10	0	0	0	0	467	510	0	0	
11	0	0	0	0	467	510	0	0	
12	0	0	0	0	465	511	0	0	
13	0	0	0	0	467	511	0	0	
14	0	0	0	0	467	508	0	0	
15	0	0	0	0	472	512	0	0	
0	0	0	0	0	480	510	0	0	
1	0	0	0	0	481	508	0	0	
2	0	0	0	0	481	508	0	0	
3	0	0	0	0	486	510	0	0	
4	0	0	0	0	487	508	0	0	
5	0	0	0	0	487	508	0	0	
6	0	0	0	0	487	511	0	0	
7	0	0	0	0	483	512	0	0	
8	0	0	0	0	480	512	0	0	
9	0	0	0	0	481	511	0	0	
10	0	0	0	0	476	511	0	0	
11	0	0	0	0	467	508	0	0	
12	0	0	0	0	467	508	0	0	
13	0	0	0	0	465	505	0	0	
14	0	0	0	0	467	508	0	0	
15	0	0	0	0	463	508	0	0	
0	0	0	0	0	465	508	0	0	
1	0	0	0	0	472	511	0	0	
2	0	0	0	0	472	510	0	0	
3	0	0	0	0	472	512	0	0	
4	0	0	0	0	476	511	0	0	
5	0	0	0	0	480	511	0	0	
6	0	0	0	0	480	511	0	0	
7	0	0	0	0	481	511	0	0	
8	0	0	0	0	483	510	0	0	
9	0	0	0	0	481	510	0	0	
10	0	0	0	0	480	510	0	0	
11	0	0	0	0	476	508	0	0	
12	0	0	0	0	476	508	0	0	
13	0	0	0	0	472	511	0	0	
14	0	0	0	0	467	510	0	0	
15	0	0	0	0	467	508	0	0	
0	0	0	0	0	463	508	0	0	
1	0	0	0	0	463	512	0	0	
2	0	0	0	0	465	511	0	0	
3	0	0	0	0	463	513	0	0	
4	0	0	0	0	463	511	0	0	
5	0	0	0	0	467	510	0	0	
6	0	0	0	0	476	511	0	0	
7	0	0	0	0	476	510	0	0	
8	0	0	0	0	480	508	0	0	
9	0	0	0	0	481	511	0	0	
10	0	0	0	0	487	511	0	0	
11	0	0	0	0	487	511	0	0	
12	0	0	0	0	487	508	0	0	
13	0	0	0	0	487	512	0	0	
14	0	0	0	0	481	511	0	0	
15	0	0	0	0	480	511	0	0	
0	0	0	0	0	480	511	0	0	
1	0	0	0	0	476	510	0	0	
2	0	0	0	0	472	511	0	0	
3	0	0	0	0	472	508	0	0	
4	0	0	0	0	472	504	0	0	
5	0	0	0	0	472	508	0	0	
6	0	0	0	0	472	508	0	0	
7	0	0	0	0	472	508	0	0	
8	0	0	0	0	472	508	0	0	
9	0	0	0	0	476	508	0	0	
10	0	0	0	0	467	508	0	0	
11	0	0	0	0	467	511	0	0	
12	0	0	0	0	472	512	0	0	
13	0	0	0	0	472	511	0	0	
14	0	0	0	0	476	510	0	0	
15	0	0	0	0	472	512	0	0	
0	0	0	0	0	467	511	0	0	
1	0	0	0	0	473	510	0	0	
2	0	0	0	0	480	511	0	0	
3	0	0	0	0	483	511	0	0	
4	0	0	0	0	487	510	0	0	
5	0	0	0	0	487	508	0	0	
6	0	0	0	0	483	508	0	0	
7	0	0	0	0	480	508	0	0	
8	0	0	0	0	472	510	0	0	
9	0	0	0	0	467	511	0	0	
10	0	0	0	0	467	508	0	0	
11	0	0	0	0	467	508	0	0	
12	0	0	0	0	470	508	0	0	
13	0	0	0	0	472	510	0	0	
14	0	0	0	0	476	510	0	0	
15	0	0	0	0	476	511	0	0	
0	0	0	0	0	473	511	0	0	
1	0	0	0	0	476	510	0	0	
2	0	0	0	0	480	510	0	0	
3	0	0	0	0	480	512	0	0	
4	0	0	0	0	483	511	0	0	
5	0	0	0	0	487	511	0	0	
6	0	0	0	0	487	511	0	0	
7	0	0	0	0	481	510	0	0	
8	0	0	0	0	478	508	0	0	
9	0	0	0	0	472	508	0	0	
10	0	0	0	0	472	511	0	0	
11	0	0	0	0	467	508	0	0	
12	0	0	0	0	473	508	0	0	
13	0	0	0	0	472	511	0	0	
14	0	0	0	0	472	508	0	0	
15	0	0	0	0	472	512	0	0	
0	0	0	0	0	476	508	0	0	
1	0	0	0	0	480	510	0	0	
2	0	0	0	0	478	512	0	0	
3	0	0	0	0	480	510	0	0	
4	0	0	0	0	480	511	0	0	
5	0	0	0	0	480	511	0	0	
6	0	0	0	0	476	511	0	0	
7	0	0	0	0	480	512	0	0	
8	0	0	0	0	480	510	0	0	
9	0	0	0	0	480	512	0	0	
10	0	0	0	0	480	508	0	0	
11	0	0	0	0	480	508	0	0	
12	0	0	0	0	478	508	0	0	
13	0	0	0	0	478	508	0	0	
14	0	0	0	0	481	510	0	0	
15	0	0	0	0	480	508	0	0	
0	0	0	0	0	472	508	0	0	
1	0	0	0	0	467	505	0	0	
2	0	0	0	0	463	508	0	0	
3	0	0	0	0	467	508	0	0	
4	0	0	0	0	472	511	0	0	
5	0	0	0	0	472	510	0	0	
6	0	0	0	0	472	508	0	0	
7	0	0	0	0	476	511	0	0	
8	0	0	0	0	480	511	0	0	
9	0	0	0	0	483	512	0	0	
10	0	0	0	0	480	511	0	0	
11	0	0	0	0	483	510	0	0	
12	0	0	0	0	483	511	0	0	
13	0	0	0	0	487	508	0	0	
14	0	0	0	0	494	511	0	0	
15	0	0	0	0	487	511	0	0	
0	0	0	0	0	481	510	0	0	
1	0	0	0	0	476	510	0	0	
2	0	0	0	0	472	508	0	0	
3	0	0	0	0	472	510	0	0	
4	0	0	0	0	463	510	0	0	
5	0	0	0	0	463	512	0	0	
6	0	0	0	0	467	510	0	0	
7	0	0	0	0	476	511	0	0	
8	0	0	0	0	487	508	0	0	
9	0	0	0	0	496	508	0	0	
10	0	0	0	0	492	508	0	0	
11	0	0	0	0	494	510	0	0	
12	0	0	0	0	494	510	0	0	
13	0	0	0	0	496	511	0	0	
14	0	0	0	0	487	511	0	0	
15	0	0	0	0	476	513	0	0	
0	0	0	0	0	455	513	0	0	
1	0	0	0	0	448	511	0	0	
2	0	0	0	0	451	511	0	0	
3	0	0	0	0	460	508	0	0	
4	0	0	0	0	463	508	0	0	
5	0	0	0	0	463	505	0	0	
6	0	0	0	0	463	508	0	0	
7	0	0	0	0	460	504	0	0	
8	0	0	0	0	460	504	0	0	
9	0	0	0	0	455	508	0	0	
10	0	0	0	0	457	508	0	0	
11	0	0	0	0	463	508	0	0	
12	0	0	0	0	467	508	0	0	
13	0	0	0	0	478	510	0	0	
14	0	0	0	0	476	511	0	0	
15	0	0	0	0	472	511	0	0	
0	0	0	0	0	480	511	0	0	
1	0	0	0	0	481	510	0	0	
2	0	0	0	0	480	511	0	0	
3	0	0	0	0	480	510	0	0	
4	0	0	0	0	480	510	0	0	
5	0	0	0	0	483	511	0	0	
6	0	0	0	0	487	510	0	0	
7	0	0	0	0	486	508	0	0	
8	0	0	0	0	483	508	0	0	
9	0	0	0	0	480	510	0	0	
10	0	0	0	0	480	510	0	0	
11	0	0	0	0	472	508	0	0	
12	0	0	0	0	467	508	0	0	
13	0	0	0	0	463	508	0	0	
14	0	0	0	0	463	505	0	0	
15	0	0	0	0	462	512	0	0	
0	0	0	0	0	463	511	0	0	
1	0	0	0	0	472	513	0	0	
2	0	0	0	0	472	512	0	0	
3	0	0	0	0	476	511	0	0	
4	0	0	0	0	476	512	0	0	
5	0	0	0	0	480	511	0	0	
6	0	0	0	0	483	512	0	0	
7	0	0	0	0	481	513	0	0	
8	0	0	0	0	486	511	0	0	
9	0	0	0	0	486	510	0	0	
10	0	0	0	0	483	508	0	0	
11	0	0	0	0	481	508	0	0	
12	0	0	0	0	480	508	0	0	
13	0	0	0	0	476	508	0	0	
14	0	0	0	0	472	508	0	0	
15	0	0	0	0	467	508	0	0	
0	0	0	0	0	465	505	0	0	
1	0	0	0	0	467	504	0	0	
2	0	0	0	0	465	512	0	0	
3	0	0	0	0	463	511	0	0	
4	0	0	0	0	463	510	0	0	
5	0	0	0	0	465	511	0	0	
6	0	0	0	0	472	511	0	0	
7	0	0	0	0	476	510	0	0	
8	0	0	0	0	480	510	0	0	
9	0	0	0	0	480	510	0	0	
10	0	0	0	0	480	510	0	0	
11	0	0	0	0	483	511	0	0	
12	0	0	0	0	483	510	0	0	
13	0	0	0	0	483	508	0	0	
14	0	0	0	0	480	508	0	0	
15	0	0	0	0	483	508	0	0	
0	0	0	0	0	481	508	0	0	
1	0	0	0	0	478	504	0	0	
2	0	0	0	0	473	510	0	0	
3	0	0	0	0	472	508	0	0	
4	0	0	0	0	467	505	0	0	
5	0	0	0	0	463	510	0	0	
6	0	0	0	0	460	510	0	0	
7	0	0	0	0	462	510	0	0	
8	0	0	0	0	463	510	0	0	
9	0	0	0	0	472	512	0	0	
10	0	0	0	0	472	512	0	0	
11	0	0	0	0	472	511	0	0	
12	0	0	0	0	480	512	0	0	
13	0	0	0	0	483	513	0	0	
14	0	0	0	0	483	511	0	0	
15	0	0	0	0	483	511	0	0	
0	0	0	0	0	487	512	0	0	
1	0	0	0	0	492	510	0	0	
2	0	0	0	0	492	510	0	0	
3	0	0	0	0	483	511	0	0	
4	0	0	0	0	478	508	0	0	
5	0	0	0	0	476	508	0	0	
6	0	0	0	0	472	511	0	0	
7	0	0	0	0	465	508	0	0	
8	0	0	0	0	465	508	0	0	
9	0	0	0	0	467	504	0	0	
10	0	0	0	0	467	508	0	0	
11	0	0	0	0	472	508	0	0	
12	0	0	0	0	472	510	0	0	
13	0	0	0	0	472	512	0	0	
14	0	0	0	0	472	510	0	0	
15	0	0	0	0	476	510	0	0	
0	0	0	0	0	480	511	0	0	
1	0	0	0	0	478	511	0	0	
2	0	0	0	0	480	510	0	0	
3	0	0	0	0	480	508	0	0	
4	0	0	0	0	480	510	0	0	
5	0	0	0	0	480	504	0	0	
6	0	0	0	0	472	499	0	0	
7	0	0	0	0	465	496	0	0	
8	0	0	0	0	465	492	0	0	
9	0	0	0	0	467	496	0	0	
10	0	0	0	0	463	494	0	0	
11	0	0	0	0	455	487	0	0	
12	0	0	0	0	455	496	0	0	
13	0	0	0	0	451	504	0	0	
14	0	0	0	0	444	508	0	0	
15	0	0	0	0	428	519	0	0	
0	0	0	0	0	433	531	0	0	
1	0	0	0	0	451	536	0	0	
2	0	0	0	0	460	540	0	0	
3	0	0	0	0	465	536	0	0	
4	0	0	0	0	480	540	0	0	
5	0	0	0	0	496	556	0	0	
6	0	0	0	0	496	540	0	0	
7	0	0	0	0	487	519	0	0	
8	0	0	0	0	487	483	0	0	
9	0	0	0	0	480	472	0	0	
10	0	0	0	0	463	467	0	0	
11	0	0	0	0	463	440	0	0	
12	0	0	0	0	473	414	0	0	
13	0	0	0	0	487	423	0	0	
14	0	0	0	0	504	451	0	0	
15	0	0	0	0	519	455	0	0	
0	0	0	0	0	499	454	0	0	
1	0	0	0	0	463	423	0	0	
2	0	0	0	0	462	344	0	0	
3	0	0	0	0	451	366	0	0	
4	0	0	0	0	435	423	0	0	
5	0	0	0	0	462	480	0	0	
6	0	0	0	0	480	542	0	0	
7	0	0	0	0	496	551	0	0	
8	0	0	0	0	505	625	0	0	
9	0	0	0	0	524	736	1	0	
10	0	0	0	0	543	760	1	0	
11	0	0	0	0	524	760	3	0	
12	0	0	0	0	476	750	1	30	
13	0	0	0	0	448	671	1	49	
14	0	0	0	0	467	639	0	62	
15	0	0	0	0	481	632	0	81	
0	0	0	0	0	496	527	0	108	
1	0	0	0	0	511	348	0	127	
2	0	0	0	0	504	135	0	147	
3	0	0	0	0	492	35	0	167	
4	0	0	0	0	472	62	0	167	
5	0	0	0	0	463	211	0	179	
6	0	0	0	0	448	391	0	199	
7	0	0	0	0	455	481	0	216	
8	0	0	0	0	508	572	0	236	
9	0	0	0	0	582	737	3	254	
10	0	0	0	0	574	899	12	262	
11	0	0	0	0	512	952	15	270	
12	0	0	0	0	513	831	12	281	
13	0	0	0	0	524	839	31	295	
14	0	0	0	0	499	935	44	304	
15	0	0	0	0	448	888	51	312	
0	0	0	0	0	399	723	67	319	
1	0	0	0	0	390	536	92	334	
2	0	0	0	0	423	494	103	335	
3	0	0	0	0	423	451	127	348	
4	0	0	0	0	387	408	142	355	
5	0	0	0	0	432	384	152	359	
6	0	0	0	0	448	305	166	364	
7	0	0	0	0	486	188	179	368	
8	0	0	0	0	423	172	184	371	
9	0	0	0	0	391	199	184	384	
10	0	0	0	0	408	271	199	380	
11	0	0	0	0	430	369	209	380	
12	0	0	0	0	455	481	216	385	
13	0	0	0	0	460	624	220	391	
14	0	0	0	0	463	679	240	391	
15	0	0	0	0	465	595	248	399	
0	0	0	0	0	460	536	252	403	
1	0	0	0	0	480	529	254	403	
2	0	0	0	0	510	480	255	408	
3	0	0	0	0	515	455	270	412	
4	0	0	0	0	519	448	275	412	
5	0	0	0	0	504	448	286	419	
6	0	0	0	0	481	463	287	423	
7	0	0	0	0	480	480	304	423	
8	0	0	0	0	492	499	316	428	
9	0	0	0	0	504	508	319	432	
10	0	0	0	0	480	510	339	440	
11	0	0	0	0	473	494	339	448	
12	0	0	0	0	460	467	345	448	
13	0	0	0	0	455	465	352	448	
14	0	0	0	0	470	511	352	451	
15	0	0	0	0	472	526	359	460	
0	0	0	0	0	463	529	384	463	
1	0	0	0	0	448	524	391	472	
2	0	0	0	0	432	543	399	476	
3	0	0	0	0	451	543	414	480	
4	0	0	0	0	496	481	419	480	
5	0	0	0	0	536	440	414	483	
6	0	0	0	0	531	440	423	483	
7	0	0	0	0	526	352	423	483	
8	0	0	0	0	531	284	432	487	
9	0	0	0	0	515	384	432	487	
10	0	0	0	0	483	451	432	494	
11	0	0	0	0	483	412	430	496	
12	0	0	0	0	504	512	432	496	
13	0	0	0	0	510	543	448	499	
14	0	0	0	0	487	591	448	504	
15	0	0	0	0	467	803	449	511	
0	0	0	0	0	472	944	455	519	
1	0	0	0	0	480	952	454	527	
2	0	0	0	0	440	835	454	529	
3	0	0	0	0	384	711	451	536	
4	0	0	0	0	352	531	462	543	
5	0	0	0	0	355	364	467	547	
6	0	0	0	0	428	312	463	547	
7	0	0	0	0	449	255	472	551	
8	0	0	0	0	511	353	480	560	
9	0	0	0	0	588	526	481	560	
10	0	0	0	0	600	624	487	563	
11	0	0	0	0	560	604	492	568	
12	0	0	0	0	526	536	487	568	
13	0	0	0	0	518	448	494	575	
14	0	0	0	0	496	319	496	582	
15	0	0	0	0	463	280	496	583	
0	0	0	0	0	481	396	504	588	
1	0	0	0	0	487	502	508	588	
2	0	0	0	0	480	551	510	590	
3	0	0	0	0	451	568	512	591	
4	0	0	0	0	435	536	513	595	
5	0	0	0	0	408	467	515	595	
6	0	0	0	0	448	463	513	600	
7	0	0	0	0	472	496	511	600	
8	0	0	0	0	455	515	512	604	
9	0	0	0	0	460	519	512	608	
10	0	0	0	0	433	499	512	608	
11	0	0	0	0	432	513	515	608	
12	0	0	0	0	460	519	515	609	
13	0	0	0	0	515	513	518	609	
14	0	0	0	0	561	512	519	615	
15	0	0	0	0	561	536	524	615	
0	0	0	0	0	536	512	524	615	
1	0	0	0	0	513	472	529	620	
2	0	0	0	0	504	508	527	620	
3	0	0	0	0	508	527	536	622	
4	0	0	0	0	504	531	536	624	
5	0	0	0	0	494	519	536	624	
6	0	0	0	0	480	512	536	625	
7	0	0	0	0	481	512	536	624	
8	0	0	0	0	481	510	531	625	
9	0	0	0	0	472	508	536	625	
10	0	0	0	0	462	508	542	627	
11	0	0	0	0	449	508	543	627	
12	0	0	0	0	448	508	543	627	
13	0	0	0	0	444	512	543	627	
14	0	0	0	0	454	515	542	627	
15	0	0	0	0	470	513	543	627	
0	0	0	0	0	483	512	543	627	
1	0	0	0	0	480	513	543	625	
2	0	0	0	0	487	515	543	625	
3	0	0	0	0	504	515	543	627	
4	0	0	0	0	504	515	547	627	
5	0	0	0	0	504	511	551	627	
6	0	0	0	0	486	508	550	627	
7	0	0	0	0	460	508	547	627	
8	0	0	0	0	441	504	547	627	
9	0	0	0	0	440	510	543	627	
10	0	0	0	0	449	508	543	627	
11	0	0	0	0	492	499	540	627	
12	0	0	0	0	504	499	540	625	
13	0	0	0	0	476	505	540	627	
14	0	0	0	0	467	504	540	627	
15	0	0	0	0	463	504	536	627	
0	0	0	0	0	460	504	540	627	
1	0	0	0	0	463	511	536	627	
2	0	0	0	0	455	513	536	625	
3	0	0	0	0	460	513	536	625	
4	0	0	0	0	472	508	531	625	
5	0	0	0	0	472	496	531	624	
6	0	0	0	0	481	465	529	624	
7	0	0	0	0	487	440	527	624	
8	0	0	0	0	492	440	527	624	
9	0	0	0	0	496	478	524	624	
10	0	0	0	0	499	543	521	624	
11	0	0	0	0	504	609	519	624	
12	0	0	0	0	487	632	515	624	
13	0	0	0	0	467	611	513	624	
14	0	0	0	0	448	575	511	624	
15	0	0	0	0	428	536	508	624	
0	0	0	0	0	448	497	508	624	
1	0	0	0	0	455	494	504	624	
2	0	0	0	0	451	483	504	624	
3	0	0	0	0	449	476	497	624	
4	0	0	0	0	448	480	496	622	
5	0	0	0	0	463	497	494	620	
6	0	0	0	0	483	504	492	620	
7	0	0	0	0	502	492	489	615	
8	0	0	0	0	496	467	486	615	
9	0	0	0	0	497	472	483	615	
10	0	0	0	0	515	487	481	611	
11	0	0	0	0	531	504	480	611	
12	0	0	0	0	527	508	478	609	
13	0	0	0	0	505	513	476	609	
14	0	0	0	0	494	527	472	608	
15	0	0	0	0	496	526	467	608	
0	0	0	0	0	527	455	463	608	
1	0	0	0	0	515	399	463	608	
2	0	0	0	0	483	396	463	608	
3	0	0	0	0	460	399	467	606	
4	0	0	0	0	451	451	467	604	
5	0	0	0	0	454	543	470	604	
6	0	0	0	0	435	582	472	604	
7	0	0	0	0	423	647	472	604	
8	0	0	0	0	432	647	472	604	
9	0	0	0	0	440	632	472	604	
10	0	0	0	0	460	556	480	604	
11	0	0	0	0	460	519	480	601	
12	0	0	0	0	448	536	480	604	
13	0	0	0	0	448	515	481	604	
14	0	0	0	0	440	511	480	604	
15	0	0	0	0	444	496	480	604	
0	0	0	0	0	444	492	480	604	
1	0	0	0	0	440	496	480	604	
2	0	0	0	0	451	492	481	604	
3	0	0	0	0	472	487	481	604	
4	0	0	0	0	487	499	483	604	
5	0	0	0	0	524	497	483	604	
6	0	0	0	0	508	492	483	604	
7	0	0	0	0	487	487	483	604	
8	0	0	0	0	483	497	483	601	
9	0	0	0	0	481	483	486	601	
10	0	0	0	0	505	483	487	604	
11	0	0	0	0	494	455	487	604	
12	0	0	0	0	463	455	492	604	
13	0	0	0	0	463	472	494	604	
14	0	0	0	0	473	524	494	604	
15	0	0	0	0	476	563	496	604	
0	0	0	0	0	481	560	496	604	
1	0	0	0	0	476	540	497	604	
2	0	0	0	0	472	531	496	604	
3	0	0	0	0	480	527	496	604	
4	0	0	0	0	480	519	496	604	
5	0	0	0	0	480	519	496	604	
6	0	0	0	0	463	512	496	604	
7	0	0	0	0	448	504	496	604	
8	0	0	0	0	448	496	496	604	
9	0	0	0	0	455	492	496	604	
10	0	0	0	0	463	492	496	604	
11	0	0	0	0	462	487	492	604	
12	0	0	0	0	487	481	492	604	
13	0	0	0	0	496	472	487	604	
14	0	0	0	0	508	480	487	604	
15	0	0	0	0	481	451	487	604	
0	0	0	0	0	455	476	487	601	
1	0	0	0	0	444	526	487	600	
2	0	0	0	0	476	572	487	600	
3	0	0	0	0	504	595	483	600	
4	0	0	0	0	511	583	483	601	
5	0	0	0	0	497	536	483	600	
6	0	0	0	0	492	511	480	600	
7	0	0	0	0	483	494	480	600	
8	0	0	0	0	455	512	476	601	
9	0	0	0	0	435	504	476	600	
10	0	0	0	0	448	497	476	601	
11	0	0	0	0	483	505	476	600	
12	0	0	0	0	504	511	480	601	
13	0	0	0	0	524	504	478	601	
14	0	0	0	0	512	497	476	601	
15	0	0	0	0	483	499	476	600	
0	0	0	0	0	480	499	472	600	
1	0	0	0	0	483	504	472	600	
2	0	0	0	0	476	504	472	600	
3	0	0	0	0	463	511	463	600	
4	0	0	0	0	454	515	465	600	
5	0	0	0	0	465	512	465	600	
6	0	0	0	0	492	510	463	600	
7	0	0	0	0	496	504	462	600	
8	0	0	0	0	487	508	460	600	
9	0	0	0	0	481	510	460	600	
10	0	0	0	0	483	496	462	600	
11	0	0	0	0	478	483	463	595	
12	0	0	0	0	463	483	462	600	
13	0	0	0	0	476	508	462	595	
14	0	0	0	0	480	519	460	595	
15	0	0	0	0	476	527	457	600	
0	0	0	0	0	472	526	455	600	
1	0	0	0	0	472	496	455	595	
2	0	0	0	0	472	487	455	595	
3	0	0	0	0	472	499	455	593	
4	0	0	0	0	463	496	455	591	
5	0	0	0	0	463	496	455	591	
6	0	0	0	0	455	515	455	591	
7	0	0	0	0	448	513	455	591	
8	0	0	0	0	451	499	455	591	
9	0	0	0	0	467	499	455	591	
10	0	0	0	0	496	515	455	591	
11	0	0	0	0	504	524	455	591	
12	0	0	0	0	499	543	455	591	
13	0	0	0	0	504	556	454	591	
14	0	0	0	0	496	512	455	591	
15	0	0	0	0	496	494	455	591	
0	0	0	0	0	492	496	455	591	
1	0	0	0	0	480	494	451	591	
2	0	0	0	0	472	508	454	591	
3	0	0	0	0	460	515	454	590	
4	0	0	0	0	448	508	451	590	
5	0	0	0	0	448	531	451	590	
6	0	0	0	0	449	527	451	588	
7	0	0	0	0	460	521	451	588	
8	0	0	0	0	460	515	451	588	
9	0	0	0	0	463	512	451	588	
10	0	0	0	0	467	511	451	588	
11	0	0	0	0	480	504	455	585	
12	0	0	0	0	481	483	455	583	
13	0	0	0	0	480	480	455	583	
14	0	0	0	0	480	483	455	583	
15	0	0	0	0	480	480	455	583	
0	0	0	0	0	497	504	455	583	
1	0	0	0	0	510	519	455	583	
2	0	0	0	0	511	527	455	583	
3	0	0	0	0	524	536	455	583	
4	0	0	0	0	519	519	455	582	
5	0	0	0	0	515	524	455	583	
6	0	0	0	0	504	511	455	582	
7	0	0	0	0	504	515	455	582	
8	0	0	0	0	472	518	455	579	
9	0	0	0	0	448	510	451	579	
10	0	0	0	0	441	510	451	583	
11	0	0	0	0	448	511	451	582	
12	0	0	0	0	440	496	451	582	
13	0	0	0	0	440	497	451	582	
14	0	0	0	0	451	487	451	579	
15	0	0	0	0	462	480	449	575	
0	0	0	0	0	472	497	448	575	
1	0	0	0	0	472	513	448	575	
2	0	0	0	0	472	524	448	575	
3	0	0	0	0	472	527	448	575	
4	0	0	0	0	472	524	448	575	
5	0	0	0	0	480	515	448	579	
6	0	0	0	0	480	508	448	575	
7	0	0	0	0	470	487	448	575	
8	0	0	0	0	476	478	448	575	
9	0	0	0	0	472	480	448	575	
10	0	0	0	0	463	508	448	575	
11	0	0	0	0	460	510	448	575	
12	0	0	0	0	472	515	449	575	
13	0	0	0	0	480	519	451	575	
14	0	0	0	0	472	527	451	575	
15	0	0	0	0	460	529	451	575	
0	0	0	0	0	476	527	451	575	
1	0	0	0	0	472	518	451	575	
2	0	0	0	0	463	511	451	575	
3	0	0	0	0	463	511	451	575	
4	0	0	0	0	476	508	451	575	
5	0	0	0	0	497	508	451	575	
6	0	0	0	0	492	508	451	575	
7	0	0	0	0	483	508	449	575	
8	0	0	0	0	478	510	449	575	
9	0	0	0	0	487	512	449	575	
10	0	0	0	0	494	504	449	575	
11	0	0	0	0	476	499	449	575	
12	0	0	0	0	481	496	448	575	
13	0	0	0	0	499	504	449	575	
14	0	0	0	0	496	512	448	575	
15	0	0	0	0	483	513	448	575	
0	0	0	0	0	487	505	448	575	
1	0	0	0	0	483	496	448	575	
2	0	0	0	0	476	483	448	575	
3	0	0	0	0	455	487	448	575	
4	0	0	0	0	448	524	448	574	
5	0	0	0	0	451	536	448	574	
6	0	0	0	0	472	527	448	574	
7	0	0	0	0	476	519	448	574	
8	0	0	0	0	472	511	444	574	
9	0	0	0	0	481	510	444	572	
10	0	0	0	0	487	508	448	572	
11	0	0	0	0	483	524	444	572	
12	0	0	0	0	481	515	444	572	
13	0	0	0	0	463	505	444	572	
14	0	0	0	0	462	504	440	572	
15	0	0	0	0	472	492	441	572	
0	0	0	0	0	480	487	440	572	
1	0	0	0	0	492	512	440	572	
2	0	0	0	0	519	536	435	572	
3	0	0	0	0	519	504	435	572	
4	0	0	0	0	505	494	435	569	
5	0	0	0	0	492	504	435	569	
6	0	0	0	0	481	481	435	569	
7	0	0	0	0	472	499	435	568	
8	0	0	0	0	472	510	432	569	
9	0	0	0	0	472	499	435	569	
10	0	0	0	0	463	483	435	572	
11	0	0	0	0	455	496	435	569	
12	0	0	0	0	451	510	433	568	
13	0	0	0	0	460	527	433	568	
14	0	0	0	0	472	572	433	568	
15	0	0	0	0	483	583	433	568	
0	0	0	0	0	494	561	432	568	
1	0	0	0	0	496	540	432	568	
2	0	0	0	0	472	492	432	568	
3	0	0	0	0	460	492	432	568	
4	0	0	0	0	440	504	432	569	
5	0	0	0	0	460	496	432	569	
6	0	0	0	0	483	504	433	572	
7	0	0	0	0	476	511	433	572	
8	0	0	0	0	481	511	433	572	
9	0	0	0	0	467	499	433	572	
10	0	0	0	0	449	508	432	572	
11	0	0	0	0	455	510	433	572	
12	0	0	0	0	476	481	433	572	
13	0	0	0	0	504	494	433	572	
14	0	0	0	0	508	499	433	572	
15	0	0	0	0	487	487	435	572	
0	0	0	0	0	472	496	435	572	
1	0	0	0	0	470	463	435	572	
2	0	0	0	0	480	448	438	572	
3	0	0	0	0	487	487	435	572	
4	0	0	0	0	483	504	435	574	
5	0	0	0	0	487	527	435	572	
6	0	0	0	0	487	550	435	574	
7	0	0	0	0	480	551	432	574	
8	0	0	0	0	476	543	432	574	
9	0	0	0	0	480	519	432	574	
10	0	0	0	0	480	504	432	574	
11	0	0	0	0	467	499	432	574	
12	0	0	0	0	480	496	432	574	
13	0	0	0	0	481	504	432	574	
14	0	0	0	0	480	519	432	574	
15	0	0	0	0	487	540	432	574	
0	0	0	0	0	483	560	432	574	
1	0	0	0	0	460	550	432	575	
2	0	0	0	0	432	519	430	574	
3	0	0	0	0	444	505	430	574	
4	0	0	0	0	487	496	432	574	
5	0	0	0	0	492	483	432	574	
6	0	0	0	0	462	487	432	574	
7	0	0	0	0	448	487	432	574	
8	0	0	0	0	451	496	432	574	
9	0	0	0	0	487	499	432	575	
10	0	0	0	0	510	510	432	574	
11	0	0	0	0	499	512	432	574	
12	0	0	0	0	483	513	432	574	
13	0	0	0	0	487	524	432	575	
14	0	0	0	0	480	511	432	575	
15	0	0	0	0	465	496	432	575	
0	0	0	0	0	462	496	432	574	
1	0	0	0	0	449	492	433	575	
2	0	0	0	0	449	511	433	575	
3	0	0	0	0	480	524	435	575	
4	0	0	0	0	481	519	440	575	
5	0	0	0	0	472	504	440	575	
6	0	0	0	0	444	496	440	575	
7	0	0	0	0	435	487	440	575	
8	0	0	0	0	455	487	440	575	
9	0	0	0	0	494	504	440	575	
10	0	0	0	0	489	494	440	575	
11	0	0	0	0	492	497	440	575	
12	0	0	0	0	511	515	440	575	
13	0	0	0	0	504	519	440	575	
14	0	0	0	0	496	527	440	575	
15	0	0	0	0	492	536	440	575	
0	0	0	0	0	497	529	440	575	
1	0	0	0	0	508	508	440	575	
2	0	0	0	0	508	504	440	575	
3	0	0	0	0	496	487	440	575	
4	0	0	0	0	481	481	440	575	
5	0	0	0	0	472	510	444	575	
6	0	0	0	0	467	483	448	575	
7	0	0	0	0	448	472	448	575	
8	0	0	0	0	448	513	448	575	
9	0	0	0	0	428	527	448	575	
10	0	0	0	0	415	536	448	575	
11	0	0	0	0	444	550	448	575	
12	0	0	0	0	492	536	448	575	
13	0	0	0	0	492	527	448	575	
14	0	0	0	0	481	524	448	575	
15	0	0	0	0	476	519	448	575	
0	0	0	0	0	472	496	448	575	
1	0	0	0	0	472	476	449	575	
2	0	0	0	0	483	487	448	575	
3	0	0	0	0	486	504	448	575	
4	0	0	0	0	473	505	448	575	
5	0	0	0	0	476	512	448	575	
6	0	0	0	0	487	519	449	575	
7	0	0	0	0	483	515	449	575	
8	0	0	0	0	465	508	451	575	
9	0	0	0	0	462	504	449	575	
10	0	0	0	0	467	515	451	575	
11	0	0	0	0	480	511	451	575	
12	0	0	0	0	467	496	449	575	
13	0	0	0	0	467	481	449	575	
14	0	0	0	0	472	496	451	575	
15	0	0	0	0	463	496	449	575	
0	0	0	0	0	455	504	451	575	
1	0	0	0	0	472	515	451	575	
2	0	0	0	0	496	536	451	575	
3	0	0	0	0	510	515	451	575	
4	0	0	0	0	492	504	451	575	
5	0	0	0	0	483	519	451	575	
6	0	0	0	0	492	515	449	575	
7	0	0	0	0	483	515	449	575	
8	0	0	0	0	487	515	449	575	
9	0	0	0	0	496	504	448	575	
10	0	0	0	0	483	486	448	575	
11	0	0	0	0	460	496	449	575	
12	0	0	0	0	432	508	449	575	
13	0	0	0	0	455	504	448	575	
14	0	0	0	0	483	504	448	575	
15	0	0	0	0	504	504	448	575	
0	0	0	0	0	508	512	448	575	
1	0	0	0	0	497	526	448	575	
2	0	0	0	0	483	527	448	575	
3	0	0	0	0	478	496	448	575	
4	0	0	0	0	472	472	448	575	
5	0	0	0	0	467	467	448	575	
6	0	0	0	0	463	455	448	575	
7	0	0	0	0	460	467	448	575	
8	0	0	0	0	463	518	448	575	
9	0	0	0	0	481	527	448	575	
10	0	0	0	0	499	527	448	575	
11	0	0	0	0	494	560	440	575	
12	0	0	0	0	483	563	440	575	
13	0	0	0	0	483	560	440	575	
14	0	0	0	0	487	551	440	575	
15	0	0	0	0	480	543	440	575	
0	0	0	0	0	470	556	440	575	
1	0	0	0	0	473	540	440	575	
2	0	0	0	0	472	504	440	575	
3	0	0	0	0	463	460	440	575	
4	0	0	0	0	455	460	440	575	
5	0	0	0	0	463	480	435	575	
6	0	0	0	0	483	480	433	575	
7	0	0	0	0	487	492	432	575	
8	0	0	0	0	487	483	432	575	
9	0	0	0	0	472	483	432	575	
10	0	0	0	0	463	476	432	575	
11	0	0	0	0	463	487	432	575	
12	0	0	0	0	472	524	430	575	
13	0	0	0	0	480	536	430	575	
14	0	0	0	0	472	519	428	575	
15	0	0	0	0	460	521	428	575	
0	0	0	0	0	463	526	428	575	
1	0	0	0	0	463	536	428	575	
2	0	0	0	0	465	518	423	575	
3	0	0	0	0	492	513	423	575	
4	0	0	0	0	504	496	423	575	
5	0	0	0	0	483	487	419	575	
6	0	0	0	0	462	496	419	575	
7	0	0	0	0	463	504	419	575	
8	0	0	0	0	476	499	419	575	
9	0	0	0	0	463	504	419	575	
10	0	0	0	0	451	504	419	575	
11	0	0	0	0	448	508	415	575	
12	0	0	0	0	463	519	415	575	
13	0	0	0	0	480	531	415	575	
14	0	0	0	0	483	513	415	575	
15	0	0	0	0	487	512	414	575	
0	0	0	0	0	487	510	414	575	
1	0	0	0	0	492	511	414	575	
2	0	0	0	0	480	504	412	575	
3	0	0	0	0	455	496	412	575	
4	0	0	0	0	467	496	408	575	
5	0	0	0	0	504	504	408	575	
6	0	0	0	0	510	497	408	575	
7	0	0	0	0	505	480	408	575	
8	0	0	0	0	499	487	408	575	
9	0	0	0	0	492	492	403	575	
10	0	0	0	0	472	492	401	575	
11	0	0	0	0	460	504	399	575	
12	0	0	0	0	451	526	399	575	
13	0	0	0	0	460	531	399	575	
14	0	0	0	0	467	560	398	575	
15	0	0	0	0	463	560	398	575	
0	0	0	0	0	455	536	387	575	
1	0	0	0	0	467	519	387	575	
2	0	0	0	0	492	515	385	575	
3	0	0	0	0	481	499	385	575	
4	0	0	0	0	487	496	384	575	
5	0	0	0	0	496	504	385	575	
6	0	0	0	0	499	497	385	575	
7	0	0	0	0	499	476	387	575	
8	0	0	0	0	487	480	385	575	
9	0	0	0	0	480	504	387	575	
10	0	0	0	0	478	512	387	575	
11	0	0	0	0	476	515	387	575	
12	0	0	0	0	462	505	399	575	
13	0	0	0	0	448	496	401	575	
14	0	0	0	0	451	480	401	575	
15	0	0	0	0	451	496	401	575	
0	0	0	0	0	455	511	403	575	
1	0	0	0	0	463	524	403	575	
2	0	0	0	0	467	527	403	575	
3	0	0	0	0	472	527	403	575	
4	0	0	0	0	467	527	403	575	
5	0	0	0	0	476	512	403	575	
6	0	0	0	0	480	487	408	575	
7	0	0	0	0	480	486	408	575	
8	0	0	0	0	476	487	408	575	
9	0	0	0	0	472	496	409	575	
10	0	0	0	0	472	496	412	575	
11	0	0	0	0	467	511	412	575	
12	0	0	0	0	460	543	412	575	
13	0	0	0	0	455	560	414	575	
14	0	0	0	0	463	543	414	575	
15	0	0	0	0	487	519	415	575	
0	0	0	0	0	497	513	415	575	
1	0	0	0	0	487	504	415	575	
2	0	0	0	0	487	504	415	575	
3	0	0	0	0	481	497	419	575	
4	0	0	0	0	480	487	419	575	
5	0	0	0	0	472	497	419	575	
6	0	0	0	0	467	487	423	575	
7	0	0	0	0	462	511	422	575	
8	0	0	0	0	463	519	423	575	
9	0	0	0	0	467	496	423	575	
10	0	0	0	0	467	494	423	575	
11	0	0	0	0	472	510	423	575	
12	0	0	0	0	472	513	428	575	
13	0	0	0	0	476	527	423	575	
14	0	0	0	0	486	508	423	575	
15	0	0	0	0	510	497	423	575	
0	0	0	0	0	524	519	423	575	
1	0	0	0	0	510	511	428	575	
2	0	0	0	0	496	515	428	575	
3	0	0	0	0	481	504	428	575	
4	0	0	0	0	472	483	428	575	
5	0	0	0	0	467	489	428	575	
6	0	0	0	0	480	499	428	575	
7	0	0	0	0	497	529	428	575	
8	0	0	0	0	492	536	430	575	
9	0	0	0	0	480	508	428	575	
10	0	0	0	0	465	513	430	575	
11	0	0	0	0	455	524	430	575	
12	0	0	0	0	462	513	430	575	
13	0	0	0	0	463	540	430	575	
14	0	0	0	0	472	536	430	575	
15	0	0	0	0	476	505	430	575	
0	0	0	0	0	480	504	430	575	
1	0	0	0	0	472	519	430	575	
2	0	0	0	0	472	508	430	575	
3	0	0	0	0	483	497	428	575	
4	0	0	0	0	497	472	428	575	
5	0	0	0	0	497	472	428	575	
6	0	0	0	0	487	472	428	575	
7	0	0	0	0	480	467	423	575	
8	0	0	0	0	472	508	423	575	
9	0	0	0	0	473	536	423	575	
10	0	0	0	0	472	547	423	575	
11	0	0	0	0	470	543	419	575	
12	0	0	0	0	472	536	417	575	
13	0	0	0	0	463	531	415	575	
14	0	0	0	0	455	508	415	575	
15	0	0	0	0	444	492	415	575	
0	0	0	0	0	440	496	415	575	
1	0	0	0	0	486	508	414	575	
2	0	0	0	0	504	508	414	575	
3	0	0	0	0	492	515	412	575	
4	0	0	0	0	481	515	412	575	
5	0	0	0	0	480	508	412	575	
6	0	0	0	0	480	504	412	575	
7	0	0	0	0	473	496	412	575	
8	0	0	0	0	476	472	412	575	
9	0	0	0	0	480	483	412	575	
10	0	0	0	0	487	508	409	575	
11	0	0	0	0	473	508	408	575	
12	0	0	0	0	463	504	408	575	
13	0	0	0	0	455	508	408	575	
14	0	0	0	0	449	504	408	575	
15	0	0	0	0	435	511	408	575	
0	0	0	0	0	448	499	408	575	
1	0	0	0	0	455	496	401	575	
2	0	0	0	0	480	519	401	575	
3	0	0	0	0	511	543	401	575	
4	0	0	0	0	499	540	401	575	
5	0	0	0	0	492	529	399	575	
6	0	0	0	0	497	536	399	575	
7	0	0	0	0	497	540	399	575	
8	0	0	0	0	494	527	399	575	
9	0	0	0	0	487	515	398	575	
10	0	0	0	0	487	508	384	575	
11	0	0	0	0	487	494	384	575	
12	0	0	0	0	476	480	384	575	
13	0	0	0	0	455	480	384	575	
14	0	0	0	0	462	487	380	575	
15	0	0	0	0	480	480	377	575	
0	0	0	0	0	476	486	376	575	
1	0	0	0	0	483	463	374	575	
2	0	0	0	0	496	478	371	575	
3	0	0	0	0	492	496	371	575	
4	0	0	0	0	483	510	371	575	
5	0	0	0	0	472	508	369	579	
6	0	0	0	0	470	536	368	575	
7	0	0	0	0	476	551	368	575	
8	0	0	0	0	487	572	364	575	
9	0	0	0	0	487	574	359	575	
10	0	0	0	0	480	575	359	575	
11	0	0	0	0	451	543	358	575	
12	0	0	0	0	449	512	355	575	
13	0	0	0	0	455	497	359	575	
14	0	0	0	0	478	492	355	575	
15	0	0	0	0	472	496	359	579	
0	0	0	0	0	480	492	355	575	
1	0	0	0	0	487	489	355	579	
2	0	0	0	0	489	487	359	579	
3	0	0	0	0	483	483	359	579	
4	0	0	0	0	476	487	359	579	
5	0	0	0	0	463	492	358	579	
6	0	0	0	0	463	504	353	579	
7	0	0	0	0	480	505	353	579	
8	0	0	0	0	480	508	355	579	
9	0	0	0	0	476	504	353	579	
10	0	0	0	0	457	508	353	579	
11	0	0	0	0	449	510	352	579	
12	0	0	0	0	465	515	352	579	
13	0	0	0	0	481	518	352	579	
14	0	0	0	0	487	504	352	579	
15	0	0	0	0	487	504	352	575	
0	0	0	0	0	492	492	352	579	
1	0	0	0	0	480	496	352	575	
2	0	0	0	0	467	508	352	575	
3	0	0	0	0	472	508	353	575	
4	0	0	0	0	463	510	355	579	
5	0	0	0	0	463	511	353	579	
6	0	0	0	0	481	519	353	575	
7	0	0	0	0	494	505	355	579	
8	0	0	0	0	483	499	353	579	
9	0	0	0	0	455	499	355	579	
10	0	0	0	0	448	519	355	579	
11	0	0	0	0	476	536	353	579	
12	0	0	0	0	492	526	355	579	
13	0	0	0	0	487	510	355	579	
14	0	0	0	0	480	504	358	579	
15	0	0	0	0	480	515	359	579	
0	0	0	0	0	463	519	355	579	
1	0	0	0	0	467	515	355	579	
2	0	0	0	0	487	508	355	579	
3	0	0	0	0	502	504	359	579	
4	0	0	0	0	496	508	358	579	
5	0	0	0	0	487	510	359	575	
6	0	0	0	0	472	487	359	579	
7	0	0	0	0	483	499	359	579	
8	0	0	0	0	489	527	359	579	
9	0	0	0	0	483	524	359	579	
10	0	0	0	0	480	511	359	575	
11	0	0	0	0	473	483	359	579	
12	0	0	0	0	476	487	359	579	
13	0	0	0	0	480	497	364	575	
14	0	0	0	0	476	496	359	575	
15	0	0	0	0	455	496	364	575	
0	0	0	0	0	465	496	364	575	
1	0	0	0	0	480	487	364	575	
2	0	0	0	0	480	519	366	575	
3	0	0	0	0	460	543	368	575	
4	0	0	0	0	440	540	368	575	
5	0	0	0	0	432	519	368	575	
6	0	0	0	0	419	511	366	575	
7	0	0	0	0	433	512	366	575	
8	0	0	0	0	460	511	368	575	
9	0	0	0	0	480	515	368	575	
10	0	0	0	0	511	496	369	575	
11	0	0	0	0	534	467	368	575	
12	0	0	0	0	513	463	368	575	
13	0	0	0	0	511	472	369	575	
14	0	0	0	0	512	463	371	575	
15	0	0	0	0	499	504	371	575	
0	0	0	0	0	487	526	371	575	
1	0	0	0	0	480	536	371	575	
2	0	0	0	0	472	543	369	575	
3	0	0	0	0	472	568	369	575	
4	0	0	0	0	476	575	371	575	
5	0	0	0	0	467	575	371	575	
6	0	0	0	0	467	536	374	575	
7	0	0	0	0	463	504	374	575	
8	0	0	0	0	472	480	374	575	
9	0	0	0	0	480	480	376	579	
10	0	0	0	0	476	492	374	579	
11	0	0	0	0	472	497	376	579	
12	0	0	0	0	472	499	376	579	
13	0	0	0	0	480	496	376	579	
14	0	0	0	0	483	497	376	579	
15	0	0	0	0	483	504	377	579	
0	0	0	0	0	480	508	377	579	
1	0	0	0	0	487	504	384	579	
2	0	0	0	0	496	492	380	579	
3	0	0	0	0	492	496	377	579	
4	0	0	0	0	483	487	380	579	
5	0	0	0	0	472	476	380	579	
6	0	0	0	0	451	487	377	579	
7	0	0	0	0	448	496	377	579	
8	0	0	0	0	435	504	376	579	
9	0	0	0	0	444	527	376	579	
10	0	0	0	0	455	550	376	575	
11	0	0	0	0	451	543	376	575	
12	0	0	0	0	463	536	380	575	
13	0	0	0	0	476	527	376	575	
14	0	0	0	0	487	512	376	579	
15	0	0	0	0	504	480	376	575	
0	0	0	0	0	496	476	376	579	
1	0	0	0	0	487	513	371	579	
2	0	0	0	0	480	526	371	579	
3	0	0	0	0	473	496	369	579	
4	0	0	0	0	481	483	369	579	
5	0	0	0	0	487	504	369	579	
6	0	0	0	0	504	511	368	575	
7	0	0	0	0	497	510	368	575	
8	0	0	0	0	487	519	368	575	
9	0	0	0	0	480	515	368	575	
10	0	0	0	0	476	519	368	575	
11	0	0	0	0	476	508	368	575	
12	0	0	0	0	460	496	366	575	
13	0	0	0	0	440	504	366	575	
14	0	0	0	0	454	511	366	575	
15	0	0	0	0	465	511	364	575	
0	0	0	0	0	472	511	364	575	
1	0	0	0	0	476	499	366	575	
2	0	0	0	0	472	496	364	575	
3	0	0	0	0	472	499	364	575	
4	0	0	0	0	467	496	359	575	
5	0	0	0	0	451	504	359	575	
6	0	0	0	0	451	510	359	575	
7	0	0	0	0	463	519	359	575	
8	0	0	0	0	487	529	359	575	
9	0	0	0	0	510	519	359	575	
10	0	0	0	0	508	496	359	575	
11	0	0	0	0	496	499	359	575	
12	0	0	0	0	492	512	359	575	
13	0	0	0	0	476	478	359	575	
14	0	0	0	0	460	460	359	575	
15	0	0	0	0	451	487	359	575	
0	0	0	0	0	455	512	359	575	
1	0	0	0	0	472	521	359	575	
2	0	0	0	0	481	527	359	575	
3	0	0	0	0	480	536	359	575	
4	0	0	0	0	462	551	359	575	
5	0	0	0	0	455	556	359	575	
6	0	0	0	0	463	536	359	575	
7	0	0	0	0	467	499	359	575	
8	0	0	0	0	483	504	359	575	
9	0	0	0	0	524	508	359	575	
10	0	0	0	0	527	508	359	575	
11	0	0	0	0	504	505	359	575	
12	0	0	0	0	483	497	359	575	
13	0	0	0	0	483	492	359	575	
14	0	0	0	0	487	487	355	575	
15	0	0	0	0	480	496	358	575	
0	0	0	0	0	476	499	358	575	
1	0	0	0	0	480	499	359	575	
2	0	0	0	0	463	505	358	575	
3	0	0	0	0	467	513	359	575	
4	0	0	0	0	472	511	359	575	
5	0	0	0	0	463	505	359	575	
6	0	0	0	0	460	510	359	575	
7	0	0	0	0	449	496	359	575	
8	0	0	0	0	463	504	359	575	
9	0	0	0	0	483	504	359	575	
10	0	0	0	0	494	480	359	575	
11	0	0	0	0	504	504	359	575	
12	0	0	0	0	511	524	359	575	
13	0	0	0	0	497	496	359	575	
14	0	0	0	0	492	494	359	575	
15	0	0	0	0	481	504	359	575	
0	0	0	0	0	472	536	359	575	
1	0	0	0	0	483	536	359	575	
2	0	0	0	0	480	527	359	575	
3	0	0	0	0	486	531	359	575	
4	0	0	0	0	472	524	359	575	
5	0	0	0	0	467	512	358	575	
6	0	0	0	0	463	536	359	575	
7	0	0	0	0	463	536	359	575	
8	0	0	0	0	470	527	359	575	
9	0	0	0	0	467	504	359	575	
10	0	0	0	0	455	508	359	575	
11	0	0	0	0	440	504	359	575	
12	0	0	0	0	444	504	359	575	
13	0	0	0	0	455	504	359	575	
14	0	0	0	0	472	487	359	575	
15	0	0	0	0	476	494	359	575	
0	0	0	0	0	487	496	359	575	
1	0	0	0	0	487	504	359	575	
2	0	0	0	0	483	508	359	575	
3	0	0	0	0	481	508	359	575	
4	0	0	0	0	504	511	359	575	
5	0	0	0	0	518	504	359	575	
6	0	0	0	0	504	499	359	575	
7	0	0	0	0	483	504	359	575	
8	0	0	0	0	470	504	359	575	
9	0	0	0	0	472	504	359	575	
10	0	0	0	0	480	504	359	575	
11	0	0	0	0	476	504	359	575	
12	0	0	0	0	463	504	359	575	
13	0	0	0	0	463	496	359	575	
14	0	0	0	0	455	487	359	575	
15	0	0	0	0	455	504	359	575	
0	0	0	0	0	460	505	359	575	
1	0	0	0	0	462	524	359	575	
2	0	0	0	0	472	537	359	575	
3	0	0	0	0	483	536	359	575	
4	0	0	0	0	487	526	359	575	
5	0	0	0	0	487	519	359	575	
6	0	0	0	0	492	512	359	575	
7	0	0	0	0	489	515	359	575	
8	0	0	0	0	480	508	355	575	
9	0	0	0	0	483	510	355	575	
10	0	0	0	0	487	496	355	575	
11	0	0	0	0	481	496	355	575	
12	0	0	0	0	480	504	355	575	
13	0	0	0	0	480	504	355	575	
14	0	0	0	0	467	508	355	575	
15	0	0	0	0	467	504	355	575	
0	0	0	0	0	463	499	355	575	
1	0	0	0	0	472	487	355	575	
2	0	0	0	0	472	465	353	575	
3	0	0	0	0	463	481	353	575	
4	0	0	0	0	455	480	353	575	
5	0	0	0	0	460	515	352	575	
6	0	0	0	0	472	542	352	575	
7	0	0	0	0	487	536	352	575	
8	0	0	0	0	492	508	352	575	
9	0	0	0	0	480	492	352	575	
10	0	0	0	0	467	536	352	575	
11	0	0	0	0	481	579	352	575	
12	0	0	0	0	492	575	352	575	
13	0	0	0	0	487	556	352	575	
14	0	0	0	0	489	527	352	575	
15	0	0	0	0	480	513	352	575	
0	0	0	0	0	472	496	352	575	
1	0	0	0	0	472	481	353	575	
2	0	0	0	0	472	480	353	575	
3	0	0	0	0	476	476	353	575	
4	0	0	0	0	480	481	353	575	
5	0	0	0	0	476	489	353	575	
6	0	0	0	0	467	496	355	575	
7	0	0	0	0	467	496	353	575	
8	0	0	0	0	463	505	355	575	
9	0	0	0	0	463	513	353	575	
10	0	0	0	0	463	519	353	575	
11	0	0	0	0	476	515	355	575	
12	0	0	0	0	480	512	355	575	
13	0	0	0	0	487	504	353	575	
14	0	0	0	0	496	504	353	575	
15	0	0	0	0	487	502	353	575	
0	0	0	0	0	481	504	353	575	
1	0	0	0	0	487	508	352	575	
2	0	0	0	0	496	515	352	575	
3	0	0	0	0	483	518	352	575	
4	0	0	0	0	455	508	348	575	
5	0	0	0	0	448	504	348	575	
6	0	0	0	0	462	510	344	575	
7	0	0	0	0	472	515	344	575	
8	0	0	0	0	470	526	344	575	
9	0	0	0	0	455	511	344	575	
10	0	0	0	0	451	502	344	575	
11	0	0	0	0	462	487	344	575	
12	0	0	0	0	476	463	344	575	
13	0	0	0	0	496	487	342	575	
14	0	0	0	0	496	519	344	575	
15	0	0	0	0	492	551	344	575	
0	0	0	0	0	492	558	344	575	
1	0	0	0	0	480	543	344	575	
2	0	0	0	0	465	527	344	575	
3	0	0	0	0	481	519	342	575	
4	0	0	0	0	497	511	342	575	
5	0	0	0	0	504	492	342	575	
6	0	0	0	0	492	499	339	575	
7	0	0	0	0	480	505	339	575	
8	0	0	0	0	487	496	337	575	
9	0	0	0	0	483	499	337	575	
10	0	0	0	0	476	480	335	575	
11	0	0	0	0	467	487	335	575	
12	0	0	0	0	467	518	334	575	
13	0	0	0	0	467	540	335	575	
14	0	0	0	0	472	521	327	575	
15	0	0	0	0	467	519	327	575	
0	0	0	0	0	472	515	327	575	
1	0	0	0	0	480	511	327	575	
2	0	0	0	0	472	508	327	575	
3	0	0	0	0	476	508	326	575	
4	0	0	0	0	483	511	323	575	
5	0	0	0	0	487	496	319	575	
6	0	0	0	0	492	480	319	575	
7	0	0	0	0	492	476	319	575	
8	0	0	0	0	480	496	319	575	
9	0	0	0	0	480	510	319	575	
10	0	0	0	0	480	560	319	575	
11	0	0	0	0	460	563	319	575	
12	0	0	0	0	440	537	319	575	
13	0	0	0	0	448	521	318	575	
14	0	0	0	0	483	508	319	575	
15	0	0	0	0	481	483	319	575	
0	0	0	0	0	440	480	319	575	
1	0	0	0	0	451	504	318	575	
2	0	0	0	0	454	512	319	575	
3	0	0	0	0	460	496	319	575	
4	0	0	0	0	496	487	319	575	
5	0	0	0	0	511	510	319	575	
6	0	0	0	0	505	511	319	575	
7	0	0	0	0	487	511	319	575	
8	0	0	0	0	472	508	319	575	
9	0	0	0	0	472	513	319	575	
10	0	0	0	0	472	512	319	575	
11	0	0	0	0	478	499	319	575	
12	0	0	0	0	505	487	323	575	
13	0	0	0	0	508	489	323	575	
14	0	0	0	0	494	496	323	575	
15	0	0	0	0	496	529	323	575	
0	0	0	0	0	481	529	323	575	
1	0	0	0	0	465	499	323	575	
2	0	0	0	0	472	487	326	575	
3	0	0	0	0	462	480	327	575	
4	0	0	0	0	440	496	327	575	
5	0	0	0	0	451	515	327	575	
6	0	0	0	0	480	531	327	575	
7	0	0	0	0	492	531	327	575	
8	0	0	0	0	476	540	327	575	
9	0	0	0	0	467	531	327	575	
10	0	0	0	0	467	521	332	575	
11	0	0	0	0	467	527	334	575	
12	0	0	0	0	472	504	335	575	
13	0	0	0	0	480	463	337	575	
14	0	0	0	0	494	451	337	575	
15	0	0	0	0	504	480	337	575	
0	0	0	0	0	494	504	339	575	
1	0	0	0	0	480	518	339	575	
2	0	0	0	0	472	540	339	575	
3	0	0	0	0	472	563	342	575	
4	0	0	0	0	481	540	344	575	
5	0	0	0	0	476	531	344	575	
6	0	0	0	0	463	515	344	575	
7	0	0	0	0	463	519	344	575	
8	0	0	0	0	462	508	344	575	
9	0	0	0	0	462	496	345	575	
10	0	0	0	0	472	496	348	575	
11	0	0	0	0	480	508	348	575	
12	0	0	0	0	472	492	348	575	
13	0	0	0	0	462	492	348	575	
14	0	0	0	0	463	487	348	575	
15	0	0	0	0	472	483	348	575	
0	0	0	0	0	480	494	348	575	
1	0	0	0	0	472	496	350	575	
2	0	0	0	0	480	504	352	575	
3	0	0	0	0	492	512	352	575	
4	0	0	0	0	496	524	352	575	
5	0	0	0	0	515	531	352	575	
6	0	0	0	0	504	526	352	575	
7	0	0	0	0	481	519	352	575	
8	0	0	0	0	483	508	350	575	
9	0	0	0	0	487	504	348	575	
10	0	0	0	0	487	508	350	575	
11	0	0	0	0	481	519	352	575	
12	0	0	0	0	476	519	352	575	
13	0	0	0	0	463	492	352	575	
14	0	0	0	0	460	487	352	575	
15	0	0	0	0	455	480	352	575	
0	0	0	0	0	448	492	352	575	
1	0	0	0	0	455	504	352	575	
2	0	0	0	0	470	504	352	575	
3	0	0	0	0	480	504	352	575	
4	0	0	0	0	480	515	352	575	
5	0	0	0	0	476	524	352	575	
6	0	0	0	0	472	511	352	575	
7	0	0	0	0	467	492	352	575	
8	0	0	0	0	467	487	352	575	
9	0	0	0	0	480	504	352	575	
10	0	0	0	0	478	510	352	575	
11	0	0	0	0	483	540	352	575	
12	0	0	0	0	492	529	352	575	
13	0	0	0	0	496	518	352	575	
14	0	0	0	0	496	511	352	575	
15	0	0	0	0	478	519	352	575	
0	0	0	0	0	472	524	352	575	
1	0	0	0	0	465	529	352	575	
2	0	0	0	0	472	515	352	575	
3	0	0	0	0	472	511	352	575	
4	0	0	0	0	465	508	352	575	
5	0	0	0	0	465	508	350	575	
6	0	0	0	0	472	504	350	575	
7	0	0	0	0	472	492	350	575	
8	0	0	0	0	472	492	348	575	
9	0	0	0	0	476	487	348	575	
10	0	0	0	0	487	496	348	575	
11	0	0	0	0	487	508	348	575	
12	0	0	0	0	494	483	348	575	
13	0	0	0	0	492	473	345	575	
14	0	0	0	0	467	487	345	575	
15	0	0	0	0	463	504	344	575	
0	0	0	0	0	472	524	344	575	
1	0	0	0	0	478	551	339	575	
2	0	0	0	0	463	556	337	575	
3	0	0	0	0	460	563	339	575	
4	0	0	0	0	454	556	339	575	
5	0	0	0	0	455	536	335	575	
6	0	0	0	0	476	504	335	575	
7	0	0	0	0	476	481	335	575	
8	0	0	0	0	487	480	334	575	
9	0	0	0	0	487	480	334	575	
10	0	0	0	0	496	492	327	575	
11	0	0	0	0	497	519	327	575	
12	0	0	0	0	499	536	327	575	
13	0	0	0	0	487	515	327	575	
14	0	0	0	0	465	519	327	575	
15	0	0	0	0	455	511	327	575	
0	0	0	0	0	463	504	326	575	
1	0	0	0	0	467	487	326	575	
2	0	0	0	0	492	483	319	575	
3	0	0	0	0	504	519	319	575	
4	0	0	0	0	487	515	319	575	
5	0	0	0	0	472	504	319	575	
6	0	0	0	0	467	504	319	575	
7	0	0	0	0	455	508	319	575	
8	0	0	0	0	440	494	319	575	
9	0	0	0	0	423	496	319	575	
10	0	0	0	0	430	504	319	575	
11	0	0	0	0	444	508	319	575	
12	0	0	0	0	467	508	319	575	
13	0	0	0	0	496	497	319	575	
14	0	0	0	0	480	504	319	575	
15	0	0	0	0	463	515	319	575	
0	0	0	0	0	467	511	319	575	
1	0	0	0	0	496	511	319	575	
2	0	0	0	0	515	515	319	575	
3	0	0	0	0	529	519	318	575	
4	0	0	0	0	515	519	318	575	
5	0	0	0	0	497	524	318	575	
6	0	0	0	0	472	519	318	575	
7	0	0	0	0	472	513	318	575	
8	0	0	0	0	473	519	318	575	
9	0	0	0	0	487	505	316	575	
10	0	0	0	0	472	487	316	575	
11	0	0	0	0	463	480	318	575	
12	0	0	0	0	462	472	316	575	
13	0	0	0	0	463	496	316	575	
14	0	0	0	0	476	527	313	575	
15	0	0	0	0	472	531	312	575	
0	0	0	0	0	455	513	312	575	
1	0	0	0	0	449	504	312	575	
2	0	0	0	0	460	505	312	575	
3	0	0	0	0	487	504	312	575	
4	0	0	0	0	487	519	312	575	
5	0	0	0	0	487	536	307	575	
6	0	0	0	0	504	527	303	575	
7	0	0	0	0	496	515	300	575	
8	0	0	0	0	499	510	295	575	
9	0	0	0	0	496	499	295	575	
10	0	0	0	0	480	499	295	575	
11	0	0	0	0	472	510	300	575	
12	0	0	0	0	472	512	295	575	
13	0	0	0	0	467	508	302	575	
14	0	0	0	0	460	504	295	575	
15	0	0	0	0	455	499	295	575	
0	0	0	0	0	460	496	295	575	
1	0	0	0	0	476	472	291	575	
2	0	0	0	0	487	463	291	575	
3	0	0	0	0	499	480	291	575	
4	0	0	0	0	502	512	295	575	
5	0	0	0	0	513	524	295	575	
6	0	0	0	0	496	563	295	575	
7	0	0	0	0	480	575	291	575	
8	0	0	0	0	467	542	294	575	
9	0	0	0	0	463	527	291	575	
10	0	0	0	0	467	524	289	575	
11	0	0	0	0	467	508	291	575	
12	0	0	0	0	463	496	291	575	
13	0	0	0	0	467	496	287	575	
14	0	0	0	0	472	492	289	575	
15	0	0	0	0	472	496	287	575	
0	0	0	0	0	483	496	291	575	
1	0	0	0	0	478	499	287	574	
2	0	0	0	0	472	508	291	574	
3	0	0	0	0	472	505	287	574	
4	0	0	0	0	465	496	287	574	
5	0	0	0	0	467	487	287	572	
6	0	0	0	0	472	497	287	574	
7	0	0	0	0	481	499	287	574	
8	0	0	0	0	480	511	287	574	
9	0	0	0	0	481	536	287	572	
10	0	0	0	0	480	527	287	572	
11	0	0	0	0	476	515	287	572	
12	0	0	0	0	470	504	287	572	
13	0	0	0	0	467	483	287	572	
14	0	0	0	0	463	455	287	569	
15	0	0	0	0	463	460	287	569	
0	0	0	0	0	463	462	287	569	
1	0	0	0	0	480	512	287	568	
2	0	0	0	0	504	575	287	568	
3	0	0	0	0	504	543	287	568	
4	0	0	0	0	476	496	287	568	
5	0	0	0	0	481	496	287	568	
6	0	0	0	0	480	526	287	568	
7	0	0	0	0	467	543	287	568	
8	0	0	0	0	455	542	289	568	
9	0	0	0	0	463	547	287	568	
10	0	0	0	0	455	563	289	569	
11	0	0	0	0	448	536	291	569	
12	0	0	0	0	448	518	291	572	
13	0	0	0	0	432	496	291	569	
14	0	0	0	0	440	496	291	572	
15	0	0	0	0	476	492	291	572	
0	0	0	0	0	505	492	291	569	
1	0	0	0	0	519	496	291	572	
2	0	0	0	0	504	504	291	569	
3	0	0	0	0	508	499	291	569	
4	0	0	0	0	512	497	291	572	
5	0	0	0	0	510	496	291	572	
6	0	0	0	0	512	499	291	572	
7	0	0	0	0	513	497	291	572	
8	0	0	0	0	508	499	291	572	
9	0	0	0	0	496	504	294	572	
10	0	0	0	0	480	504	294	572	
11	0	0	0	0	472	508	294	572	
12	0	0	0	0	467	504	294	572	
13	0	0	0	0	455	504	295	572	
14	0	0	0	0	455	499	294	572	
15	0	0	0	0	460	504	294	572	
0	0	0	0	0	448	505	294	569	
1	0	0	0	0	463	508	294	568	
2	0	0	0	0	472	510	295	569	
3	0	0	0	0	472	510	294	568	
4	0	0	0	0	480	513	295	568	
5	0	0	0	0	480	512	295	568	
6	0	0	0	0	476	512	295	568	
7	0	0	0	0	465	510	295	568	
8	0	0	0	0	472	508	294	568	
9	0	0	0	0	480	512	295	568	
10	0	0	0	0	478	512	295	568	
11	0	0	0	0	465	515	294	568	
12	0	0	0	0	449	512	295	568	
13	0	0	0	0	448	511	295	568	
14	0	0	0	0	463	508	295	568	
15	0	0	0	0	487	508	295	568	
0	0	0	0	0	492	508	295	568	
1	0	0	0	0	472	504	295	568	
2	0	0	0	0	451	499	295	568	
3	0	0	0	0	455	508	295	568	
4	0	0	0	0	455	513	295	568	
5	0	0	0	0	465	510	295	568	
6	0	0	0	0	470	508	294	568	
7	0	0	0	0	472	504	294	563	
8	0	0	0	0	481	499	291	563	
9	0	0	0	0	481	513	291	563	
10	0	0	0	0	496	536	294	561	
11	0	0	0	0	519	519	291	560	
12	0	0	0	0	496	515	291	560	
13	0	0	0	0	470	511	291	560	
14	0	0	0	0	487	512	291	560	
15	0	0	0	0	505	508	291	560	
0	0	0	0	0	480	504	291	560	
1	0	0	0	0	463	504	291	560	
2	0	0	0	0	467	504	291	556	
3	0	0	0	0	472	511	291	556	
4	0	0	0	0	472	513	291	556	
5	0	0	0	0	463	504	291	556	
6	0	0	0	0	448	508	291	556	
7	0	0	0	0	433	508	291	556	
8	0	0	0	0	449	512	291	553	
9	0	0	0	0	496	512	291	553	
10	0	0	0	0	494	510	287	551	
11	0	0	0	0	481	494	287	551	
12	0	0	0	0	483	494	287	547	
13	0	0	0	0	481	487	287	547	
14	0	0	0	0	487	487	287	543	
15	0	0	0	0	492	527	287	543	
0	0	0	0	0	492	536	287	543	
1	0	0	0	0	487	536	287	543	
2	0	0	0	0	487	531	287	543	
3	0	0	0	0	476	496	287	543	
4	0	0	0	0	462	478	287	543	
5	0	0	0	0	448	478	287	543	
6	0	0	0	0	428	492	287	543	
7	0	0	0	0	435	536	287	543	
8	0	0	0	0	444	551	287	543	
9	0	0	0	0	472	529	287	542	
10	0	0	0	0	496	511	287	543	
11	0	0	0	0	480	508	287	542	
12	0	0	0	0	492	497	286	540	
13	0	0	0	0	486	504	286	540	
14	0	0	0	0	455	499	287	540	
15	0	0	0	0	448	511	287	537	
0	0	0	0	0	480	526	287	537	
1	0	0	0	0	496	518	287	536	
2	0	0	0	0	497	512	287	536	
3	0	0	0	0	487	511	287	536	
4	0	0	0	0	496	508	287	536	
5	0	0	0	0	496	504	287	536	
6	0	0	0	0	494	497	287	536	
7	0	0	0	0	497	499	287	536	
8	0	0	0	0	496	504	287	536	
9	0	0	0	0	487	499	287	536	
10	0	0	0	0	483	499	287	536	
11	0	0	0	0	476	504	287	536	
12	0	0	0	0	463	505	287	531	
13	0	0	0	0	472	508	287	531	
14	0	0	0	0	480	511	287	529	
15	0	0	0	0	480	504	287	531	
0	0	0	0	0	478	510	287	529	
1	0	0	0	0	476	511	287	527	
2	0	0	0	0	467	515	287	527	
3	0	0	0	0	473	511	287	527	
4	0	0	0	0	480	510	287	527	
5	0	0	0	0	480	508	287	527	
6	0	0	0	0	480	504	287	526	
7	0	0	0	0	480	504	287	526	
8	0	0	0	0	480	508	287	526	
9	0	0	0	0	472	504	287	524	
10	0	0	0	0	480	518	287	524	
11	0	0	0	0	480	526	287	524	
12	0	0	0	0	478	508	287	519	
13	0	0	0	0	473	489	287	519	
14	0	0	0	0	476	492	287	519	
15	0	0	0	0	472	504	287	519	
0	0	0	0	0	463	529	287	519	
1	0	0	0	0	462	527	287	519	
2	0	0	0	0	462	511	287	519	
3	0	0	0	0	460	511	287	519	
4	0	0	0	0	463	513	287	518	
5	0	0	0	0	467	510	287	518	
6	0	0	0	0	472	508	287	518	
7	0	0	0	0	476	505	287	518	
8	0	0	0	0	473	504	287	515	
9	0	0	0	0	476	508	287	515	
10	0	0	0	0	473	508	287	513	
11	0	0	0	0	463	504	286	513	
12	0	0	0	0	448	504	286	512	
13	0	0	0	0	448	504	284	512	
14	0	0	0	0	487	513	284	513	
15	0	0	0	0	527	515	284	512	
0	0	0	0	0	519	508	281	512	
1	0	0	0	0	504	504	284	512	
2	0	0	0	0	494	504	281	511	
3	0	0	0	0	478	508	280	510	
4	0	0	0	0	472	511	280	508	
5	0	0	0	0	467	511	280	508	
6	0	0	0	0	472	508	280	505	
7	0	0	0	0	467	512	280	504	
8	0	0	0	0	467	512	278	504	
9	0	0	0	0	473	512	275	504	
10	0	0	0	0	472	515	275	504	
11	0	0	0	0	476	510	275	504	
12	0	0	0	0	480	510	275	504	
13	0	0	0	0	481	511	275	499	
14	0	0	0	0	483	511	273	499	
15	0	0	0	0	480	504	271	499	
0	0	0	0	0	476	496	271	496	
1	0	0	0	0	480	478	271	496	
2	0	0	0	0	481	460	271	496	
3	0	0	0	0	480	473	270	494	
4	0	0	0	0	480	504	268	494	
5	0	0	0	0	492	556	268	492	
6	0	0	0	0	494	590	268	492	
7	0	0	0	0	472	572	268	487	
8	0	0	0	0	444	540	268	487	
9	0	0	0	0	423	536	263	487	
10	0	0	0	0	433	513	263	483	
11	0	0	0	0	440	504	263	483	
12	0	0	0	0	455	496	263	483	
13	0	0	0	0	460	496	263	483	
14	0	0	0	0	455	496	263	483	
15	0	0	0	0	460	499	263	481	
0	0	0	0	0	455	497	268	480	
1	0	0	0	0	448	496	268	480	
2	0	0	0	0	480	496	268	480	
3	0	0	0	0	511	496	268	480	
4	0	0	0	0	510	504	268	481	
5	0	0	0	0	512	504	268	480	
6	0	0	0	0	515	515	268	480	
7	0	0	0	0	519	515	268	478	
8	0	0	0	0	510	504	268	476	
9	0	0	0	0	504	504	263	472	
10	0	0	0	0	480	504	268	472	
11	0	0	0	0	463	504	268	472	
12	0	0	0	0	467	504	268	467	
13	0	0	0	0	465	508	263	463	
14	0	0	0	0	463	511	263	463	
15	0	0	0	0	467	513	263	460	
0	0	0	0	0	463	510	263	460	
1	0	0	0	0	467	512	263	460	
2	0	0	0	0	472	512	268	455	
3	0	0	0	0	472	512	263	454	
4	0	0	0	0	480	519	263	451	
5	0	0	0	0	496	512	263	454	
6	0	0	0	0	499	510	263	451	
7	0	0	0	0	492	508	263	449	
8	0	0	0	0	487	499	262	448	
9	0	0	0	0	480	504	255	448	
10	0	0	0	0	473	504	255	444	
11	0	0	0	0	478	504	255	444	
12	0	0	0	0	472	508	255	440	
13	0	0	0	0	463	508	255	440	
14	0	0	0	0	467	512	254	435	
15	0	0	0	0	476	511	252	432	
0	0	0	0	0	473	508	252	423	
1	0	0	0	0	472	508	249	422	
2	0	0	0	0	465	510	252	422	
3	0	0	0	0	460	510	252	415	
4	0	0	0	0	463	511	246	414	
5	0	0	0	0	463	512	243	409	
6	0	0	0	0	465	515	240	408	
7	0	0	0	0	465	512	240	408	
8	0	0	0	0	463	512	240	399	
9	0	0	0	0	476	511	238	399	
10	0	0	0	0	487	512	238	399	
11	0	0	0	0	492	508	238	399	
12	0	0	0	0	494	510	231	399	
13	0	0	0	0	487	510	231	399	
14	0	0	0	0	483	510	216	391	
15	0	0	0	0	478	510	216	391	
0	0	0	0	0	476	508	207	387	
1	0	0	0	0	472	508	209	387	
2	0	0	0	0	473	508	207	387	
3	0	0	0	0	476	504	207	387	
4	0	0	0	0	480	510	204	384	
5	0	0	0	0	476	508	204	384	
6	0	0	0	0	463	508	199	384	
7	0	0	0	0	463	508	195	384	
8	0	0	0	0	472	508	192	384	
9	0	0	0	0	476	510	192	384	
10	0	0	0	0	483	508	192	380	
11	0	0	0	0	492	510	190	371	
12	0	0	0	0	492	511	184	368	
13	0	0	0	0	497	515	184	366	
14	0	0	0	0	494	518	184	364	
15	0	0	0	0	478	515	184	359	
0	0	0	0	0	499	519	179	359	
1	0	0	0	0	527	519	177	355	
2	0	0	0	0	508	511	172	352	
3	0	0	0	0	499	504	167	348	
4	0	0	0	0	473	496	167	344	
5	0	0	0	0	433	489	166	339	
6	0	0	0	0	440	496	163	334	
7	0	0	0	0	472	502	166	332	
8	0	0	0	0	492	511	166	332	
9	0	0	0	0	497	515	159	327	
10	0	0	0	0	497	513	163	319	
11	0	0	0	0	496	510	166	319	
12	0	0	0	0	487	505	167	316	
13	0	0	0	0	483	499	167	305	
14	0	0	0	0	497	504	167	307	
15	0	0	0	0	519	515	167	307	
0	0	0	0	0	497	519	159	300	
1	0	0	0	0	494	513	158	295	
2	0	0	0	0	487	510	159	291	
3	0	0	0	0	463	510	147	291	
4	0	0	0	0	444	511	135	291	
5	0	0	0	0	440	513	140	287	
6	0	0	0	0	428	512	135	286	
7	0	0	0	0	440	513	131	280	
8	0	0	0	0	448	510	127	280	
9	0	0	0	0	448	508	126	273	
10	0	0	0	0	428	504	124	271	
11	0	0	0	0	423	508	120	263	
12	0	0	0	0	448	508	121	255	
13	0	0	0	0	460	510	124	255	
14	0	0	0	0	463	511	113	263	
15	0	0	0	0	486	512	108	262	
0	0	0	0	0	504	512	108	255	
1	0	0	0	0	513	508	108	254	
2	0	0	0	0	519	504	103	252	
3	0	0	0	0	527	499	96	248	
4	0	0	0	0	542	496	92	246	
5	0	0	0	0	536	499	89	240	
6	0	0	0	0	513	512	83	236	
7	0	0	0	0	480	518	92	236	
8	0	0	0	0	462	510	89	231	
9	0	0	0	0	444	510	88	227	
10	0	0	0	0	448	526	83	227	
11	0	0	0	0	449	519	78	225	
12	0	0	0	0	432	510	83	224	
13	0	0	0	0	423	519	103	224	
14	0	0	0	0	440	519	83	220	
15	0	0	0	0	481	511	70	214	
0	0	0	0	0	526	511	79	207	
1	0	0	0	0	504	510	79	204	
2	0	0	0	0	467	504	79	199	
3	0	0	0	0	467	504	96	199	
4	0	0	0	0	472	504	76	199	
5	0	0	0	0	472	504	79	199	
6	0	0	0	0	463	504	79	199	
7	0	0	0	0	463	504	67	192	
8	0	0	0	0	455	511	83	192	
9	0	0	0	0	455	508	83	188	
10	0	0	0	0	472	511	71	177	
11	0	0	0	0	486	511	62	184	
12	0	0	0	0	497	512	57	176	
13	0	0	0	0	497	513	30	174	
14	0	0	0	0	499	515	31	176	
15	0	0	0	0	487	515	31	172	
0	0	0	0	0	483	510	31	159	
1	0	0	0	0	481	504	38	159	
2	0	0	0	0	483	499	28	156	
3	0	0	0	0	478	504	22	150	
4	0	0	0	0	472	504	24	143	
5	0	0	0	0	472	504	19	142	
6	0	0	0	0	463	508	17	140	
7	0	0	0	0	463	511	7	131	
8	0	0	0	0	432	512	7	127	
9	0	0	0	0	432	512	6	126	
10	0	0	0	0	465	511	7	120	
11	0	0	0	0	511	511	3	112	
12	0	0	0	0	519	515	0	103	
13	0	0	0	0	505	519	17	99	
14	0	0	0	0	481	511	12	96	
15	0	0	0	0	448	504	0	92	
0	0	0	0	0	440	499	3	88	
1	0	0	0	0	449	504	9	79	
2	0	0	0	0	455	512	12	79	
3	0	0	0	0	467	513	0	76	
4	0	0	0	0	454	519	0	67	
5	0	0	0	0	432	513	0	62	
6	0	0	0	0	441	510	0	56	
7	0	0	0	0	480	508	0	51	
8	0	0	0	0	504	508	0	44	
9	0	0	0	0	487	508	0	44	
10	0	0	0	0	467	505	0	39	
11	0	0	0	0	455	504	0	35	
12	0	0	0	0	460	508	0	24	
13	0	0	0	0	483	508	0	16	
14	0	0	0	0	497	508	0	0	
15	0	0	0	0	505	513	0	0	
0	0	0	0	0	496	510	0	0	
1	0	0	0	0	480	512	0	0	
2	0	0	0	0	467	510	0	0	
3	0	0	0	0	465	508	0	0	
4	0	0	0	0	467	508	0	0	
5	0	0	0	0	465	513	0	0	
6	0	0	0	0	455	512	0	0	
7	0	0	0	0	480	508	0	0	
8	0	0	0	0	483	508	0	0	
9	0	0	0	0	476	511	0	0	
10	0	0	0	0	462	513	0	0	
11	0	0	0	0	455	504	0	0	
12	0	0	0	0	460	504	0	0	
13	0	0	0	0	463	510	0	0	
14	0	0	0	0	465	504	0	0	
15	0	0	0	0	463	511	0	0	
0	0	0	0	0	463	512	0	0	
1	0	0	0	0	465	511	0	0	
2	0	0	0	0	480	508	0	0	
3	0	0	0	0	486	511	0	0	
4	0	0	0	0	487	510	0	0	
5	0	0	0	0	487	510	0	0	
6	0	0	0	0	487	511	0	0	
7	0	0	0	0	487	513	0	0	
8	0	0	0	0	483	519	0	0	
9	0	0	0	0	483	513	0	0	
10	0	0	0	0	478	499	0	0	
11	0	0	0	0	472	496	0	0	
12	0	0	0	0	476	504	0	0	
13	0	0	0	0	473	508	0	0	
14	0	0	0	0	472	510	0	0	
15	0	0	0	0	472	508	0	0	
0	0	0	0	0	470	508	0	0	
1	0	0	0	0	467	510	0	0	
2	0	0	0	0	467	508	0	0	
3	0	0	0	0	467	513	0	0	
4	0	0	0	0	472	511	0	0	
5	0	0	0	0	478	511	0	0	
6	0	0	0	0	483	512	0	0	
7	0	0	0	0	494	511	0	0	
8	0	0	0	0	496	511	0	0	
9	0	0	0	0	499	511	0	0	
10	0	0	0	0	497	511	0	0	
11	0	0	0	0	494	510	0	0	
12	0	0	0	0	487	511	0	0	
13	0	0	0	0	487	511	0	0	
14	0	0	0	0	480	511	0	0	
15	0	0	0	0	463	511	0	0	
0	0	0	0	0	455	510	0	0	
1	0	0	0	0	455	510	0	0	
2	0	0	0	0	455	508	0	0	
3	0	0	0	0	462	508	0	0	
4	0	0	0	0	465	508	0	0	
5	0	0	0	0	455	511	0	0	
6	0	0	0	0	455	510	0	0	
7	0	0	0	0	454	510	0	0	
8	0	0	0	0	455	513	0	0	
9	0	0	0	0	462	508	0	0	
10	0	0	0	0	463	508	0	0	
11	0	0	0	0	472	508	0	0	
12	0	0	0	0	476	510	0	0	
13	0	0	0	0	480	511	0	0	
14	0	0	0	0	483	510	0	0	
15	0	0	0	0	481	511	0	0	
0	0	0	0	0	486	511	0	0	
1	0	0	0	0	487	510	0	0	
2	0	0	0	0	486	508	0	0	
3	0	0	0	0	481	508	0	0	
4	0	0	0	0	480	508	0	0	
5	0	0	0	0	476	505	0	0	
6	0	0	0	0	472	508	0	0	
7	0	0	0	0	472	508	0	0	
8	0	0	0	0	480	511	0	0	
9	0	0	0	0	476	511	0	0	
10	0	0	0	0	476	510	0	0	
11	0	0	0	0	470	515	0	0	
12	0	0	0	0	467	508	0	0	
13	0	0	0	0	465	510	0	0	
14	0	0	0	0	465	511	0	0	
15	0	0	0	0	472	512	0	0	
0	0	0	0	0	467	511	0	0	
1	0	0	0	0	465	513	0	0	
2	0	0	0	0	473	511	0	0	
3	0	0	0	0	483	512	0	0	
4	0	0	0	0	492	510	0	0	
5	0	0	0	0	492	510	0	0	
6	0	0	0	0	487	508	0	0	
7	0	0	0	0	480	508	0	0	
8	0	0	0	0	472	508	0	0	
9	0	0	0	0	476	510	0	0	
10	0	0	0	0	476	512	0	0	
11	0	0	0	0	472	511	0	0	
12	0	0	0	0	480	511	0	0	
13	0	0	0	0	462	508	0	0	
14	0	0	0	0	451	508	0	0	
15	0	0	0	0	455	510	0	0	
0	0	0	0	0	463	508	0	0	
1	0	0	0	0	476	508	0	0	
2	0	0	0	0	487	510	0	0	
3	0	0	0	0	487	508	0	0	
4	0	0	0	0	492	511	0	0	
5	0	0	0	0	494	511	0	0	
6	0	0	0	0	487	511	0	0	
7	0	0	0	0	483	511	0	0	
8	0	0	0	0	480	510	0	0	
9	0	0	0	0	480	508	0	0	
10	0	0	0	0	481	510	0	0	
11	0	0	0	0	481	511	0	0	
12	0	0	0	0	480	512	0	0	
13	0	0	0	0	476	510	0	0	
14	0	0	0	0	472	510	0	0	
15	0	0	0	0	462	512	0	0	
0	0	0	0	0	455	510	0	0	
1	0	0	0	0	455	504	0	0	
2	0	0	0	0	454	504	0	0	
3	0	0	0	0	455	508	0	0	
4	0	0	0	0	455	510	0	0	
5	0	0	0	0	463	510	0	0	
6	0	0	0	0	467	510	0	0	
7	0	0	0	0	476	512	0	0	
8	0	0	0	0	476	510	0	0	
9	0	0	0	0	483	510	0	0	
10	0	0	0	0	487	510	0	0	
11	0	0	0	0	480	508	0	0	
12	0	0	0	0	472	508	0	0	
13	0	0	0	0	481	510	0	0	
14	0	0	0	0	492	512	0	0	
15	0	0	0	0	496	515	0	0	
0	0	0	0	0	496	512	0	0	
1	0	0	0	0	487	510	0	0	
2	0	0	0	0	483	508	0	0	
3	0	0	0	0	478	505	0	0	
4	0	0	0	0	472	508	0	0	
5	0	0	0	0	472	510	0	0	
6	0	0	0	0	467	511	0	0	
7	0	0	0	0	465	510	0	0	
8	0	0	0	0	463	508	0	0	
9	0	0	0	0	463	508	0	0	
10	0	0	0	0	465	510	0	0	
11	0	0	0	0	472	512	0	0	
12	0	0	0	0	480	512	0	0	
13	0	0	0	0	487	512	0	0	
14	0	0	0	0	487	508	0	0	
15	0	0	0	0	483	510	0	0	
0	0	0	0	0	486	511	0	0	
1	0	0	0	0	487	508	0	0	
2	0	0	0	0	483	508	0	0	
3	0	0	0	0	483	504	0	0	
4	0	0	0	0	483	510	0	0	
5	0	0	0	0	481	508	0	0	
6	0	0	0	0	480	508	0	0	
7	0	0	0	0	480	504	0	0	
8	0	0	0	0	476	508	0	0	
9	0	0	0	0	463	510	0	0	
10	0	0	0	0	463	508	0	0	
11	0	0	0	0	463	504	0	0	
12	0	0	0	0	460	510	0	0	
13	0	0	0	0	455	512	0	0	
14	0	0	0	0	455	518	0	0	
15	0	0	0	0	463	512	0	0	
0	0	0	0	0	472	510	0	0	
1	0	0	0	0	467	512	0	0	
2	0	0	0	0	467	508	0	0	
3	0	0	0	0	476	508	0	0	
4	0	0	0	0	476	508	0	0	
5	0	0	0	0	480	508	0	0	
6	0	0	0	0	481	510	0	0	
7	0	0	0	0	480	510	0	0	
8	0	0	0	0	476	508	0	0	
9	0	0	0	0	472	508	0	0	
10	0	0	0	0	472	510	0	0	
11	0	0	0	0	467	511	0	0	
12	0	0	0	0	470	510	0	0	
13	0	0	0	0	472	508	0	0	
14	0	0	0	0	472	512	0	0	
15	0	0	0	0	476	510	0	0	
0	0	0	0	0	480	512	0	0	
1	0	0	0	0	467	511	0	0	
2	0	0	0	0	472	508	0	0	
3	0	0	0	0	465	510	0	0	
4	0	0	0	0	476	512	0	0	
5	0	0	0	0	483	518	0	0	
6	0	0	0	0	487	515	0	0	
7	0	0	0	0	492	513	0	0	
8	0	0	0	0	499	512	0	0	
9	0	0	0	0	492	512	0	0	
10	0	0	0	0	487	508	0	0	
11	0	0	0	0	483	504	0	0	
12	0	0	0	0	483	508	0	0	
13	0	0	0	0	480	508	0	0	
14	0	0	0	0	481	504	0	0	
15	0	0	0	0	472	499	0	0	
0	0	0	0	0	462	512	0	0	
1	0	0	0	0	455	513	0	0	
2	0	0	0	0	460	511	0	0	
3	0	0	0	0	462	511	0	0	
4	0	0	0	0	463	508	0	0	
5	0	0	0	0	463	511	0	0	
6	0	0	0	0	465	510	0	0	
7	0	0	0	0	472	510	0	0	
8	0	0	0	0	473	510	0	0	
9	0	0	0	0	480	508	0	0	
10	0	0	0	0	483	508	0	0	
11	0	0	0	0	480	508	0	0	
12	0	0	0	0	472	510	0	0	
13	0	0	0	0	476	511	0	0	
14	0	0	0	0	480	511	0	0	
15	0	0	0	0	481	510	0	0	
0	0	0	0	0	480	510	0	0	
1	0	0	0	0	472	505	0	0	
2	0	0	0	0	472	504	0	0	
3	0	0	0	0	472	508	0	0	
4	0	0	0	0	472	508	0	0	
5	0	0	0	0	467	508	0	0	
6	0	0	0	0	470	508	0	0	
7	0	0	0	0	465	512	0	0	
8	0	0	0	0	467	513	0	0	
9	0	0	0	0	467	511	0	0	
10	0	0	0	0	472	508	0	0	
11	0	0	0	0	478	505	0	0	
12	0	0	0	0	481	513	0	0	
13	0	0	0	0	483	524	0	0	
14	0	0	0	0	487	519	0	0	
15	0	0	0	0	483	505	0	0	
0	0	0	0	0	481	499	0	0	
1	0	0	0	0	483	504	0	0	
2	0	0	0	0	481	504	0	0	
3	0	0	0	0	476	508	0	0	
4	0	0	0	0	473	512	0	0	
5	0	0	0	0	473	510	0	0	
6	0	0	0	0	473	510	0	0	
7	0	0	0	0	472	508	0	0	
8	0	0	0	0	460	508	0	0	
9	0	0	0	0	463	508	0	0	
10	0	0	0	0	472	508	0	0	
11	0	0	0	0	472	508	0	0	
12	0	0	0	0	472	508	0	0	
13	0	0	0	0	467	511	0	0	
14	0	0	0	0	467	512	0	0	
15	0	0	0	0	481	511	0	0	
0	0	0	0	0	487	510	0	0	
1	0	0	0	0	480	511	0	0	
2	0	0	0	0	480	512	0	0	
3	0	0	0	0	476	511	0	0	
4	0	0	0	0	480	511	0	0	
5	0	0	0	0	486	508	0	0	
6	0	0	0	0	487	513	0	0	
7	0	0	0	0	487	512	0	0	
8	0	0	0	0	483	508	0	0	
9	0	0	0	0	476	508	0	0	
10	0	0	0	0	467	508	0	0	
11	0	0	0	0	463	508	0	0	
12	0	0	0	0	463	508	0	0	
13	0	0	0	0	465	504	0	0	
14	0	0	0	0	467	511	0	0	
15	0	0	0	0	462	510	0	0	
0	0	0	0	0	460	510	0	0	
1	0	0	0	0	463	511	0	0	
2	0	0	0	0	462	512	0	0	
3	0	0	0	0	472	510	0	0	
4	0	0	0	0	480	512	0	0	
5	0	0	0	0	483	512	0	0	
6	0	0	0	0	478	510	0	0	
7	0	0	0	0	478	511	0	0	
8	0	0	0	0	483	512	0	0	
9	0	0	0	0	487	511	0	0	
10	0	0	0	0	487	511	0	0	
11	0	0	0	0	487	505	0	0	
12	0	0	0	0	480	504	0	0	
13	0	0	0	0	476	505	0	0	
14	0	0	0	0	472	505	0	0	
15	0	0	0	0	463	508	0	0	
0	0	0	0	0	463	508	0	0	
1	0	0	0	0	462	511	0	0	
2	0	0	0	0	460	508	0	0	
3	0	0	0	0	465	508	0	0	
4	0	0	0	0	476	511	0	0	
5	0	0	0	0	483	512	0	0	
6	0	0	0	0	486	511	0	0	
7	0	0	0	0	486	510	0	0	
8	0	0	0	0	480	511	0	0	
9	0	0	0	0	478	510	0	0	
10	0	0	0	0	481	508	0	0	
11	0	0	0	0	483	510	0	0	
12	0	0	0	0	492	508	0	0	
13	0	0	0	0	487	508	0	0	
14	0	0	0	0	480	504	0	0	
15	0	0	0	0	481	504	0	0	
0	0	0	0	0	480	508	0	0	
1	0	0	0	0	473	510	0	0	
2	0	0	0	0	472	510	0	0	
3	0	0	0	0	463	508	0	0	
4	0	0	0	0	472	511	0	0	
5	0	0	0	0	467	512	0	0	
6	0	0	0	0	462	511	0	0	
7	0	0	0	0	462	508	0	0	
8	0	0	0	0	467	510	0	0	
9	0	0	0	0	480	511	0	0	
10	0	0	0	0	480	524	0	0	
11	0	0	0	0	480	519	0	0	
12	0	0	0	0	480	510	0	0	
13	0	0	0	0	476	504	0	0	
14	0	0	0	0	472	504	0	0	
15	0	0	0	0	472	508	0	0	
0	0	0	0	0	478	508	0	0	
1	0	0	0	0	487	511	0	0	
2	0	0	0	0	487	510	0	0	
3	0	0	0	0	480	510	0	0	
4	0	0	0	0	473	510	0	0	
5	0	0	0	0	472	511	0	0	
6	0	0	0	0	472	511	0	0	
7	0	0	0	0	472	508	0	0	
8	0	0	0	0	472	508	0	0	
9	0	0	0	0	472	508	0	0	
10	0	0	0	0	472	510	0	0	
11	0	0	0	0	465	508	0	0	
12	0	0	0	0	465	504	0	0	
13	0	0	0	0	463	508	0	0	
14	0	0	0	0	463	508	0	0	
15	0	0	0	0	472	511	0	0	
0	0	0	0	0	473	512	0	0	
1	0	0	0	0	480	512	0	0	
2	0	0	0	0	480	510	0	0	
3	0	0	0	0	478	515	0	0	
4	0	0	0	0	481	515	0	0	
5	0	0	0	0	481	510	0	0	
6	0	0	0	0	481	504	0	0	
7	0	0	0	0	481	504	0	0	
8	0	0	0	0	480	508	0	0	
9	0	0	0	0	473	504	0	0	
10	0	0	0	0	472	502	0	0	
11	0	0	0	0	472	508	0	0	
12	0	0	0	0	465	511	0	0	
13	0	0	0	0	463	510	0	0	
14	0	0	0	0	467	505	0	0	
15	0	0	0	0	467	512	0	0	
0	0	0	0	0	465	511	0	0	
1	0	0	0	0	472	515	0	0	
2	0	0	0	0	472	513	0	0	
3	0	0	0	0	472	511	0	0	
4	0	0	0	0	480	513	0	0	
5	0	0	0	0	476	512	0	0	
6	0	0	0	0	472	512	0	0	
7	0	0	0	0	467	512	0	0	
8	0	0	0	0	465	510	0	0	
9	0	0	0	0	467	508	0	0	
10	0	0	0	0	472	508	0	0	
11	0	0	0	0	476	508	0	0	
12	0	0	0	0	480	505	0	0	
13	0	0	0	0	476	504	0	0	
14	0	0	0	0	472	510	0	0	
15	0	0	0	0	472	510	0	0	
0	0	0	0	0	467	510	0	0	
1	0	0	0	0	463	508	0	0	
2	0	0	0	0	467	510	0	0	
3	0	0	0	0	472	510	0	0	
4	0	0	0	0	463	511	0	0	
5	0	0	0	0	476	512	0	0	
6	0	0	0	0	483	512	0	0	
7	0	0	0	0	487	508	0	0	
8	0	0	0	0	487	510	0	0	
9	0	0	0	0	487	513	0	0	
10	0	0	0	0	487	511	0	0	
11	0	0	0	0	492	510	0	0	
12	0	0	0	0	492	513	0	0	
13	0	0	0	0	492	508	0	0	
14	0	0	0	0	487	510	0	0	
15	0	0	0	0	487	510	0	0	
0	0	0	0	0	483	510	0	0	
1	0	0	0	0	472	508	0	0	
2	0	0	0	0	476	508	0	0	
3	0	0	0	0	472	510	0	0	
4	0	0	0	0	467	510	0	0	
5	0	0	0	0	463	499	0	0	
6	0	0	0	0	463	513	0	0	
7	0	0	0	0	465	513	0	0	
8	0	0	0	0	467	510	0	0	
9	0	0	0	0	463	504	0	0	
10	0	0	0	0	467	508	0	0	
11	0	0	0	0	476	510	0	0	
12	0	0	0	0	483	510	0	0	
13	0	0	0	0	486	511	0	0	
14	0	0	0	0	487	512	0	0	
15	0	0	0	0	487	511	0	0	
0	0	0	0	0	487	508	0	0	
1	0	0	0	0	483	504	0	0	
2	0	0	0	0	483	508	0	0	
3	0	0	0	0	481	511	0	0	
4	0	0	0	0	480	511	0	0	
5	0	0	0	0	476	512	0	0	
6	0	0	0	0	472	511	0	0	
7	0	0	0	0	467	508	0	0	
8	0	0	0	0	465	508	0	0	
9	0	0	0	0	463	508	0	0	
10	0	0	0	0	457	508	0	0	
11	0	0	0	0	455	510	0	0	
12	0	0	0	0	455	508	0	0	
13	0	0	0	0	463	510	0	0	
14	0	0	0	0	476	512	0	0	
15	0	0	0	0	483	512	0	0	
0	0	0	0	0	487	511	0	0	
1	0	0	0	0	480	508	0	0	
2	0	0	0	0	483	510	0	0	
3	0	0	0	0	486	511	0	0	
4	0	0	0	0	487	508	0	0	
5	0	0	0	0	480	511	0	0	
6	0	0	0	0	480	511	0	0	
7	0	0	0	0	480	508	0	0	
8	0	0	0	0	472	508	0	0	
9	0	0	0	0	472	508	0	0	
10	0	0	0	0	472	504	0	0	
11	0	0	0	0	470	504	0	0	
12	0	0	0	0	472	510	0	0	
13	0	0	0	0	476	512	0	0	
14	0	0	0	0	472	511	0	0	
15	0	0	0	0	465	511	0	0	
0	0	0	0	0	463	512	0	0	
1	0	0	0	0	462	511	0	0	
2	0	0	0	0	463	508	0	0	
3	0	0	0	0	472	508	0	0	
4	0	0	0	0	476	511	0	0	
5	0	0	0	0	480	511	0	0	
6	0	0	0	0	487	511	0	0	
7	0	0	0	0	487	512	0	0	
8	0	0	0	0	483	508	0	0	
9	0	0	0	0	483	508	0	0	
10	0	0	0	0	478	508	0	0	
11	0	0	0	0	472	505	0	0	
12	0	0	0	0	467	508	0	0	
13	0	0	0	0	463	508	0	0	
14	0	0	0	0	463	508	0	0	
15	0	0	0	0	463	508	0	0	
0	0	0	0	0	472	512	0	0	
1	0	0	0	0	463	508	0	0	
2	0	0	0	0	460	504	0	0	
3	0	0	0	0	472	508	0	0	
4	0	0	0	0	476	513	0	0	
5	0	0	0	0	473	512	0	0	
6	0	0	0	0	478	511	0	0	
7	0	0	0	0	467	513	0	0	
8	0	0	0	0	476	511	0	0	
9	0	0	0	0	487	512	0	0	
10	0	0	0	0	496	511	0	0	
11	0	0	0	0	494	512	0	0	
12	0	0	0	0	487	511	0	0	
13	0	0	0	0	483	511	0	0	
14	0	0	0	0	481	508	0	0	
15	0	0	0	0	483	508	0	0	
0	0	0	0	0	483	505	0	0	
1	0	0	0	0	480	508	0	0	
2	0	0	0	0	476	504	0	0	
3	0	0	0	0	467	505	0	0	
4	0	0	0	0	463	508	0	0	
5	0	0	0	0	463	508	0	0	
6	0	0	0	0	463	508	0	0	
7	0	0	0	0	465	510	0	0	
8	0	0	0	0	472	513	0	0	
9	0	0	0	0	472	511	0	0	
10	0	0	0	0	472	511	0	0	
11	0	0	0	0	472	512	0	0	
12	0	0	0	0	472	510	0	0	
13	0	0	0	0	472	508	0	0	
14	0	0	0	0	472	511	0	0	
15	0	0	0	0	480	511	0	0	
0	0	0	0	0	487	510	0	0	
1	0	0	0	0	492	511	0	0	
2	0	0	0	0	487	510	0	0	
3	0	0	0	0	480	508	0	0	
4	0	0	0	0	480	508	0	0	
5	0	0	0	0	472	508	0	0	
6	0	0	0	0	472	508	0	0	
7	0	0	0	0	465	508	0	0	
8	0	0	0	0	463	511	0	0	
9	0	0	0	0	463	508	0	0	
10	0	0	0	0	463	511	0	0	
11	0	0	0	0	462	510	0	0	
12	0	0	0	0	463	510	0	0	
13	0	0	0	0	470	510	0	0	
14	0	0	0	0	476	511	0	0	
15	0	0	0	0	480	512	0	0	
0	0	0	0	0	480	512	0	0	
1	0	0	0	0	472	511	0	0	
2	0	0	0	0	472	508	0	0	
3	0	0	0	0	473	508	0	0	
4	0	0	0	0	480	511	0	0	
5	0	0	0	0	483	511	0	0	
6	0	0	0	0	481	508	0	0	
7	0	0	0	0	481	508	0	0	
8	0	0	0	0	480	504	0	0	
9	0	0	0	0	483	508	0	0	
10	0	0	0	0	483	510	0	0	
11	0	0	0	0	480	515	0	0	
12	0	0	0	0	478	512	0	0	
13	0	0	0	0	472	508	0	0	
14	0	0	0	0	472	504	0	0	
15	0	0	0	0	472	510	0	0	
0	0	0	0	0	472	512	0	0	
1	0	0	0	0	472	510	0	0	
2	0	0	0	0	472	510	0	0	
3	0	0	0	0	476	511	0	0	
4	0	0	0	0	473	511	0	0	
5	0	0	0	0	478	510	0	0	
6	0	0	0	0	480	508	0	0	
7	0	0	0	0	481	511	0	0	
8	0	0	0	0	483	511	0	0	
9	0	0	0	0	489	513	0	0	
10	0	0	0	0	487	513	0	0	
11	0	0	0	0	480	508	0	0	
12	0	0	0	0	472	504	0	0	
13	0	0	0	0	472	504	0	0	
14	0	0	0	0	472	508	0	0	
15	0	0	0	0	465	504	0	0	
0	0	0	0	0	460	504	0	0	
1	0	0	0	0	463	508	0	0	
2	0	0	0	0	463	504	0	0	
3	0	0	0	0	455	508	0	0	
4	0	0	0	0	463	508	0	0	
5	0	0	0	0	473	512	0	0	
6	0	0	0	0	476	512	0	0	
7	0	0	0	0	472	511	0	0	
8	0	0	0	0	473	512	0	0	
9	0	0	0	0	480	512	0	0	
10	0	0	0	0	480	508	0	0	
11	0	0	0	0	480	511	0	0	
12	0	0	0	0	480	511	0	0	
13	0	0	0	0	483	511	0	0	
14	0	0	0	0	481	511	0	0	
15	0	0	0	0	480	511	0	0	
0	0	0	0	0	483	508	0	0	
1	0	0	0	0	480	508	0	0	
2	0	0	0	0	480	511	0	0	
3	0	0	0	0	480	511	0	0	
4	0	0	0	0	463	510	0	0	
5	0	0	0	0	463	508	0	0	
6	0	0	0	0	463	510	0	0	
7	0	0	0	0	465	511	0	0	
8	0	0	0	0	472	508	0	0	
9	0	0	0	0	465	510	0	0	
10	0	0	0	0	463	510	0	0	
11	0	0	0	0	463	510	0	0	
12	0	0	0	0	463	508	0	0	
13	0	0	0	0	472	510	0	0	
14	0	0	0	0	487	512	0	0	
15	0	0	0	0	496	513	0	0	
0	0	0	0	0	497	512	0	0	
1	0	0	0	0	494	515	0	0	
2	0	0	0	0	487	510	0	0	
3	0	0	0	0	483	511	0	0	
4	0	0	0	0	480	512	0	0	
5	0	0	0	0	478	508	0	0	
6	0	0	0	0	472	511	0	0	
7	0	0	0	0	472	508	0	0	
8	0	0	0	0	472	511	0	0	
9	0	0	0	0	472	512	0	0	
10	0	0	0	0	480	508	0	0	
11	0	0	0	0	478	512	0	0	
12	0	0	0	0	465	510	0	0	
13	0	0	0	0	463	508	0	0	
14	0	0	0	0	463	510	0	0	
15	0	0	0	0	467	511	0	0	
0	0	0	0	0	472	508	0	0	
1	0	0	0	0	480	504	0	0	
2	0	0	0	0	480	510	0	0	
3	0	0	0	0	480	512	0	0	
4	0	0	0	0	483	512	0	0	
5	0	0	0	0	480	512	0	0	
6	0	0	0	0	480	508	0	0	
7	0	0	0	0	480	510	0	0	
8	0	0	0	0	476	510	0	0	
9	0	0	0	0	476	508	0	0	
10	0	0	0	0	472	505	0	0	
11	0	0	0	0	472	504	0	0	
12	0	0	0	0	470	505	0	0	
13	0	0	0	0	467	508	0	0	
14	0	0	0	0	463	508	0	0	
15	0	0	0	0	463	510	0	0	
0	0	0	0	0	463	508	0	0	
1	0	0	0	0	465	508	0	0	
2	0	0	0	0	467	508	0	0	
3	0	0	0	0	472	510	0	0	
4	0	0	0	0	476	510	0	0	
5	0	0	0	0	478	508	0	0	
6	0	0	0	0	480	508	0	0	
7	0	0	0	0	483	510	0	0	
8	0	0	0	0	480	512	0	0	
9	0	0	0	0	483	510	0	0	
10	0	0	0	0	481	511	0	0	
11	0	0	0	0	480	510	0	0	
12	0	0	0	0	478	508	0	0	
13	0	0	0	0	472	508	0	0	
14	0	0	0	0	472	508	0	0	
15	0	0	0	0	470	508	0	0	
0	0	0	0	0	465	508	0	0	
1	0	0	0	0	462	510	0	0	
2	0	0	0	0	463	510	0	0	
3	0	0	0	0	463	511	0	0	
4	0	0	0	0	463	510	0	0	
5	0	0	0	0	467	508	0	0	
6	0	0	0	0	472	510	0	0	
7	0	0	0	0	476	511	0	0	
8	0	0	0	0	480	512	0	0	
9	0	0	0	0	481	513	0	0	
10	0	0	0	0	480	511	0	0	
11	0	0	0	0	481	511	0	0	
12	0	0	0	0	481	515	0	0	
13	0	0	0	0	480	511	0	0	
14	0	0	0	0	478	508	0	0	
15	0	0	0	0	476	508	0	0	
0	0	0	0	0	480	510	0	0	
1	0	0	0	0	483	508	0	0	
2	0	0	0	0	481	508	0	0	
3	0	0	0	0	472	508	0	0	
4	0	0	0	0	472	505	0	0	
5	0	0	0	0	472	508	0	0	
6	0	0	0	0	472	508	0	0	
7	0	0	0	0	472	508	0	0	
8	0	0	0	0	467	510	0	0	
9	0	0	0	0	472	511	0	0	
10	0	0	0	0	480	511	0	0	
11	0	0	0	0	472	510	0	0	
12	0	0	0	0	472	510	0	0	
13	0	0	0	0	476	511	0	0	
14	0	0	0	0	480	511	0	0	
15	0	0	0	0	483	512	0	0	
0	0	0	0	0	487	510	0	0	
1	0	0	0	0	487	512	0	0	
2	0	0	0	0	480	508	0	0	
3	0	0	0	0	476	508	0	0	
4	0	0	0	0	480	510	0	0	
5	0	0	0	0	472	510	0	0	
6	0	0	0	0	460	504	0	0	
7	0	0	0	0	455	504	0	0	
8	0	0	0	0	463	510	0	0	
9	0	0	0	0	472	510	0	0	
10	0	0	0	0	480	508	0	0	
11	0	0	0	0	478	511	0	0	
12	0	0	0	0	478	510	0	0	
13	0	0	0	0	476	510	0	0	
14	0	0	0	0	480	511	0	0	
15	0	0	0	0	476	511	0	0	
0	0	0	0	0	472	510	0	0	
1	0	0	0	0	473	508	0	0	
2	0	0	0	0	480	511	0	0	
3	0	0	0	0	486	512	0	0	
4	0	0	0	0	492	513	0	0	
5	0	0	0	0	494	515	0	0	
6	0	0	0	0	487	511	0	0	
7	0	0	0	0	483	510	0	0	
8	0	0	0	0	480	511	0	0	
9	0	0	0	0	480	508	0	0	
10	0	0	0	0	476	504	0	0	
11	0	0	0	0	472	504	0	0	
12	0	0	0	0	463	504	0	0	
13	0	0	0	0	463	512	0	0	
14	0	0	0	0	462	519	0	0	
15	0	0	0	0	455	512	0	0	
0	0	0	0	0	448	508	0	0	
1	0	0	0	0	449	508	0	0	
2	0	0	0	0	455	511	0	0	
3	0	0	0	0	472	513	0	0	
4	0	0	0	0	480	512	0	0	
5	0	0	0	0	492	511	0	0	
6	0	0	0	0	496	508	0	0	
7	0	0	0	0	496	508	0	0	
8	0	0	0	0	494	512	0	0	
9	0	0	0	0	496	511	0	0	
10	0	0	0	0	492	510	0	0	
11	0	0	0	0	473	511	0	0	
12	0	0	0	0	467	508	0	0	
13	0	0	0	0	462	504	0	0	
14	0	0	0	0	454	508	0	0	
15	0	0	0	0	462	508	0	0	
0	0	0	0	0	470	510	0	0	
1	0	0	0	0	467	511	0	0	
2	0	0	0	0	472	508	0	0	
3	0	0	0	0	472	512	0	0	
4	0	0	0	0	472	518	0	0	
5	0	0	0	0	472	510	0	0	
6	0	0	0	0	476	508	0	0	
7	0	0	0	0	480	510	0	0	
8	0	0	0	0	489	510	0	0	
9	0	0	0	0	492	508	0	0	
10	0	0	0	0	496	508	0	0	
11	0	0	0	0	494	508	0	0	
12	0	0	0	0	487	508	0	0	
13	0	0	0	0	478	508	0	0	
14	0	0	0	0	472	508	0	0	
15	0	0	0	0	472	510	0	0	
0	0	0	0	0	472	508	0	0	
1	0	0	0	0	472	504	0	0	
2	0	0	0	0	472	510	0	0	
3	0	0	0	0	472	508	0	0	
4	0	0	0	0	470	510	0	0	
5	0	0	0	0	465	508	0	0	
6	0	0	0	0	463	511	0	0	
7	0	0	0	0	465	512	0	0	
8	0	0	0	0	472	511	0	0	
9	0	0	0	0	472	511	0	0	
10	0	0	0	0	476	512	0	0	
11	0	0	0	0	478	508	0	0	
12	0	0	0	0	481	510	0	0	
13	0	0	0	0	483	508	0	0	
14	0	0	0	0	487	508	0	0	
15	0	0	0	0	494	508	0	0	
0	0	0	0	0	487	513	0	0	
1	0	0	0	0	483	512	0	0	
2	0	0	0	0	492	512	0	0	
3	0	0	0	0	480	511	0	0	
4	0	0	0	0	467	510	0	0	
5	0	0	0	0	465	510	0	0	
6	0	0	0	0	465	508	0	0	
7	0	0	0	0	463	508	0	0	
8	0	0	0	0	455	508	0	0	
9	0	0	0	0	451	505	0	0	
10	0	0	0	0	455	508	0	0	
11	0	0	0	0	460	508	0	0	
12	0	0	0	0	463	510	0	0	
13	0	0	0	0	467	511	0	0	
14	0	0	0	0	476	510	0	0	
15	0	0	0	0	473	508	0	0	
0	0	0	0	0	472	510	0	0	
1	0	0	0	0	472	511	0	0	
2	0	0	0	0	481	511	0	0	
3	0	0	0	0	487	512	0	0	
4	0	0	0	0	487	511	0	0	
5	0	0	0	0	487	510	0	0	
6	0	0	0	0	483	508	0	0	
7	0	0	0	0	480	508	0	0	
8	0	0	0	0	472	508	0	0	
9	0	0	0	0	462	508	0	0	
10	0	0	0	0	460	508	0	0	
11	0	0	0	0	463	508	0	0	
12	0	0	0	0	472	508	0	0	
13	0	0	0	0	467	508	0	0	
14	0	0	0	0	467	510	0	0	
15	0	0	0	0	467	511	0	0	
0	0	0	0	0	465	510	0	0	
1	0	0	0	0	472	510	0	0	
2	0	0	0	0	472	510	0	0	
3	0	0	0	0	476	511	0	0	
4	0	0	0	0	473	508	0	0	
5	0	0	0	0	476	510	0	0	
6	0	0	0	0	476	510	0	0	
7	0	0	0	0	480	512	0	0	
8	0	0	0	0	487	510	0	0	
9	0	0	0	0	483	511	0	0	
10	0	0	0	0	481	508	0	0	
11	0	0	0	0	480	508	0	0	
12	0	0	0	0	473	508	0	0	
13	0	0	0	0	467	508	0	0	
14	0	0	0	0	467	508	0	0	
15	0	0	0	0	467	510	0	0	
0	0	0	0	0	465	510	0	0	
1	0	0	0	0	467	511	0	0	
2	0	0	0	0	467	508	0	0	
3	0	0	0	0	460	510	0	0	
4	0	0	0	0	455	511	0	0	
5	0	0	0	0	455	510	0	0	
6	0	0	0	0	462	510	0	0	
7	0	0	0	0	467	510	0	0	
8	0	0	0	0	481	512	0	0	
9	0	0	0	0	497	512	0	0	
10	0	0	0	0	496	511	0	0	
11	0	0	0	0	487	511	0	0	
12	0	0	0	0	487	511	0	0	
13	0	0	0	0	487	508	0	0	
14	0	0	0	0	483	505	0	0	
15	0	0	0	0	487	504	0	0	
0	0	0	0	0	483	512	0	0	
1	0	0	0	0	480	508	0	0	
2	0	0	0	0	472	508	0	0	
3	0	0	0	0	463	504	0	0	
4	0	0	0	0	462	510	0	0	
5	0	0	0	0	463	510	0	0	
6	0	0	0	0	455	508	0	0	
7	0	0	0	0	455	508	0	0	
8	0	0	0	0	467	511	0	0	
9	0	0	0	0	472	505	0	0	
10	0	0	0	0	478	510	0	0	
11	0	0	0	0	487	511	0	0	
12	0	0	0	0	496	510	0	0	
13	0	0	0	0	494	508	0	0	
14	0	0	0	0	496	508	0	0	
15	0	0	0	0	496	508	0	0	
0	0	0	0	0	496	511	0	0	
1	0	0	0	0	496	513	0	0	
2	0	0	0	0	496	510	0	0	
3	0	0	0	0	492	511	0	0	
4	0	0	0	0	481	511	0	0	
5	0	0	0	0	480	504	0	0	
6	0	0	0	0	472	511	0	0	
7	0	0	0	0	467	508	0	0	
8	0	0	0	0	465	508	0	0	
9	0	0	0	0	463	508	0	0	
10	0	0	0	0	463	508	0	0	
11	0	0	0	0	463	508	0	0	
12	0	0	0	0	462	508	0	0	
13	0	0	0	0	462	511	0	0	
14	0	0	0	0	467	510	0	0	
15	0	0	0	0	463	511	0	0	
0	0	0	0	0	463	513	0	0	
1	0	0	0	0	476	513	0	0	
2	0	0	0	0	481	512	0	0	
3	0	0	0	0	481	512	0	0	
4	0	0	0	0	476	512	0	0	
5	0	0	0	0	480	512	0	0	
6	0	0	0	0	480	511	0	0	
7	0	0	0	0	480	510	0	0	
8	0	0	0	0	483	510	0	0	
9	0	0	0	0	476	508	0	0	
10	0	0	0	0	472	508	0	0	
11	0	0	0	0	472	505	0	0	
12	0	0	0	0	472	504	0	0	
13	0	0	0	0	472	508	0	0	
14	0	0	0	0	472	508	0	0	
15	0	0	0	0	467	508	0	0	
0	0	0	0	0	462	508	0	0	
1	0	0	0	0	463	508	0	0	
2	0	0	0	0	463	511	0	0	
3	0	0	0	0	472	508	0	0	
4	0	0	0	0	473	510	0	0	
5	0	0	0	0	463	508	0	0	
6	0	0	0	0	465	508	0	0	
7	0	0	0	0	476	511	0	0	
8	0	0	0	0	480	513	0	0	
9	0	0	0	0	480	511	0	0	
10	0	0	0	0	480	510	0	0	
11	0	0	0	0	487	510	0	0	
12	0	0	0	0	487	510	0	0	
13	0	0	0	0	472	510	0	0	
14	0	0	0	0	467	511	0	0	
15	0	0	0	0	467	511	0	0	
0	0	0	0	0	472	511	0	0	
1	0	0	0	0	472	510	0	0	
2	0	0	0	0	472	510	0	0	
3	0	0	0	0	467	510	0	0	
4	0	0	0	0	465	510	0	0	
5	0	0	0	0	467	508	0	0	
6	0	0	0	0	472	508	0	0	
7	0	0	0	0	476	512	0	0	
8	0	0	0	0	480	510	0	0	
9	0	0	0	0	483	511	0	0	
10	0	0	0	0	487	512	0	0	
11	0	0	0	0	487	513	0	0	
12	0	0	0	0	492	513	0	0	
13	0	0	0	0	487	511	0	0	
14	0	0	0	0	483	508	0	0	
15	0	0	0	0	480	508	0	0	
0	0	0	0	0	480	508	0	0	
1	0	0	0	0	476	504	0	0	
2	0	0	0	0	476	504	0	0	
3	0	0	0	0	472	508	0	0	
4	0	0	0	0	472	508	0	0	
5	0	0	0	0	472	508	0	0	
6	0	0	0	0	472	504	0	0	
7	0	0	0	0	467	508	0	0	
8	0	0	0	0	472	515	0	0	
9	0	0	0	0	480	512	0	0	
10	0	0	0	0	472	512	0	0	
11	0	0	0	0	472	510	0	0	
12	0	0	0	0	472	512	0	0	
13	0	0	0	0	472	508	0	0	
14	0	0	0	0	476	508	0	0	
15	0	0	0	0	480	513	0	0	
0	0	0	0	0	480	511	0	0	
1	0	0	0	0	480	511	0	0	
2	0	0	0	0	483	508	0	0	
3	0	0	0	0	481	510	0	0	
4	0	0	0	0	478	510	0	0	
5	0	0	0	0	473	512	0	0	
6	0	0	0	0	472	510	0	0	
7	0	0	0	0	467	504	0	0	
8	0	0	0	0	462	504	0	0	
9	0	0	0	0	462	510	0	0	
10	0	0	0	0	463	508	0	0	
11	0	0	0	0	463	510	0	0	
12	0	0	0	0	463	511	0	0	
13	0	0	0	0	467	508	0	0	
14	0	0	0	0	472	510	0	0	
15	0	0	0	0	472	512	0	0	
0	0	0	0	0	472	512	0	0	
1	0	0	0	0	476	510	0	0	
2	0	0	0	0	478	508	0	0	
3	0	0	0	0	480	508	0	0	
4	0	0	0	0	481	508	0	0	
5	0	0	0	0	480	511	0	0	
6	0	0	0	0	480	512	0	0	
7	0	0	0	0	472	508	0	0	
8	0	0	0	0	467	505	0	0	
9	0	0	0	0	463	504	0	0	
10	0	0	0	0	473	508	0	0	
11	0	0	0	0	483	508	0	0	
12	0	0	0	0	487	508	0	0	
13	0	0	0	0	480	508	0	0	
14	0	0	0	0	476	510	0	0	
15	0	0	0	0	472	511	0	0	
0	0	0	0	0	473	510	0	0	
1	0	0	0	0	480	511	0	0	
2	0	0	0	0	481	512	0	0	
3	0	0	0	0	480	511	0	0	
4	0	0	0	0	476	511	0	0	
5	0	0	0	0	472	511	0	0	
6	0	0	0	0	467	511	0	0	
7	0	0	0	0	467	512	0	0	
8	0	0	0	0	472	505	0	0	
9	0	0	0	0	467	504	0	0	
10	0	0	0	0	465	510	0	0	
11	0	0	0	0	467	510	0	0	
12	0	0	0	0	480	508	0	0	
13	0	0	0	0	487	508	0	0	
14	0	0	0	0	487	508	0	0	
15	0	0	0	0	478	510	0	0	
0	0	0	0	0	473	510	0	0	
1	0	0	0	0	480	510	0	0	
2	0	0	0	0	480	510	0	0	
3	0	0	0	0	473	510	0	0	
4	0	0	0	0	476	508	0	0	
5	0	0	0	0	478	508	0	0	
6	0	0	0	0	480	511	0	0	
7	0	0	0	0	483	510	0	0	
8	0	0	0	0	483	511	0	0	
9	0	0	0	0	481	510	0	0	
10	0	0	0	0	483	510	0	0	
11	0	0	0	0	483	511	0	0	
12	0	0	0	0	483	511	0	0	
13	0	0	0	0	487	510	0	0	
14	0	0	0	0	486	512	0	0	
15	0	0	0	0	481	512	0	0	
0	0	0	0	0	478	511	0	0	
1	0	0	0	0	472	511	0	0	
2	0	0	0	0	465	508	0	0	
3	0	0	0	0	460	510	0	0	
4	0	0	0	0	448	510	0	0	
5	0	0	0	0	455	510	0	0	
6	0	0	0	0	455	511	0	0	
7	0	0	0	0	455	508	0	0	
8	0	0	0	0	463	511	0	0	
9	0	0	0	0	467	510	0	0	
10	0	0	0	0	480	512	0	0	
11	0	0	0	0	480	510	0	0	
12	0	0	0	0	476	511	0	0	
13	0	0	0	0	476	510	0	0	
14	0	0	0	0	478	511	0	0	
15	0	0	0	0	480	510	0	0	
0	0	0	0	0	483	511	0	0	
1	0	0	0	0	492	510	0	0	
2	0	0	0	0	487	508	0	0	
3	0	0	0	0	483	508	0	0	
4	0	0	0	0	480	508	0	0	
5	0	0	0	0	476	508	0	0	
6	0	0	0	0	472	508	0	0	
7	0	0	0	0	467	508	0	0	
8	0	0	0	0	472	508	0	0	
9	0	0	0	0	472	504	0	0	
10	0	0	0	0	472	504	0	0	
11	0	0	0	0	463	505	0	0	
12	0	0	0	0	472	510	0	0	
13	0	0	0	0	473	511	0	0	
14	0	0	0	0	472	511	0	0	
15	0	0	0	0	472	510	0	0	
0	0	0	0	0	467	508	0	0	
1	0	0	0	0	472	510	0	0	
2	0	0	0	0	480	511	0	0	
3	0	0	0	0	483	511	0	0	
4	0	0	0	0	486	511	0	0	
5	0	0	0	0	481	510	0	0	
6	0	0	0	0	483	511	0	0	
7	0	0	0	0	483	510	0	0	
8	0	0	0	0	481	508	0	0	
9	0	0	0	0	480	508	0	0	
10	0	0	0	0	476	508	0	0	
11	0	0	0	0	472	504	0	0	
12	0	0	0	0	472	508	0	0	
13	0	0	0	0	470	510	0	0	
14	0	0	0	0	467	511	0	0	
15	0	0	0	0	467	513	0	0	
0	0	0	0	0	472	511	0	0	
1	0	0	0	0	467	510	0	0	
2	0	0	0	0	467	504	0	0	
3	0	0	0	0	472	510	0	0	
4	0	0	0	0	476	512	0	0	
5	0	0	0	0	480	519	0	0	
6	0	0	0	0	481	512	0	0	
7	0	0	0	0	483	510	0	0	
8	0	0	0	0	487	515	0	0	
9	0	0	0	0	487	512	0	0	
10	0	0	0	0	487	511	0	0	
11	0	0	0	0	480	510	0	0	
12	0	0	0	0	472	508	0	0	
13	0	0	0	0	463	512	0	0	
14	0	0	0	0	455	508	0	0	
15	0	0	0	0	455	508	0	0	
0	0	0	0	0	460	508	0	0	
1	0	0	0	0	462	511	0	0	
2	0	0	0	0	470	510	0	0	
3	0	0	0	0	476	510	0	0	
4	0	0	0	0	481	508	0	0	
5	0	0	0	0	486	508	0	0	
6	0	0	0	0	480	510	0	0	
7	0	0	0	0	476	510	0	0	
8	0	0	0	0	480	510	0	0	
9	0	0	0	0	480	511	0	0	
10	0	0	0	0	481	512	0	0	
11	0	0	0	0	486	511	0	0	
12	0	0	0	0	486	519	0	0	
13	0	0	0	0	487	511	0	0	
14	0	0	0	0	487	510	0	0	
15	0	0	0	0	478	508	0	0	
0	0	0	0	0	472	510	0	0	
1	0	0	0	0	465	504	0	0	
2	0	0	0	0	463	505	0	0	
3	0	0	0	0	460	508	0	0	
4	0	0	0	0	460	510	0	0	
5	0	0	0	0	462	512	0	0	
6	0	0	0	0	467	511	0	0	
7	0	0	0	0	467	510	0	0	
8	0	0	0	0	467	511	0	0	
9	0	0	0	0	472	510	0	0	
10	0	0	0	0	472	511	0	0	
11	0	0	0	0	472	505	0	0	
12	0	0	0	0	478	508	0	0	
13	0	0	0	0	480	510	0	0	
14	0	0	0	0	483	511	0	0	
15	0	0	0	0	480	512	0	0	
0	0	0	0	0	480	510	0	0	
1	0	0	0	0	480	510	0	0	
2	0	0	0	0	480	510	0	0	
3	0	0	0	0	481	510	0	0	
4	0	0	0	0	478	510	0	0	
5	0	0	0	0	472	508	0	0	
6	0	0	0	0	472	508	0	0	
7	0	0	0	0	463	508	0	0	
8	0	0	0	0	463	508	0	0	
9	0	0	0	0	467	508	0	0	
10	0	0	0	0	467	508	0	0	
11	0	0	0	0	467	510	0	0	
12	0	0	0	0	472	508	0	0	
13	0	0	0	0	476	512	0	0	
14	0	0	0	0	480	512	0	0	
15	0	0	0	0	480	511	0	0	
0	0	0	0	0	483	511	0	0	
1	0	0	0	0	480	510	0	0	
2	0	0	0	0	476	508	0	0	
3	0	0	0	0	480	508	0	0	
4	0	0	0	0	487	511	0	0	
5	0	0	0	0	492	511	0	0	
6	0	0	0	0	492	508	0	0	
7	0	0	0	0	492	511	0	0	
8	0	0	0	0	486	511	0	0	
9	0	0	0	0	472	510	0	0	
10	0	0	0	0	462	510	0	0	
11	0	0	0	0	460	510	0	0	
12	0	0	0	0	455	510	0	0	
13	0	0	0	0	454	508	0	0	
14	0	0	0	0	455	510	0	0	
15	0	0	0	0	465	511	0	0	
0	0	0	0	0	481	512	0	0	
1	0	0	0	0	480	512	0	0	
2	0	0	0	0	472	513	0	0	
3	0	0	0	0	480	512	0	0	
4	0	0	0	0	480	512	0	0	
5	0	0	0	0	480	510	0	0	
6	0	0	0	0	476	508	0	0	
7	0	0	0	0	476	510	0	0	
8	0	0	0	0	483	508	0	0	
9	0	0	0	0	492	508	0	0	
10	0	0	0	0	496	508	0	0	
11	0	0	0	0	483	510	0	0	
12	0	0	0	0	478	508	0	0	
13	0	0	0	0	472	505	0	0	
14	0	0	0	0	465	508	0	0	
15	0	0	0	0	465	510	0	0	
0	0	0	0	0	467	511	0	0	
1	0	0	0	0	467	508	0	0	
2	0	0	0	0	463	508	0	0	
3	0	0	0	0	460	505	0	0	
4	0	0	0	0	463	510	0	0	
5	0	0	0	0	463	511	0	0	
6	0	0	0	0	460	511	0	0	
7	0	0	0	0	463	511	0	0	
8	0	0	0	0	472	510	0	0	
9	0	0	0	0	481	511	0	0	
10	0	0	0	0	487	511	0	0	
11	0	0	0	0	487	511	0	0	
12	0	0	0	0	481	510	0	0	
13	0	0	0	0	480	508	0	0	
14	0	0	0	0	473	508	0	0	
15	0	0	0	0	480	510	0	0	
0	0	0	0	0	480	511	0	0	
1	0	0	0	0	478	505	0	0	
2	0	0	0	0	480	511	0	0	
3	0	0	0	0	472	508	0	0	
4	0	0	0	0	472	511	0	0	
5	0	0	0	0	472	512	0	0	
6	0	0	0	0	472	510	0	0	
7	0	0	0	0	473	510	0	0	
8	0	0	0	0	476	508	0	0	
9	0	0	0	0	480	510	0	0	
10	0	0	0	0	480	510	0	0	
11	0	0	0	0	480	508	0	0	
12	0	0	0	0	483	511	0	0	
13	0	0	0	0	483	511	0	0	
14	0	0	0	0	483	508	0	0	
15	0	0	0	0	483	508	0	0	
0	0	0	0	0	483	510	0	0	
1	0	0	0	0	481	504	0	0	
2	0	0	0	0	483	510	0	0	
3	0	0	0	0	480	510	0	0	
4	0	0	0	0	480	510	0	0	
5	0	0	0	0	476	513	0	0	
6	0	0	0	0	480	511	0	0	
7	0	0	0	0	480	508	0	0	
8	0	0	0	0	476	508	0	0	
9	0	0	0	0	472	511	0	0	
10	0	0	0	0	472	508	0	0	
11	0	0	0	0	476	508	0	0	
12	0	0	0	0	476	508	0	0	
13	0	0	0	0	480	511	0	0	
14	0	0	0	0	480	512	0	0	
15	0	0	0	0	483	512	0	0	
0	0	0	0	0	483	508	0	0	
1	0	0	0	0	487	511	0	0	
2	0	0	0	0	486	510	0	0	
3	0	0	0	0	480	511	0	0	
4	0	0	0	0	472	511	0	0	
5	0	0	0	0	465	510	0	0	
6	0	0	0	0	463	511	0	0	
7	0	0	0	0	460	505	0	0	
8	0	0	0	0	455	510	0	0	
9	0	0	0	0	463	511	0	0	
10	0	0	0	0	467	510	0	0	
11	0	0	0	0	472	511	0	0	
12	0	0	0	0	480	508	0	0	
13	0	0	0	0	480	508	0	0	
14	0	0	0	0	473	508	0	0	
15	0	0	0	0	467	504	0	0	
0	0	0	0	0	467	508	0	0	
1	0	0	0	0	480	512	0	0	
2	0	0	0	0	487	512	0	0	
3	0	0	0	0	492	510	0	0	
4	0	0	0	0	487	515	0	0	
5	0	0	0	0	487	519	0	0	
6	0	0	0	0	487	511	0	0	
7	0	0	0	0	487	510	0	0	
8	0	0	0	0	483	508	0	0	
9	0	0	0	0	483	504	0	0	
10	0	0	0	0	487	504	0	0	
11	0	0	0	0	481	508	0	0	
12	0	0	0	0	480	511	0	0	
13	0	0	0	0	476	511	0	0	
14	0	0	0	0	472	511	0	0	
15	0	0	0	0	465	508	0	0	
0	0	0	0	0	463	508	0	0	
1	0	0	0	0	463	505	0	0	
2	0	0	0	0	463	508	0	0	
3	0	0	0	0	463	510	0	0	
4	0	0	0	0	467	511	0	0	
5	0	0	0	0	472	511	0	0	
6	0	0	0	0	473	510	0	0	
7	0	0	0	0	480	508	0	0	
8	0	0	0	0	483	511	0	0	
9	0	0	0	0	487	510	0	0	
10	0	0	0	0	487	508	0	0	
11	0	0	0	0	486	510	0	0	
12	0	0	0	0	481	511	0	0	
13	0	0	0	0	476	512	0	0	
14	0	0	0	0	473	510	0	0	
15	0	0	0	0	472	512	0	0	
0	0	0	0	0	476	512	0	0	
1	0	0	0	0	472	504	0	0	
2	0	0	0	0	467	505	0	0	
3	0	0	0	0	463	508	0	0	
4	0	0	0	0	465	510	0	0	
5	0	0	0	0	465	511	0	0	
6	0	0	0	0	455	512	0	0	
7	0	0	0	0	451	510	0	0	
8	0	0	0	0	455	510	0	0	
9	0	0	0	0	465	508	0	0	
10	0	0	0	0	473	508	0	0	
11	0	0	0	0	480	508	0	0	
12	0	0	0	0	483	508	0	0	
13	0	0	0	0	480	511	0	0	
14	0	0	0	0	486	513	0	0	
15	0	0	0	0	483	511	0	0	
0	0	0	0	0	480	513	0	0	
1	0	0	0	0	473	511	0	0	
2	0	0	0	0	472	511	0	0	
3	0	0	0	0	472	508	0	0	
4	0	0	0	0	472	510	0	0	
5	0	0	0	0	472	508	0	0	
6	0	0	0	0	470	510	0	0	
7	0	0	0	0	470	508	0	0	
8	0	0	0	0	472	504	0	0	
9	0	0	0	0	463	508	0	0	
10	0	0	0	0	462	510	0	0	
11	0	0	0	0	460	508	0	0	
12	0	0	0	0	460	505	0	0	
13	0	0	0	0	463	508	0	0	
14	0	0	0	0	472	511	0	0	
15	0	0	0	0	476	513	0	0	
0	0	0	0	0	480	510	0	0	
1	0	0	0	0	481	510	0	0	
2	0	0	0	0	487	519	0	0	
3	0	0	0	0	486	518	0	0	
4	0	0	0	0	487	512	0	0	
5	0	0	0	0	483	510	0	0	
6	0	0	0	0	480	504	0	0	
7	0	0	0	0	480	504	0	0	
8	0	0	0	0	480	504	0	0	
9	0	0	0	0	472	508	0	0	
10	0	0	0	0	472	518	0	0	
11	0	0	0	0	480	513	0	0	
12	0	0	0	0	472	510	0	0	
13	0	0	0	0	467	508	0	0	
14	0	0	0	0	467	508	0	0	
15	0	0	0	0	470	511	0	0	
0	0	0	0	0	467	511	0	0	
1	0	0	0	0	472	508	0	0	
2	0	0	0	0	472	510	0	0	
3	0	0	0	0	472	510	0	0	
4	0	0	0	0	472	510	0	0	
5	0	0	0	0	478	510	0	0	
6	0	0	0	0	480	508	0	0	
7	0	0	0	0	480	508	0	0	
8	0	0	0	0	480	511	0	0	
9	0	0	0	0	487	512	0	0	
10	0	0	0	0	487	512	0	0	
11	0	0	0	0	480	510	0	0	
12	0	0	0	0	480	510	0	0	
13	0	0	0	0	476	510	0	0	
14	0	0	0	0	472	508	0	0	
15	0	0	0	0	472	508	0	0	
0	0	0	0	0	472	508	0	0	
1	0	0	0	0	472	508	0	0	
2	0	0	0	0	476	504	0	0	
3	0	0	0	0	472	504	0	0	
4	0	0	0	0	472	510	0	0	
5	0	0	0	0	480	508	0	0	
6	0	0	0	0	483	511	0	0	
7	0	0	0	0	487	511	0	0	
8	0	0	0	0	487	513	0	0	
9	0	0	0	0	494	512	0	0	
10	0	0	0	0	483	511	0	0	
11	0	0	0	0	480	510	0	0	
12	0	0	0	0	481	508	0	0	
13	0	0	0	0	483	508	0	0	
14	0	0	0	0	487	508	0	0	
15	0	0	0	0	486	508	0	0	
0	0	0	0	0	483	508	0	0	
1	0	0	0	0	480	508	0	0	
2	0	0	0	0	476	505	0	0	
3	0	0	0	0	472	508	0	0	
4	0	0	0	0	465	508	0	0	
5	0	0	0	0	463	508	0	0	
6	0	0	0	0	455	510	0	0	
7	0	0	0	0	455	512	0	0	
8	0	0	0	0	463	512	0	0	
9	0	0	0	0	467	512	0	0	
10	0	0	0	0	472	512	0	0	
11	0	0	0	0	472	511	0	0	
12	0	0	0	0	472	508	0	0	
13	0	0	0	0	472	510	0	0	
14	0	0	0	0	476	511	0	0	
15	0	0	0	0	467	511	0	0	
0	0	0	0	0	473	511	0	0	
1	0	0	0	0	487	511	0	0	
2	0	0	0	0	494	515	0	0	
3	0	0	0	0	487	511	0	0	
4	0	0	0	0	480	510	0	0	
5	0	0	0	0	467	508	0	0	
6	0	0	0	0	465	504	0	0	
7	0	0	0	0	463	504	0	0	
8	0	0	0	0	463	508	0	0	
9	0	0	0	0	463	511	0	0	
10	0	0	0	0	470	511	0	0	
11	0	0	0	0	467	512	0	0	
12	0	0	0	0	465	511	0	0	
13	0	0	0	0	467	511	0	0	
14	0	0	0	0	476	513	0	0	
15	0	0	0	0	480	510	0	0	
0	0	0	0	0	480	511	0	0	
1	0	0	0	0	481	511	0	0	
2	0	0	0	0	481	511	0	0	
3	0	0	0	0	483	511	0	0	
4	0	0	0	0	487	508	0	0	
5	0	0	0	0	481	511	0	0	
6	0	0	0	0	480	510	0	0	
7	0	0	0	0	480	511	0	0	
8	0	0	0	0	472	510	0	0	
9	0	0	0	0	467	510	0	0	
10	0	0	0	0	467	505	0	0	
11	0	0	0	0	472	510	0	0	
12	0	0	0	0	463	508	0	0	
13	0	0	0	0	463	505	0	0	
14	0	0	0	0	460	508	0	0	
15	0	0	0	0	463	508	0	0	
0	0	0	0	0	465	508	0	0	
1	0	0	0	0	472	511	0	0	
2	0	0	0	0	472	511	0	0	
3	0	0	0	0	476	510	0	0	
4	0	0	0	0	480	511	0	0	
5	0	0	0	0	480	511	0	0	
6	0	0	0	0	481	510	0	0	
7	0	0	0	0	486	510	0	0	
8	0	0	0	0	486	512	0	0	
9	0	0	0	0	487	511	0	0	
10	0	0	0	0	483	510	0	0	
11	0	0	0	0	480	508	0	0	
12	0	0	0	0	480	504	0	0	
13	0	0	0	0	476	504	0	0	
14	0	0	0	0	472	511	0	0	
15	0	0	0	0	472	508	0	0	
0	0	0	0	0	473	508	0	0	
1	0	0	0	0	467	505	0	0	
2	0	0	0	0	463	510	0	0	
3	0	0	0	0	465	510	0	0	
4	0	0	0	0	472	510	0	0	
5	0	0	0	0	476	510	0	0	
6	0	0	0	0	476	513	0	0	
7	0	0	0	0	476	508	0	0	
8	0	0	0	0	476	510	0	0	
9	0	0	0	0	473	508	0	0	
10	0	0	0	0	472	508	0	0	
11	0	0	0	0	472	508	0	0	
12	0	0	0	0	480	515	0	0	
13	0	0	0	0	492	512	0	0	
14	0	0	0	0	499	510	0	0	
15	0	0	0	0	496	510	0	0	
0	0	0	0	0	480	508	0	0	
1	0	0	0	0	473	508	0	0	
2	0	0	0	0	472	508	0	0	
3	0	0	0	0	463	508	0	0	
4	0	0	0	0	460	504	0	0	
5	0	0	0	0	455	504	0	0	
6	0	0	0	0	449	508	0	0	
7	0	0	0	0	448	511	0	0	
8	0	0	0	0	449	508	0	0	
9	0	0	0	0	449	505	0	0	
10	0	0	0	0	455	508	0	0	
11	0	0	0	0	472	510	0	0	
12	0	0	0	0	492	513	0	0	
13	0	0	0	0	499	512	0	0	
14	0	0	0	0	496	512	0	0	
15	0	0	0	0	496	512	0	0	
0	0	0	0	0	496	510	0	0	
1	0	0	0	0	494	511	0	0	
2	0	0	0	0	487	508	0	0	
3	0	0	0	0	487	508	0	0	
4	0	0	0	0	483	510	0	0	
5	0	0	0	0	480	511	0	0	
6	0	0	0	0	478	511	0	0	
7	0	0	0	0	472	508	0	0	
8	0	0	0	0	472	508	0	0	
9	0	0	0	0	472	508	0	0	
10	0	0	0	0	463	508	0	0	
11	0	0	0	0	462	508	0	0	
12	0	0	0	0	462	510	0	0	
13	0	0	0	0	463	508	0	0	
14	0	0	0	0	472	510	0	0	
15	0	0	0	0	480	511	0	0	
0	0	0	0	0	478	511	0	0	
1	0	0	0	0	480	508	0	0	
2	0	0	0	0	487	513	0	0	
3	0	0	0	0	496	519	0	0	
4	0	0	0	0	496	512	0	0	
5	0	0	0	0	492	512	0	0	
6	0	0	0	0	487	511	0	0	
7	0	0	0	0	481	511	0	0	
8	0	0	0	0	480	510	0	0	
9	0	0	0	0	476	510	0	0	
10	0	0	0	0	472	508	0	0	
11	0	0	0	0	472	510	0	0	
12	0	0	0	0	467	508	0	0	
13	0	0	0	0	463	508	0	0	
14	0	0	0	0	463	508	0	0	
15	0	0	0	0	463	508	0	0	
0	0	0	0	0	463	510	0	0	
1	0	0	0	0	467	508	0	0	
2	0	0	0	0	472	508	0	0	
3	0	0	0	0	480	508	0	0	
4	0	0	0	0	481	512	0	0	
5	0	0	0	0	483	510	0	0	
6	0	0	0	0	486	511	0	0	
7	0	0	0	0	481	512	0	0	
8	0	0	0	0	486	508	0	0	
9	0	0	0	0	486	504	0	0	
10	0	0	0	0	480	508	0	0	
11	0	0	0	0	480	513	0	0	
12	0	0	0	0	476	511	0	0	
13	0	0	0	0	465	508	0	0	
14	0	0	0	0	463	508	0	0	
15	0	0	0	0	463	508	0	0	
0	0	0	0	0	463	510	0	0	
1	0	0	0	0	472	508	0	0	
2	0	0	0	0	463	504	0	0	
3	0	0	0	0	460	508	0	0	
4	0	0	0	0	463	511	0	0	
5	0	0	0	0	472	508	0	0	
6	0	0	0	0	476	508	0	0	
7	0	0	0	0	476	512	0	0	
8	0	0	0	0	480	510	0	0	
9	0	0	0	0	481	512	0	0	
10	0	0	0	0	483	511	0	0	
11	0	0	0	0	483	510	0	0	
12	0	0	0	0	480	511	0	0	
13	0	0	0	0	480	511	0	0	
14	0	0	0	0	483	510	0	0	
15	0	0	0	0	480	510	0	0	
0	0	0	0	0	478	510	0	0	
1	0	0	0	0	472	510	0	0	
2	0	0	0	0	472	510	0	0	
3	0	0	0	0	465	504	0	0	
4	0	0	0	0	467	504	0	0	
5	0	0	0	0	472	505	0	0	
6	0	0	0	0	463	510	0	0	
7	0	0	0	0	463	511	0	0	
8	0	0	0	0	465	512	0	0	
9	0	0	0	0	467	512	0	0	
10	0	0	0	0	473	512	0	0	
11	0	0	0	0	480	512	0	0	
12	0	0	0	0	480	512	0	0	
13	0	0	0	0	480	512	0	0	
14	0	0	0	0	480	510	0	0	
15	0	0	0	0	480	511	0	0	
0	0	0	0	0	476	511	0	0	
1	0	0	0	0	472	510	0	0	
2	0	0	0	0	472	510	0	0	
3	0	0	0	0	476	508	0	0	
4	0	0	0	0	481	508	0	0	
5	0	0	0	0	480	508	0	0	
6	0	0	0	0	476	504	0	0	
7	0	0	0	0	476	504	0	0	
8	0	0	0	0	472	505	0	0	
9	0	0	0	0	467	512	0	0	
10	0	0	0	0	463	512	0	0	
11	0	0	0	0	460	515	0	0	
12	0	0	0	0	462	513	0	0	
13	0	0	0	0	467	512	0	0	
14	0	0	0	0	472	511	0	0	
15	0	0	0	0	480	508	0	0	
0	0	0	0	0	481	510	0	0	
1	0	0	0	0	483	508	0	0	
2	0	0	0	0	487	508	0	0	
3	0	0	0	0	487	508	0	0	
4	0	0	0	0	480	511	0	0	
5	0	0	0	0	480	512	0	0	
6	0	0	0	0	478	511	0	0	
7	0	0	0	0	476	510	0	0	
8	0	0	0	0	467	510	0	0	
9	0	0	0	0	467	508	0	0	
10	0	0	0	0	472	508	0	0	
11	0	0	0	0	467	504	0	0	
12	0	0	0	0	463	511	0	0	
13	0	0	0	0	462	511	0	0	
14	0	0	0	0	467	508	0	0	
15	0	0	0	0	467	512	0	0	
0	0	0	0	0	467	511	0	0	
1	0	0	0	0	465	511	0	0	
2	0	0	0	0	472	513	0	0	
3	0	0	0	0	487	511	0	0	
4	0	0	0	0	496	510	0	0	
5	0	0	0	0	492	510	0	0	
6	0	0	0	0	487	510	0	0	
7	0	0	0	0	487	508	0	0	
8	0	0	0	0	480	511	0	0	
9	0	0	0	0	480	510	0	0	
10	0	0	0	0	480	508	0	0	
11	0	0	0	0	480	505	0	0	
12	0	0	0	0	480	504	0	0	
13	0	0	0	0	472	508	0	0	
14	0	0	0	0	472	504	0	0	
15	0	0	0	0	465	511	0	0	
0	0	0	0	0	463	511	0	0	
1	0	0	0	0	463	510	0	0	
2	0	0	0	0	467	510	0	0	
3	0	0	0	0	463	510	0	0	
4	0	0	0	0	465	510	0	0	
5	0	0	0	0	472	511	0	0	
6	0	0	0	0	473	510	0	0	
7	0	0	0	0	476	510	0	0	
8	0	0	0	0	476	508	0	0	
9	0	0	0	0	480	510	0	0	
10	0	0	0	0	480	508	0	0	
11	0	0	0	0	483	510	0	0	
12	0	0	0	0	483	512	0	0	
13	0	0	0	0	487	513	0	0	
14	0	0	0	0	487	508	0	0	
15	0	0	0	0	480	504	0	0	
0	0	0	0	0	476	508	0	0	
1	0	0	0	0	472	508	0	0	
2	0	0	0	0	463	508	0	0	
3	0	0	0	0	460	512	0	0	
4	0	0	0	0	460	511	0	0	
5	0	0	0	0	460	511	0	0	
6	0	0	0	0	455	512	0	0	
7	0	0	0	0	455	510	0	0	
8	0	0	0	0	463	510	0	0	
9	0	0	0	0	472	512	0	0	
10	0	0	0	0	478	511	0	0	
11	0	0	0	0	478	508	0	0	
12	0	0	0	0	480	510	0	0	
13	0	0	0	0	476	511	0	0	
14	0	0	0	0	476	508	0	0	
15	0	0	0	0	480	511	0	0	
0	0	0	0	0	480	511	0	0	
1	0	0	0	0	480	508	0	0	
2	0	0	0	0	480	510	0	0	
3	0	0	0	0	480	510	0	0	
4	0	0	0	0	472	511	0	0	
5	0	0	0	0	476	510	0	0	
6	0	0	0	0	472	510	0	0	
7	0	0	0	0	472	504	0	0	
8	0	0	0	0	472	504	0	0	
9	0	0	0	0	467	505	0	0	
10	0	0	0	0	467	508	0	0	
11	0	0	0	0	472	510	0	0	
12	0	0	0	0	472	510	0	0	
13	0	0	0	0	472	510	0	0	
14	0	0	0	0	472	512	0	0	
15	0	0	0	0	480	512	0	0	
0	0	0	0	0	480	512	0	0	
1	0	0	0	0	487	508	0	0	
2	0	0	0	0	487	504	0	0	
3	0	0	0	0	487	508	0	0	
4	0	0	0	0	487	511	0	0	
5	0	0	0	0	486	515	0	0	
6	0	0	0	0	480	511	0	0	
7	0	0	0	0	480	510	0	0	
8	0	0	0	0	476	508	0	0	
9	0	0	0	0	472	504	0	0	
10	0	0	0	0	467	511	0	0	
11	0	0	0	0	472	508	0	0	
12	0	0	0	0	472	504	0	0	
13	0	0	0	0	472	512	0	0	
14	0	0	0	0	472	512	0	0	
15	0	0	0	0	472	511	0	0	
0	0	0	0	0	472	508	0	0	
1	0	0	0	0	472	511	0	0	
2	0	0	0	0	480	511	0	0	
3	0	0	0	0	480	508	0	0	
4	0	0	0	0	480	511	0	0	
5	0	0	0	0	476	511	0	0	
6	0	0	0	0	480	510	0	0	
7	0	0	0	0	486	510	0	0	
8	0	0	0	0	486	513	0	0	
9	0	0	0	0	487	508	0	0	
10	0	0	0	0	483	511	0	0	
11	0	0	0	0	480	512	0	0	
12	0	0	0	0	476	511	0	0	
13	0	0	0	0	467	508	0	0	
14	0	0	0	0	467	508	0	0	
15	0	0	0	0	467	508	0	0	
0	0	0	0	0	463	505	0	0	
1	0	0	0	0	460	508	0	0	
2	0	0	0	0	460	508	0	0	
3	0	0	0	0	460	508	0	0	
4	0	0	0	0	463	508	0	0	
5	0	0	0	0	467	508	0	0	
6	0	0	0	0	480	511	0	0	
7	0	0	0	0	489	515	0	0	
8	0	0	0	0	494	513	0	0	
9	0	0	0	0	487	512	0	0	
10	0	0	0	0	486	508	0	0	
11	0	0	0	0	481	504	0	0	
12	0	0	0	0	483	510	0	0	
13	0	0	0	0	483	508	0	0	
14	0	0	0	0	481	511	0	0	
15	0	0	0	0	483	508	0	0	
0	0	0	0	0	480	508	0	0	
1	0	0	0	0	481	508	0	0	
2	0	0	0	0	476	513	0	0	
3	0	0	0	0	467	510	0	0	
4	0	0	0	0	463	510	0	0	
5	0	0	0	0	467	510	0	0	
6	0	0	0	0	467	508	0	0	
7	0	0	0	0	472	508	0	0	
8	0	0	0	0	472	511	0	0	
9	0	0	0	0	473	508	0	0	
10	0	0	0	0	480	508	0	0	
11	0	0	0	0	480	508	0	0	
12	0	0	0	0	476	511	0	0	
13	0	0	0	0	480	513	0	0	
14	0	0	0	0	487	512	0	0	
15	0	0	0	0	480	512	0	0	
0	0	0	0	0	483	508	0	0	
1	0	0	0	0	483	508	0	0	
2	0	0	0	0	483	512	0	0	
3	0	0	0	0	481	510	0	0	
4	0	0	0	0	480	510	0	0	
5	0	0	0	0	476	510	0	0	
6	0	0	0	0	472	504	0	0	
7	0	0	0	0	472	508	0	0	
8	0	0	0	0	472	508	0	0	
9	0	0	0	0	455	508	0	0	
10	0	0	0	0	455	511	0	0	
11	0	0	0	0	463	508	0	0	
12	0	0	0	0	467	508	0	0	
13	0	0	0	0	472	508	0	0	
14	0	0	0	0	473	508	0	0	
15	0	0	0	0	478	510	0	0	
0	0	0	0	0	480	512	0	0	
1	0	0	0	0	480	511	0	0	
2	0	0	0	0	480	511	0	0	
3	0	0	0	0	480	511	0	0	
4	0	0	0	0	480	508	0	0	
5	0	0	0	0	480	510	0	0	
6	0	0	0	0	480	508	0	0	
7	0	0	0	0	481	510	0	0	
8	0	0	0	0	480	510	0	0	
9	0	0	0	0	476	508	0	0	
10	0	0	0	0	472	508	0	0	
11	0	0	0	0	472	504	0	0	
12	0	0	0	0	467	508	0	0	
13	0	0	0	0	467	512	0	0	
14	0	0	0	0	467	519	0	0	
15	0	0	0	0	472	511	0	0	
0	0	0	0	0	472	510	0	0	
1	0	0	0	0	472	508	0	0	
2	0	0	0	0	473	510	0	0	
3	0	0	0	0	480	511	0	0	
4	0	0	0	0	480	508	0	0	
5	0	0	0	0	483	504	0	0	
6	0	0	0	0	487	513	0	0	
7	0	0	0	0	494	512	0	0	
8	0	0	0	0	492	510	0	0	
9	0	0	0	0	492	510	0	0	
10	0	0	0	0	487	508	0	0	
11	0	0	0	0	481	504	0	0	
12	0	0	0	0	478	508	0	0	
13	0	0	0	0	472	508	0	0	
14	0	0	0	0	472	508	0	0	
15	0	0	0	0	472	505	0	0	
0	0	0	0	0	472	508	0	0	
1	0	0	0	0	473	511	0	0	
2	0	0	0	0	472	508	0	0	
3	0	0	0	0	472	511	0	0	
4	0	0	0	0	467	510	0	0	
5	0	0	0	0	467	508	0	0	
6	0	0	0	0	465	510	0	0	
7	0	0	0	0	465	512	0	0	
8	0	0	0	0	472	511	0	0	
9	0	0	0	0	472	508	0	0	
10	0	0	0	0	476	511	0	0	
11	0	0	0	0	476	512	0	0	
12	0	0	0	0	478	510	0	0	
13	0	0	0	0	480	510	0	0	
14	0	0	0	0	480	504	0	0	
15	0	0	0	0	480	508	0	0	
0	0	0	0	0	480	508	0	0	
1	0	0	0	0	480	512	0	0	
2	0	0	0	0	478	511	0	0	
3	0	0	0	0	476	508	0	0	
4	0	0	0	0	472	508	0	0	
5	0	0	0	0	472	508	0	0	
6	0	0	0	0	472	508	0	0	
7	0	0	0	0	472	508	0	0	
8	0	0	0	0	472	510	0	0	
9	0	0	0	0	472	510	0	0	
10	0	0	0	0	467	512	0	0	
11	0	0	0	0	476	511	0	0	
12	0	0	0	0	480	511	0	0	
13	0	0	0	0	480	510	0	0	
14	0	0	0	0	480	511	0	0	
15	0	0	0	0	480	512	0	0	
0	0	0	0	0	487	510	0	0	
1	0	0	0	0	483	513	0	0	
2	0	0	0	0	480	511	0	0	
3	0	0	0	0	480	510	0	0	
4	0	0	0	0	476	508	0	0	
5	0	0	0	0	472	504	0	0	
6	0	0	0	0	467	508	0	0	
7	0	0	0	0	472	510	0	0	
8	0	0	0	0	472	510	0	0	
9	0	0	0	0	472	511	0	0	
10	0	0	0	0	467	508	0	0	
11	0	0	0	0	465	512	0	0	
12	0	0	0	0	472	510	0	0	
13	0	0	0	0	472	511	0	0	
14	0	0	0	0	473	513	0	0	
15	0	0	0	0	480	511	0	0	
0	0	0	0	0	483	515	0	0	
1	0	0	0	0	481	512	0	0	
2	0	0	0	0	480	513	0	0	
3	0	0	0	0	480	511	0	0	
4	0	0	0	0	483	515	0	0	
5	0	0	0	0	486	511	0	0	
6	0	0	0	0	480	510	0	0	
7	0	0	0	0	472	508	0	0	
8	0	0	0	0	463	505	0	0	
9	0	0	0	0	463	505	0	0	
10	0	0	0	0	463	508	0	0	
11	0	0	0	0	467	510	0	0	
12	0	0	0	0	463	504	0	0	
13	0	0	0	0	463	499	0	0	
14	0	0	0	0	463	504	0	0	
15	0	0	0	0	465	505	0	0	
0	0	0	0	0	465	508	0	0	
1	0	0	0	0	467	508	0	0	
2	0	0	0	0	472	508	0	0	
3	0	0	0	0	472	515	0	0	
4	0	0	0	0	473	515	0	0	
5	0	0	0	0	480	518	0	0	
6	0	0	0	0	480	512	0	0	
7	0	0	0	0	476	511	0	0	
8	0	0	0	0	480	505	0	0	
9	0	0	0	0	481	511	0	0	
10	0	0	0	0	481	510	0	0	
11	0	0	0	0	480	508	0	0	
12	0	0	0	0	480	508	0	0	
13	0	0	0	0	478	508	0	0	
14	0	0	0	0	472	504	0	0	
15	0	0	0	0	472	508	0	0	
0	0	0	0	0	472	508	0	0	
1	0	0	0	0	472	508	0	0	
2	0	0	0	0	473	505	0	0	
3	0	0	0	0	472	508	0	0	
4	0	0	0	0	463	510	0	0	
5	0	0	0	0	473	512	0	0	
6	0	0	0	0	476	512	0	0	
7	0	0	0	0	472	510	0	0	
8	0	0	0	0	476	515	0	0	
9	0	0	0	0	480	510	0	0	
10	0	0	0	0	481	508	0	0	
11	0	0	0	0	487	511	0	0	
12	0	0	0	0	487	513	0	0	
13	0	0	0	0	481	508	0	0	
14	0	0	0	0	473	508	0	0	
15	0	0	0	0	467	508	0	0	
0	0	0	0	0	472	508	0	0	
1	0	0	0	0	465	508	0	0	
2	0	0	0	0	465	508	0	0	
3	0	0	0	0	465	505	0	0	
4	0	0	0	0	467	508	0	0	
5	0	0	0	0	467	510	0	0	
6	0	0	0	0	472	508	0	0	
7	0	0	0	0	472	513	0	0	
8	0	0	0	0	472	511	0	0	
9	0	0	0	0	472	508	0	0	
10	0	0	0	0	478	511	0	0	
11	0	0	0	0	480	513	0	0	
12	0	0	0	0	481	512	0	0	
13	0	0	0	0	483	511	0	0	
14	0	0	0	0	483	511	0	0	
15	0	0	0	0	481	511	0	0	
0	0	0	0	0	487	508	0	0	
1	0	0	0	0	492	508	0	0	
2	0	0	0	0	487	508	0	0	
3	0	0	0	0	481	508	0	0	
4	0	0	0	0	476	499	0	0	
5	0	0	0	0	472	504	0	0	
6	0	0	0	0	472	511	0	0	
7	0	0	0	0	465	511	0	0	
8	0	0	0	0	472	510	0	0	
9	0	0	0	0	472	505	0	0	
10	0	0	0	0	467	504	0	0	
11	0	0	0	0	465	511	0	0	
12	0	0	0	0	465	512	0	0	
13	0	0	0	0	472	512	0	0	
14	0	0	0	0	480	510	0	0	
15	0	0	0	0	483	511	0	0	
0	0	0	0	0	480	515	0	0	
1	0	0	0	0	473	513	0	0	
2	0	0	0	0	476	508	0	0	
3	0	0	0	0	476	508	0	0	
4	0	0	0	0	480	508	0	0	
5	0	0	0	0	483	510	0	0	
6	0	0	0	0	487	510	0	0	
7	0	0	0	0	483	508	0	0	
8	0	0	0	0	480	508	0	0	
9	0	0	0	0	476	508	0	0	
10	0	0	0	0	472	508	0	0	
11	0	0	0	0	472	508	0	0	
12	0	0	0	0	472	508	0	0	
13	0	0	0	0	472	508	0	0	
14	0	0	0	0	467	508	0	0	
15	0	0	0	0	465	510	0	0	
0	0	0	0	0	467	508	0	0	
1	0	0	0	0	473	508	0	0	
2	0	0	0	0	476	505	0	0	
3	0	0	0	0	476	512	0	0	
4	0	0	0	0	476	515	0	0	
5	0	0	0	0	480	513	0	0	
6	0	0	0	0	487	512	0	0	
7	0	0	0	0	480	512	0	0	
8	0	0	0	0	487	510	0	0	
9	0	0	0	0	496	512	0	0	
10	0	0	0	0	483	510	0	0	
11	0	0	0	0	480	508	0	0	
12	0	0	0	0	476	508	0	0	
13	0	0	0	0	476	508	0	0	
14	0	0	0	0	476	508	0	0	
15	0	0	0	0	467	511	0	0	
0	0	0	0	0	463	504	0	0	
1	0	0	0	0	463	508	0	0	
2	0	0	0	0	463	510	0	0	
3	0	0	0	0	465	508	0	0	
4	0	0	0	0	463	508	0	0	
5	0	0	0	0	470	510	0	0	
6	0	0	0	0	463	511	0	0	
7	0	0	0	0	467	512	0	0	
8	0	0	0	0	472	510	0	0	
9	0	0	0	0	472	511	0	0	
10	0	0	0	0	476	510	0	0	
11	0	0	0	0	487	508	0	0	
12	0	0	0	0	487	511	0	0	
13	0	0	0	0	483	508	0	0	
14	0	0	0	0	480	508	0	0	
15	0	0	0	0	473	508	0	0	
0	0	0	0	0	465	510	0	0	
1	0	0	0	0	467	511	0	0	
2	0	0	0	0	467	510	0	0	
3	0	0	0	0	467	508	0	0	
4	0	0	0	0	472	505	0	0	
5	0	0	0	0	473	508	0	0	
6	0	0	0	0	476	508	0	0	
7	0	0	0	0	467	508	0	0	
8	0	0	0	0	465	508	0	0	
9	0	0	0	0	467	510	0	0	
10	0	0	0	0	473	510	0	0	
11	0	0	0	0	476	512	0	0	
12	0	0	0	0	480	510	0	0	
13	0	0	0	0	483	511	0	0	
14	0	0	0	0	487	519	0	0	
15	0	0	0	0	487	513	0	0	
0	0	0	0	0	487	511	0	0	
1	0	0	0	0	487	510	0	0	
2	0	0	0	0	487	508	0	0	
3	0	0	0	0	487	508	0	0	
4	0	0	0	0	480	508	0	0	
5	0	0	0	0	472	504	0	0	
6	0	0	0	0	472	504	0	0	
7	0	0	0	0	472	508	0	0	
8	0	0	0	0	467	511	0	0	
9	0	0	0	0	463	508	0	0	
10	0	0	0	0	451	508	0	0	
11	0	0	0	0	455	508	0	0	
12	0	0	0	0	463	508	0	0	
13	0	0	0	0	467	511	0	0	
14	0	0	0	0	467	512	0	0	
15	0	0	0	0	472	510	0	0	
0	0	0	0	0	473	515	0	0	
1	0	0	0	0	480	512	0	0	
2	0	0	0	0	483	511	0	0	
3	0	0	0	0	487	511	0	0	
4	0	0	0	0	487	510	0	0	
5	0	0	0	0	483	508	0	0	
6	0	0	0	0	480	505	0	0	
7	0	0	0	0	480	508	0	0	
8	0	0	0	0	472	508	0	0	
9	0	0	0	0	472	512	0	0	
10	0	0	0	0	472	512	0	0	
11	0	0	0	0	463	508	0	0	
12	0	0	0	0	463	508	0	0	
13	0	0	0	0	463	508	0	0	
14	0	0	0	0	472	508	0	0	
15	0	0	0	0	472	512	0	0	
0	0	0	0	0	472	511	0	0	
1	0	0	0	0	476	511	0	0	
2	0	0	0	0	478	512	0	0	
3	0	0	0	0	483	508	0	0	
4	0	0	0	0	478	510	0	0	
5	0	0	0	0	481	510	0	0	
6	0	0	0	0	483	508	0	0	
7	0	0	0	0	481	504	0	0	
8	0	0	0	0	481	508	0	0	
9	0	0	0	0	481	508	0	0	
10	0	0	0	0	480	510	0	0	
11	0	0	0	0	480	511	0	0	
12	0	0	0	0	476	510	0	0	
13	0	0	0	0	472	510	0	0	
14	0	0	0	0	472	504	0	0	
15	0	0	0	0	467	504	0	0	
0	0	0	0	0	472	504	0	0	
1	0	0	0	0	472	508	0	0	
2	0	0	0	0	472	512	0	0	
3	0	0	0	0	472	508	0	0	
4	0	0	0	0	472	513	0	0	
5	0	0	0	0	472	510	0	0	
6	0	0	0	0	480	510	0	0	
7	0	0	0	0	486	510	0	0	
8	0	0	0	0	483	511	0	0	
9	0	0	0	0	483	511	0	0	
10	0	0	0	0	487	511	0	0	
11	0	0	0	0	480	512	0	0	
12	0	0	0	0	481	511	0	0	
13	0	0	0	0	486	510	0	0	
14	0	0	0	0	480	508	0	0	
15	0	0	0	0	480	508	0	0	
0	0	0	0	0	473	508	0	0	
1	0	0	0	0	473	510	0	0	
2	0	0	0	0	467	508	0	0	
3	0	0	0	0	476	511	0	0	
4	0	0	0	0	472	510	0	0	
5	0	0	0	0	463	508	0	0	
6	0	0	0	0	455	511	0	0	
7	0	0	0	0	451	511	0	0	
8	0	0	0	0	451	511	0	0	
9	0	0	0	0	454	511	0	0	
10	0	0	0	0	455	511	0	0	
11	0	0	0	0	463	511	0	0	
12	0	0	0	0	472	511	0	0	
13	0	0	0	0	480	510	0	0	
14	0	0	0	0	487	508	0	0	
15	0	0	0	0	496	510	0	0	
0	0	0	0	0	496	510	0	0	
1	0	0	0	0	496	510	0	0	
2	0	0	0	0	487	510	0	0	
3	0	0	0	0	483	510	0	0	
4	0	0	0	0	476	508	0	0	
5	0	0	0	0	476	508	0	0	
6	0	0	0	0	465	511	0	0	
7	0	0	0	0	462	508	0	0	
8	0	0	0	0	463	508	0	0	
9	0	0	0	0	467	511	0	0	
10	0	0	0	0	463	508	0	0	
11	0	0	0	0	467	508	0	0	
12	0	0	0	0	472	508	0	0	
13	0	0	0	0	476	511	0	0	
14	0	0	0	0	480	510	0	0	
15	0	0	0	0	480	510	0	0	
0	0	0	0	0	480	511	0	0	
1	0	0	0	0	472	511	0	0	
2	0	0	0	0	473	508	0	0	
3	0	0	0	0	478	510	0	0	
4	0	0	0	0	481	510	0	0	
5	0	0	0	0	483	510	0	0	
6	0	0	0	0	480	510	0	0	
7	0	0	0	0	480	511	0	0	
8	0	0	0	0	476	510	0	0	
9	0	0	0	0	476	508	0	0	
10	0	0	0	0	467	508	0	0	
11	0	0	0	0	463	508	0	0	
12	0	0	0	0	463	508	0	0	
13	0	0	0	0	463	508	0	0	
14	0	0	0	0	462	505	0	0	
15	0	0	0	0	465	511	0	0	
0	0	0	0	0	472	512	0	0	
1	0	0	0	0	472	510	0	0	
2	0	0	0	0	472	510	0	0	
3	0	0	0	0	473	508	0	0	
4	0	0	0	0	476	510	0	0	
5	0	0	0	0	480	511	0	0	
6	0	0	0	0	487	515	0	0	
7	0	0	0	0	487	515	0	0	
8	0	0	0	0	487	511	0	0	
9	0	0	0	0	487	508	0	0	
10	0	0	0	0	487	513	0	0	
11	0	0	0	0	487	510	0	0	
12	0	0	0	0	483	505	0	0	
13	0	0	0	0	476	510	0	0	
14	0	0	0	0	470	508	0	0	
15	0	0	0	0	467	508	0	0	
0	0	0	0	0	463	504	0	0	
1	0	0	0	0	463	504	0	0	
2	0	0	0	0	463	510	0	0	
3	0	0	0	0	463	511	0	0	
4	0	0	0	0	463	511	0	0	
5	0	0	0	0	467	508	0	0	
6	0	0	0	0	476	511	0	0	
7	0	0	0	0	481	511	0	0	
8	0	0	0	0	480	510	0	0	
9	0	0	0	0	480	508	0	0	
10	0	0	0	0	481	508	0	0	
11	0	0	0	0	483	510	0	0	
12	0	0	0	0	480	512	0	0	
13	0	0	0	0	480	511	0	0	
14	0	0	0	0	476	508	0	0	
15	0	0	0	0	476	511	0	0	
0	0	0	0	0	472	508	0	0	
1	0	0	0	0	467	504	0	0	
2	0	0	0	0	463	504	0	0	
3	0	0	0	0	463	510	0	0	
4	0	0	0	0	463	511	0	0	
5	0	0	0	0	463	508	0	0	
6	0	0	0	0	463	510	0	0	
7	0	0	0	0	463	510	0	0	
8	0	0	0	0	470	511	0	0	
9	0	0	0	0	473	508	0	0	
10	0	0	0	0	478	513	0	0	
11	0	0	0	0	480	512	0	0	
12	0	0	0	0	480	511	0	0	
13	0	0	0	0	480	510	0	0	
14	0	0	0	0	480	510	0	0	
15	0	0	0	0	480	510	0	0	
0	0	0	0	0	480	511	0	0	
1	0	0	0	0	481	512	0	0	
2	0	0	0	0	478	508	0	0	
3	0	0	0	0	472	508	0	0	
4	0	0	0	0	472	508	0	0	
5	0	0	0	0	472	510	0	0	
6	0	0	0	0	472	511	0	0	
7	0	0	0	0	467	511	0	0	
8	0	0	0	0	472	504	0	0	
9	0	0	0	0	472	510	0	0	
10	0	0	0	0	472	511	0	0	
11	0	0	0	0	472	512	0	0	
12	0	0	0	0	480	512	0	0	
13	0	0	0	0	483	511	0	0	
14	0	0	0	0	478	510	0	0	
15	0	0	0	0	476	510	0	0	
0	0	0	0	0	483	510	0	0	
1	0	0	0	0	483	508	0	0	
2	0	0	0	0	487	510	0	0	
3	0	0	0	0	480	510	0	0	
4	0	0	0	0	483	510	0	0	
5	0	0	0	0	492	510	0	0	
6	0	0	0	0	487	508	0	0	
7	0	0	0	0	486	511	0	0	
8	0	0	0	0	487	511	0	0	
9	0	0	0	0	480	510	0	0	
10	0	0	0	0	472	508	0	0	
11	0	0	0	0	463	508	0	0	
12	0	0	0	0	465	508	0	0	
13	0	0	0	0	467	508	0	0	
14	0	0	0	0	467	511	0	0	
15	0	0	0	0	467	508	0	0	
0	0	0	0	0	463	511	0	0	
1	0	0	0	0	463	510	0	0	
2	0	0	0	0	472	511	0	0	
3	0	0	0	0	476	512	0	0	
4	0	0	0	0	476	510	0	0	
5	0	0	0	0	480	512	0	0	
6	0	0	0	0	478	511	0	0	
7	0	0	0	0	472	511	0	0	
8	0	0	0	0	472	513	0	0	
9	0	0	0	0	480	508	0	0	
10	0	0	0	0	483	511	0	0	
11	0	0	0	0	492	511	0	0	
12	0	0	0	0	487	511	0	0	
13	0	0	0	0	481	508	0	0	
14	0	0	0	0	480	510	0	0	
15	0	0	0	0	478	510	0	0	
0	0	0	0	0	472	510	0	0	
1	0	0	0	0	467	508	0	0	
2	0	0	0	0	467	510	0	0	
3	0	0	0	0	467	508	0	0	
4	0	0	0	0	467	505	0	0	
5	0	0	0	0	472	511	0	0	
6	0	0	0	0	476	512	0	0	
7	0	0	0	0	476	510	0	0	
8	0	0	0	0	472	508	0	0	
9	0	0	0	0	467	511	0	0	
10	0	0	0	0	467	511	0	0	
11	0	0	0	0	467	512	0	0	
12	0	0	0	0	473	511	0	0	
13	0	0	0	0	478	510	0	0	
14	0	0	0	0	476	511	0	0	
15	0	0	0	0	472	505	0	0	
0	0	0	0	0	467	508	0	0	
1	0	0	0	0	463	508	0	0	
2	0	0	0	0	463	508	0	0	
3	0	0	0	0	463	508	0	0	
4	0	0	0	0	460	508	0	0	
5	0	0	0	0	463	508	0	0	
6	0	0	0	0	467	508	0	0	
7	0	0	0	0	472	510	0	0	
8	0	0	0	0	472	511	0	0	
9	0	0	0	0	476	512	0	0	
10	0	0	0	0	480	511	0	0	
11	0	0	0	0	481	512	0	0	
12	0	0	0	0	483	512	0	0	
13	0	0	0	0	481	511	0	0	
14	0	0	0	0	483	510	0	0	
15	0	0	0	0	487	511	0	0	
0	0	0	0	0	481	511	0	0	
1	0	0	0	0	476	508	0	0	
2	0	0	0	0	478	508	0	0	
3	0	0	0	0	480	510	0	0	
4	0	0	0	0	478	508	0	0	
5	0	0	0	0	472	508	0	0	
6	0	0	0	0	472	508	0	0	
7	0	0	0	0	472	508	0	0	
8	0	0	0	0	467	508	0	0	
9	0	0	0	0	465	508	0	0	
10	0	0	0	0	465	504	0	0	
11	0	0	0	0	465	508	0	0	
12	0	0	0	0	465	512	0	0	
13	0	0	0	0	472	515	0	0	
14	0	0	0	0	472	513	0	0	
15	0	0	0	0	476	511	0	0	
0	0	0	0	0	478	513	0	0	
1	0	0	0	0	480	512	0	0	
2	0	0	0	0	481	511	0	0	
3	0	0	0	0	481	511	0	0	
4	0	0	0	0	480	508	0	0	
5	0	0	0	0	480	510	0	0	
6	0	0	0	0	480	508	0	0	
7	0	0	0	0	476	508	0	0	
8	0	0	0	0	476	508	0	0	
9	0	0	0	0	478	504	0	0	
10	0	0	0	0	472	510	0	0	
11	0	0	0	0	470	508	0	0	
12	0	0	0	0	465	508	0	0	
13	0	0	0	0	463	508	0	0	
14	0	0	0	0	463	508	0	0	
15	0	0	0	0	467	510	0	0	
0	0	0	0	0	472	508	0	0	
1	0	0	0	0	476	511	0	0	
2	0	0	0	0	480	513	0	0	
3	0	0	0	0	487	512	0	0	
4	0	0	0	0	481	510	0	0	
5	0	0	0	0	480	510	0	0	
6	0	0	0	0	487	508	0	0	
7	0	0	0	0	487	510	0	0	
8	0	0	0	0	492	508	0	0	
9	0	0	0	0	487	510	0	0	
10	0	0	0	0	483	508	0	0	
11	0	0	0	0	480	510	0	0	
12	0	0	0	0	476	512	0	0	
13	0	0	0	0	472	511	0	0	
14	0	0	0	0	467	512	0	0	
15	0	0	0	0	463	512	0	0	
0	0	0	0	0	462	510	0	0	
1	0	0	0	0	465	510	0	0	
2	0	0	0	0	463	510	0	0	
3	0	0	0	0	467	510	0	0	
4	0	0	0	0	472	510	0	0	
5	0	0	0	0	472	511	0	0	
6	0	0	0	0	472	511	0	0	
7	0	0	0	0	476	511	0	0	
8	0	0	0	0	486	512	0	0	
9	0	0	0	0	492	508	0	0	
10	0	0	0	0	487	510	0	0	
11	0	0	0	0	483	508	0	0	
12	0	0	0	0	480	510	0	0	
13	0	0	0	0	481	512	0	0	
14	0	0	0	0	480	510	0	0	
15	0	0	0	0	478	508	0	0	
0	0	0	0	0	478	508	0	0	
1	0	0	0	0	473	508	0	0	
2	0	0	0	0	472	510	0	0	
3	0	0	0	0	463	510	0	0	
4	0	0	0	0	463	508	0	0	
5	0	0	0	0	467	508	0	0	
6	0	0	0	0	467	508	0	0	
7	0	0	0	0	472	510	0	0	
8	0	0	0	0	478	508	0	0	
9	0	0	0	0	480	510	0	0	
10	0	0	0	0	480	511	0	0	
11	0	0	0	0	478	511	0	0	
12	0	0	0	0	480	510	0	0	
13	0	0	0	0	480	511	0	0	
14	0	0	0	0	480	510	0	0	
15	0	0	0	0	481	508	0	0	
0	0	0	0	0	487	510	0	0	
1	0	0	0	0	483	512	0	0	
2	0	0	0	0	480	510	0	0	
3	0	0	0	0	480	504	0	0	
4	0	0	0	0	478	508	0	0	
5	0	0	0	0	472	510	0	0	
6	0	0	0	0	465	508	0	0	
7	0	0	0	0	467	511	0	0	
8	0	0	0	0	467	508	0	0	
9	0	0	0	0	467	508	0	0	
10	0	0	0	0	462	508	0	0	
11	0	0	0	0	462	510	0	0	
12	0	0	0	0	467	511	0	0	
13	0	0	0	0	463	510	0	0	
14	0	0	0	0	467	512	0	0	
15	0	0	0	0	476	511	0	0	
0	0	0	0	0	480	511	0	0	
1	0	0	0	0	483	511	0	0	
2	0	0	0	0	487	508	0	0	
3	0	0	0	0	487	508	0	0	
4	0	0	0	0	487	508	0	0	
5	0	0	0	0	487	511	0	0	
6	0	0	0	0	486	511	0	0	
7	0	0	0	0	476	511	0	0	
8	0	0	0	0	472	512	0	0	
9	0	0	0	0	470	511	0	0	
10	0	0	0	0	472	510	0	0	
11	0	0	0	0	472	508	0	0	
12	0	0	0	0	472	508	0	0	
13	0	0	0	0	463	508	0	0	
14	0	0	0	0	462	511	0	0	
15	0	0	0	0	455	512	0	0	
0	0	0	0	0	462	510	0	0	
1	0	0	0	0	472	508	0	0	
2	0	0	0	0	472	508	0	0	
3	0	0	0	0	476	515	0	0	
4	0	0	0	0	480	512	0	0	
5	0	0	0	0	483	508	0	0	
6	0	0	0	0	483	508	0	0	
7	0	0	0	0	480	510	0	0	
8	0	0	0	0	480	515	0	0	
9	0	0	0	0	483	510	0	0	
10	0	0	0	0	487	512	0	0	
11	0	0	0	0	483	508	0	0	
12	0	0	0	0	483	510	0	0	
13	0	0	0	0	480	508	0	0	
14	0	0	0	0	478	508	0	0	
15	0	0	0	0	472	508	0	0	
0	0	0	0	0	467	504	0	0	
1	0	0	0	0	467	508	0	0	
2	0	0	0	0	460	508	0	0	
3	0	0	0	0	455	508	0	0	
4	0	0	0	0	455	508	0	0	
5	0	0	0	0	463	510	0	0	
6	0	0	0	0	463	510	0	0	
7	0	0	0	0	472	511	0	0	
8	0	0	0	0	483	512	0	0	
9	0	0	0	0	483	511	0	0	
10	0	0	0	0	487	511	0	0	
11	0	0	0	0	486	512	0	0	
12	0	0	0	0	492	510	0	0	
13	0	0	0	0	487	519	0	0	
14	0	0	0	0	486	512	0	0	
15	0	0	0	0	473	508	0	0	
0	0	0	0	0	472	504	0	0	
1	0	0	0	0	476	505	0	0	
2	0	0	0	0	480	508	0	0	
3	0	0	0	0	472	504	0	0	
4	0	0	0	0	467	504	0	0	
5	0	0	0	0	467	508	0	0	
6	0	0	0	0	463	512	0	0	
7	0	0	0	0	460	510	0	0	
8	0	0	0	0	463	511	0	0	
9	0	0	0	0	473	515	0	0	
10	0	0	0	0	480	515	0	0	
11	0	0	0	0	480	512	0	0	
12	0	0	0	0	487	512	0	0	
13	0	0	0	0	486	510	0	0	
14	0	0	0	0	486	508	0	0	
15	0	0	0	0	486	508	0	0	
0	0	0	0	0	483	510	0	0	
1	0	0	0	0	472	510	0	0	
2	0	0	0	0	473	504	0	0	
3	0	0	0	0	472	504	0	0	
4	0	0	0	0	472	504	0	0	
5	0	0	0	0	480	511	0	0	
6	0	0	0	0	480	512	0	0	
7	0	0	0	0	473	512	0	0	
8	0	0	0	0	463	508	0	0	
9	0	0	0	0	463	508	0	0	
10	0	0	0	0	463	508	0	0	
11	0	0	0	0	463	510	0	0	
12	0	0	0	0	470	508	0	0	
13	0	0	0	0	476	511	0	0	
14	0	0	0	0	476	511	0	0	
15	0	0	0	0	480	508	0	0	
0	0	0	0	0	480	508	0	0	
1	0	0	0	0	480	512	0	0	
2	0	0	0	0	481	512	0	0	
3	0	0	0	0	480	510	0	0	
4	0	0	0	0	480	508	0	0	
5	0	0	0	0	480	508	0	0	
6	0	0	0	0	476	508	0	0	
7	0	0	0	0	476	508	0	0	
8	0	0	0	0	472	508	0	0	
9	0	0	0	0	472	505	0	0	
10	0	0	0	0	467	508	0	0	
11	0	0	0	0	463	508	0	0	
12	0	0	0	0	462	511	0	0	
13	0	0	0	0	463	510	0	0	
14	0	0	0	0	472	508	0	0	
15	0	0	0	0	476	515	0	0	
0	0	0	0	0	480	512	0	0	
1	0	0	0	0	478	512	0	0	
2	0	0	0	0	476	513	0	0	
3	0	0	0	0	480	511	0	0	
4	0	0	0	0	480	512	0	0	
5	0	0	0	0	480	511	0	0	
6	0	0	0	0	481	512	0	0	
7	0	0	0	0	480	512	0	0	
8	0	0	0	0	487	508	0	0	
9	0	0	0	0	481	513	0	0	
10	0	0	0	0	481	511	0	0	
11	0	0	0	0	478	508	0	0	
12	0	0	0	0	472	510	0	0	
13	0	0	0	0	472	508	0	0	
14	0	0	0	0	472	508	0	0	
15	0	0	0	0	467	508	0	0	
0	0	0	0	0	465	508	0	0	
1	0	0	0	0	472	508	0	0	
2	0	0	0	0	465	515	0	0	
3	0	0	0	0	465	511	0	0	
4	0	0	0	0	472	511	0	0	
5	0	0	0	0	467	510	0	0	
6	0	0	0	0	472	510	0	0	
7	0	0	0	0	476	510	0	0	
8	0	0	0	0	478	512	0	0	
9	0	0	0	0	480	513	0	0	
10	0	0	0	0	487	510	0	0	
11	0	0	0	0	480	508	0	0	
12	0	0	0	0	481	511	0	0	
13	0	0	0	0	480	510	0	0	
14	0	0	0	0	480	508	0	0	
15	0	0	0	0	480	510	0	0	
0	0	0	0	0	476	508	0	0	
1	0	0	0	0	476	504	0	0	
2	0	0	0	0	472	511	0	0	
3	0	0	0	0	465	505	0	0	
4	0	0	0	0	462	505	0	0	
5	0	0	0	0	462	510	0	0	
6	0	0	0	0	462	508	0	0	
7	0	0	0	0	462	508	0	0	
8	0	0	0	0	467	510	0	0	
9	0	0	0	0	470	510	0	0	
10	0	0	0	0	472	511	0	0	
11	0	0	0	0	472	510	0	0	
12	0	0	0	0	476	508	0	0	
13	0	0	0	0	480	512	0	0	
14	0	0	0	0	480	512	0	0	
15	0	0	0	0	483	510	0	0	
0	0	0	0	0	481	504	0	0	
1	0	0	0	0	480	504	0	0	
2	0	0	0	0	481	505	0	0	
3	0	0	0	0	483	512	0	0	
4	0	0	0	0	480	511	0	0	
5	0	0	0	0	480	508	0	0	
6	0	0	0	0	476	512	0	0	
7	0	0	0	0	472	511	0	0	
8	0	0	0	0	472	510	0	0	
9	0	0	0	0	472	510	0	0	
10	0	0	0	0	467	508	0	0	
11	0	0	0	0	467	508	0	0	
12	0	0	0	0	472	508	0	0	
13	0	0	0	0	472	511	0	0	
14	0	0	0	0	472	512	0	0	
15	0	0	0	0	472	511	0	0	
0	0	0	0	0	472	512	0	0	
1	0	0	0	0	472	511	0	0	
2	0	0	0	0	476	511	0	0	
3	0	0	0	0	483	512	0	0	
4	0	0	0	0	480	513	0	0	
5	0	0	0	0	480	508	0	0	
6	0	0	0	0	483	508	0	0	
7	0	0	0	0	487	504	0	0	
8	0	0	0	0	483	504	0	0	
9	0	0	0	0	480	504	0	0	
10	0	0	0	0	476	505	0	0	
11	0	0	0	0	473	510	0	0	
12	0	0	0	0	463	508	0	0	
13	0	0	0	0	462	508	0	0	
14	0	0	0	0	463	504	0	0	
15	0	0	0	0	462	508	0	0	
0	0	0	0	0	463	510	0	0	
1	0	0	0	0	467	510	0	0	
2	0	0	0	0	472	508	0	0	
3	0	0	0	0	480	508	0	0	
4	0	0	0	0	480	508	0	0	
5	0	0	0	0	480	511	0	0	
6	0	0	0	0	480	508	0	0	
7	0	0	0	0	480	511	0	0	
8	0	0	0	0	480	508	0	0	
9	0	0	0	0	480	511	0	0	
10	0	0	0	0	481	510	0	0	
11	0	0	0	0	481	508	0	0	
12	0	0	0	0	476	508	0	0	
13	0	0	0	0	476	508	0	0	
14	0	0	0	0	473	508	0	0	
15	0	0	0	0	472	508	0	0	
0	0	0	0	0	472	510	0	0	
1	0	0	0	0	472	508	0	0	
2	0	0	0	0	465	511	0	0	
3	0	0	0	0	460	511	0	0	
4	0	0	0	0	451	511	0	0	
5	0	0	0	0	455	512	0	0	
6	0	0	0	0	472	511	0	0	
7	0	0	0	0	472	508	0	0	
8	0	0	0	0	476	515	0	0	
9	0	0	0	0	487	513	0	0	
10	0	0	0	0	487	511	0	0	
11	0	0	0	0	487	510	0	0	
12	0	0	0	0	487	511	0	0	
13	0	0	0	0	487	508	0	0	
14	0	0	0	0	486	508	0	0	
15	0	0	0	0	480	508	0	0	
0	0	0	0	0	478	508	0	0	
1	0	0	0	0	472	511	0	0	
2	0	0	0	0	467	510	0	0	
3	0	0	0	0	463	511	0	0	
4	0	0	0	0	472	508	0	0	
5	0	0	0	0	472	505	0	0	
6	0	0	0	0	463	508	0	0	
7	0	0	0	0	467	508	0	0	
8	0	0	0	0	472	508	0	0	
9	0	0	0	0	476	510	0	0	
10	0	0	0	0	480	508	0	0	
11	0	0	0	0	480	512	0	0	
12	0	0	0	0	480	510	0	0	
13	0	0	0	0	481	512	0	0	
14	0	0	0	0	480	511	0	0	
15	0	0	0	0	483	511	0	0	
0	0	0	0	0	481	515	0	0	
1	0	0	0	0	478	512	0	0	
2	0	0	0	0	476	511	0	0	
3	0	0	0	0	472	510	0	0	
4	0	0	0	0	480	510	0	0	
5	0	0	0	0	480	512	0	0	
6	0	0	0	0	478	511	0	0	
7	0	0	0	0	476	510	0	0	
8	0	0	0	0	467	508	0	0	
9	0	0	0	0	463	508	0	0	
10	0	0	0	0	463	504	0	0	
11	0	0	0	0	455	508	0	0	
12	0	0	0	0	455	508	0	0	
13	0	0	0	0	467	511	0	0	
14	0	0	0	0	478	515	0	0	
15	0	0	0	0	483	515	0	0	
0	0	0	0	0	487	512	0	0	
1	0	0	0	0	487	513	0	0	
2	0	0	0	0	487	511	0	0	
3	0	0	0	0	487	511	0	0	
4	0	0	0	0	483	508	0	0	
5	0	0	0	0	483	508	0	0	
6	0	0	0	0	483	505	0	0	
7	0	0	0	0	480	508	0	0	
8	0	0	0	0	476	519	0	0	
9	0	0	0	0	472	512	0	0	
10	0	0	0	0	472	510	0	0	
11	0	0	0	0	472	505	0	0	
12	0	0	0	0	463	505	0	0	
13	0	0	0	0	463	510	0	0	
14	0	0	0	0	463	508	0	0	
15	0	0	0	0	463	510	0	0	
0	0	0	0	0	472	511	0	0	
1	0	0	0	0	472	510	0	0	
2	0	0	0	0	473	508	0	0	
3	0	0	0	0	476	508	0	0	
4	0	0	0	0	480	510	0	0	
5	0	0	0	0	487	512	0	0	
6	0	0	0	0	487	510	0	0	
7	0	0	0	0	481	510	0	0	
8	0	0	0	0	486	508	0	0	
9	0	0	0	0	480	508	0	0	
10	0	0	0	0	480	510	0	0	
11	0	0	0	0	480	508	0	0	
12	0	0	0	0	476	508	0	0	
13	0	0	0	0	472	510	0	0	
14	0	0	0	0	472	508	0	0	
15	0	0	0	0	472	505	0	0	
0	0	0	0	0	467	504	0	0	
1	0	0	0	0	465	508	0	0	
2	0	0	0	0	467	508	0	0	
3	0	0	0	0	472	508	0	0	
4	0	0	0	0	472	508	0	0	
5	0	0	0	0	473	508	0	0	
6	0	0	0	0	472	511	0	0	
7	0	0	0	0	472	512	0	0	
8	0	0	0	0	472	512	0	0	
9	0	0	0	0	476	513	0	0	
10	0	0	0	0	476	508	0	0	
11	0	0	0	0	472	510	0	0	
12	0	0	0	0	476	511	0	0	
13	0	0	0	0	483	510	0	0	
14	0	0	0	0	481	508	0	0	
15	0	0	0	0	480	508	0	0	
0	0	0	0	0	480	510	0	0	
1	0	0	0	0	480	511	0	0	
2	0	0	0	0	480	511	0	0	
3	0	0	0	0	472	508	0	0	
4	0	0	0	0	467	508	0	0	
5	0	0	0	0	467	512	0	0	
6	0	0	0	0	472	512	0	0	
7	0	0	0	0	472	508	0	0	
8	0	0	0	0	472	511	0	0	
9	0	0	0	0	472	512	0	0	
10	0	0	0	0	476	511	0	0	
11	0	0	0	0	480	508	0	0	
12	0	0	0	0	480	511	0	0	
13	0	0	0	0	483	510	0	0	
14	0	0	0	0	481	511	0	0	
15	0	0	0	0	476	512	0	0	
0	0	0	0	0	476	512	0	0	
1	0	0	0	0	476	510	0	0	
2	0	0	0	0	473	510	0	0	
3	0	0	0	0	476	508	0	0	
4	0	0	0	0	476	508	0	0	
5	0	0	0	0	476	508	0	0	
6	0	0	0	0	472	508	0	0	
7	0	0	0	0	472	508	0	0	
8	0	0	0	0	472	511	0	0	
9	0	0	0	0	467	511	0	0	
10	0	0	0	0	472	508	0	0	
11	0	0	0	0	463	508	0	0	
12	0	0	0	0	462	510	0	0	
13	0	0	0	0	470	510	0	0	
14	0	0	0	0	472	511	0	0	
15	0	0	0	0	476	508	0	0	
0	0	0	0	0	483	511	0	0	
1	0	0	0	0	487	511	0	0	
2	0	0	0	0	487	510	0	0	
3	0	0	0	0	483	511	0	0	
4	0	0	0	0	480	515	0	0	
5	0	0	0	0	480	511	0	0	
6	0	0	0	0	476	508	0	0	
7	0	0	0	0	472	510	0	0	
8	0	0	0	0	472	511	0	0	
9	0	0	0	0	472	508	0	0	
10	0	0	0	0	467	511	0	0	
11	0	0	0	0	472	508	0	0	
12	0	0	0	0	472	505	0	0	
13	0	0	0	0	463	510	0	0	
14	0	0	0	0	463	508	0	0	
15	0	0	0	0	463	510	0	0	
0	0	0	0	0	465	508	0	0	
1	0	0	0	0	472	508	0	0	
2	0	0	0	0	476	511	0	0	
3	0	0	0	0	476	513	0	0	
4	0	0	0	0	480	513	0	0	
5	0	0	0	0	483	511	0	0	
6	0	0	0	0	483	513	0	0	
7	0	0	0	0	480	513	0	0	
8	0	0	0	0	480	511	0	0	
9	0	0	0	0	483	508	0	0	
10	0	0	0	0	480	508	0	0	
11	0	0	0	0	476	504	0	0	
12	0	0	0	0	472	510	0	0	
13	0	0	0	0	476	508	0	0	
14	0	0	0	0	476	511	0	0	
15	0	0	0	0	472	510	0	0	
0	0	0	0	0	467	508	0	0	
1	0	0	0	0	472	508	0	0	
2	0	0	0	0	472	508	0	0	
3	0	0	0	0	472	508	0	0	
4	0	0	0	0	476	513	0	0	
5	0	0	0	0	476	511	0	0	
6	0	0	0	0	473	508	0	0	
7	0	0	0	0	472	508	0	0	
8	0	0	0	0	472	510	0	0	
9	0	0	0	0	480	511	0	0	
10	0	0	0	0	480	512	0	0	
11	0	0	0	0	487	508	0	0	
12	0	0	0	0	487	505	0	0	
13	0	0	0	0	487	511	0	0	
14	0	0	0	0	487	510	0	0	
15	0	0	0	0	487	508	0	0	
0	0	0	0	0	478	508	0	0	
1	0	0	0	0	472	511	0	0	
2	0	0	0	0	472	508	0	0	
3	0	0	0	0	472	508	0	0	
4	0	0	0	0	472	505	0	0	
5	0	0	0	0	472	508	0	0	
6	0	0	0	0	465	510	0	0	
7	0	0	0	0	465	512	0	0	
8	0	0	0	0	467	513	0	0	
9	0	0	0	0	472	511	0	0	
10	0	0	0	0	472	512	0	0	
11	0	0	0	0	480	512	0	0	
12	0	0	0	0	481	508	0	0	
13	0	0	0	0	481	512	0	0	
14	0	0	0	0	480	513	0	0	
15	0	0	0	0	476	511	0	0	
0	0	0	0	0	476	508	0	0	
1	0	0	0	0	480	505	0	0	
2	0	0	0	0	480	508	0	0	
3	0	0	0	0	473	508	0	0	
4	0	0	0	0	472	508	0	0	
5	0	0	0	0	472	508	0	0	
6	0	0	0	0	467	508	0	0	
7	0	0	0	0	467	508	0	0	
8	0	0	0	0	465	508	0	0	
9	0	0	0	0	463	510	0	0	
10	0	0	0	0	463	511	0	0	
11	0	0	0	0	472	508	0	0	
12	0	0	0	0	476	508	0	0	
13	0	0	0	0	480	511	0	0	
14	0	0	0	0	478	512	0	0	
15	0	0	0	0	476	508	0	0	
0	0	0	0	0	481	504	0	0	
1	0	0	0	0	483	510	0	0	
2	0	0	0	0	487	512	0	0	
3	0	0	0	0	483	512	0	0	
4	0	0	0	0	480	513	0	0	
5	0	0	0	0	478	510	0	0	
6	0	0	0	0	476	508	0	0	
7	0	0	0	0	476	510	0	0	
8	0	0	0	0	476	508	0	0	
9	0	0	0	0	472	508	0	0	
10	0	0	0	0	467	508	0	0	
11	0	0	0	0	463	508	0	0	
12	0	0	0	0	463	510	0	0	
13	0	0	0	0	467	508	0	0	
14	0	0	0	0	463	505	0	0	
15	0	0	0	0	463	510	0	0	
0	0	0	0	0	467	511	0	0	
1	0	0	0	0	480	512	0	0	
2	0	0	0	0	480	510	0	0	
3	0	0	0	0	480	511	0	0	
4	0	0	0	0	483	512	0	0	
5	0	0	0	0	487	511	0	0	
6	0	0	0	0	487	511	0	0	
7	0	0	0	0	487	508	0	0	
8	0	0	0	0	487	515	0	0	
9	0	0	0	0	487	513	0	0	
10	0	0	0	0	486	512	0	0	
11	0	0	0	0	481	511	0	0	
12	0	0	0	0	483	505	0	0	
13	0	0	0	0	480	504	0	0	
14	0	0	0	0	463	511	0	0	
15	0	0	0	0	451	508	0	0	
0	0	0	0	0	448	508	0	0	
1	0	0	0	0	440	508	0	0	
2	0	0	0	0	448	511	0	0	
3	0	0	0	0	455	512	0	0	
4	0	0	0	0	465	508	0	0	
5	0	0	0	0	467	510	0	0	
6	0	0	0	0	476	510	0	0	
7	0	0	0	0	480	511	0	0	
8	0	0	0	0	476	511	0	0	
9	0	0	0	0	480	511	0	0	
10	0	0	0	0	480	511	0	0	
11	0	0	0	0	480	511	0	0	
12	0	0	0	0	480	508	0	0	
13	0	0	0	0	483	510	0	0	
14	0	0	0	0	487	508	0	0	
15	0	0	0	0	487	505	0	0	
0	0	0	0	0	483	508	0	0	
1	0	0	0	0	481	510	0	0	
2	0	0	0	0	480	508	0	0	
3	0	0	0	0	476	505	0	0	
4	0	0	0	0	472	508	0	0	
5	0	0	0	0	467	508	0	0	
6	0	0	0	0	472	511	0	0	
7	0	0	0	0	472	511	0	0	
8	0	0	0	0	472	508	0	0	
9	0	0	0	0	472	510	0	0	
10	0	0	0	0	472	512	0	0	
11	0	0	0	0	480	511	0	0	
12	0	0	0	0	483	511	0	0	
13	0	0	0	0	483	511	0	0	
14	0	0	0	0	483	510	0	0	
15	0	0	0	0	480	512	0	0	
0	0	0	0	0	476	511	0	0	
1	0	0	0	0	476	508	0	0	
2	0	0	0	0	478	508	0	0	
3	0	0	0	0	476	508	0	0	
4	0	0	0	0	480	508	0	0	
5	0	0	0	0	483	508	0	0	
6	0	0	0	0	480	510	0	0	
7	0	0	0	0	472	508	0	0	
8	0	0	0	0	463	508	0	0	
9	0	0	0	0	463	510	0	0	
10	0	0	0	0	463	510	0	0	
11	0	0	0	0	463	508	0	0	
12	0	0	0	0	467	508	0	0	
13	0	0	0	0	476	512	0	0	
14	0	0	0	0	480	515	0	0	
15	0	0	0	0	480	513	0	0	
0	0	0	0	0	486	512	0	0	
1	0	0	0	0	487	511	0	0	
2	0	0	0	0	492	508	0	0	
3	0	0	0	0	487	508	0	0	
4	0	0	0	0	487	510	0	0	
5	0	0	0	0	483	508	0	0	
6	0	0	0	0	480	511	0	0	
7	0	0	0	0	480	511	0	0	
8	0	0	0	0	472	508	0	0	
9	0	0	0	0	470	508	0	0	
10	0	0	0	0	465	510	0	0	
11	0	0	0	0	467	511	0	0	
12	0	0	0	0	465	510	0	0	
13	0	0	0	0	463	508	0	0	
14	0	0	0	0	467	504	0	0	
15	0	0	0	0	467	510	0	0	
0	0	0	0	0	472	510	0	0	
1	0	0	0	0	472	508	0	0	
2	0	0	0	0	476	508	0	0	
3	0	0	0	0	480	508	0	0	
4	0	0	0	0	480	511	0	0	
5	0	0	0	0	483	513	0	0	
6	0	0	0	0	487	511	0	0	
7	0	0	0	0	494	511	0	0	
8	0	0	0	0	496	508	0	0	
9	0	0	0	0	494	510	0	0	
10	0	0	0	0	487	511	0	0	
11	0	0	0	0	483	504	0	0	
12	0	0	0	0	480	505	0	0	
13	0	0	0	0	472	511	0	0	
14	0	0	0	0	463	510	0	0	
15	0	0	0	0	467	515	0	0	
0	0	0	0	0	460	511	0	0	
1	0	0	0	0	455	508	0	0	
2	0	0	0	0	455	508	0	0	
3	0	0	0	0	460	508	0	0	
4	0	0	0	0	463	510	0	0	
5	0	0	0	0	467	512	0	0	
6	0	0	0	0	472	512	0	0	
7	0	0	0	0	472	511	0	0	
8	0	0	0	0	480	511	0	0	
9	0	0	0	0	486	511	0	0	
10	0	0	0	0	487	508	0	0	
11	0	0	0	0	487	510	0	0	
12	0	0	0	0	483	512	0	0	
13	0	0	0	0	480	510	0	0	
14	0	0	0	0	480	508	0	0	
15	0	0	0	0	476	504	0	0	
0	0	0	0	0	472	508	0	0	
1	0	0	0	0	472	508	0	0	
2	0	0	0	0	472	508	0	0	
3	0	0	0	0	472	508	0	0	
4	0	0	0	0	472	508	0	0	
5	0	0	0	0	472	511	0	0	
6	0	0	0	0	472	515	0	0	
7	0	0	0	0	467	510	0	0	
8	0	0	0	0	463	510	0	0	
9	0	0	0	0	463	508	0	0	
10	0	0	0	0	465	513	0	0	
11	0	0	0	0	472	511	0	0	
12	0	0	0	0	472	508	0	0	
13	0	0	0	0	472	508	0	0	
14	0	0	0	0	467	515	0	0	
15	0	0	0	0	476	511	0	0	
0	0	0	0	0	476	508	0	0	
1	0	0	0	0	478	508	0	0	
2	0	0	0	0	480	508	0	0	
3	0	0	0	0	483	508	0	0	
4	0	0	0	0	483	505	0	0	
5	0	0	0	0	480	504	0	0	
6	0	0	0	0	472	504	0	0	
7	0	0	0	0	465	511	0	0	
8	0	0	0	0	463	510	0	0	
9	0	0	0	0	463	510	0	0	
10	0	0	0	0	463	510	0	0	
11	0	0	0	0	467	511	0	0	
12	0	0	0	0	473	510	0	0	
13	0	0	0	0	476	511	0	0	
14	0	0	0	0	478	512	0	0	
15	0	0	0	0	480	512	0	0	
0	0	0	0	0	480	511	0	0	
1	0	0	0	0	481	510	0	0	
2	0	0	0	0	487	508	0	0	
3	0	0	0	0	492	510	0	0	
4	0	0	0	0	492	508	0	0	
5	0	0	0	0	492	510	0	0	
6	0	0	0	0	483	508	0	0	
7	0	0	0	0	481	508	0	0	
8	0	0	0	0	478	508	0	0	
9	0	0	0	0	476	508	0	0	
10	0	0	0	0	472	511	0	0	
11	0	0	0	0	472	508	0	0	
12	0	0	0	0	465	510	0	0	
13	0	0	0	0	460	510	0	0	
14	0	0	0	0	462	511	0	0	
15	0	0	0	0	463	511	0	0	
0	0	0	0	0	463	512	0	0	
1	0	0	0	0	476	515	0	0	
2	0	0	0	0	480	515	0	0	
3	0	0	0	0	483	510	0	0	
4	0	0	0	0	481	508	0	0	
5	0	0	0	0	480	508	0	0	
6	0	0	0	0	480	511	0	0	
7	0	0	0	0	487	511	0	0	
8	0	0	0	0	487	511	0	0	
9	0	0	0	0	483	510	0	0	
10	0	0	0	0	487	512	0	0	
11	0	0	0	0	487	511	0	0	
12	0	0	0	0	483	508	0	0	
13	0	0	0	0	472	511	0	0	
14	0	0	0	0	472	512	0	0	
15	0	0	0	0	472	511	0	0	
0	0	0	0	0	472	510	0	0	
1	0	0	0	0	472	504	0	0	
2	0	0	0	0	463	511	0	0	
3	0	0	0	0	462	508	0	0	
4	0	0	0	0	463	512	0	0	
5	0	0	0	0	467	511	0	0	
6	0	0	0	0	476	511	0	0	
7	0	0	0	0	480	512	0	0	
8	0	0	0	0	480	511	0	0	
9	0	0	0	0	480	511	0	0	
10	0	0	0	0	480	510	0	0	
11	0	0	0	0	476	508	0	0	
12	0	0	0	0	480	505	0	0	
13	0	0	0	0	487	505	0	0	
14	0	0	0	0	483	508	0	0	
15	0	0	0	0	480	508	0	0	
0	0	0	0	0	476	508	0	0	
1	0	0	0	0	467	505	0	0	
2	0	0	0	0	467	505	0	0	
3	0	0	0	0	472	505	0	0	
4	0	0	0	0	472	510	0	0	
5	0	0	0	0	472	511	0	0	
6	0	0	0	0	463	512	0	0	
7	0	0	0	0	463	510	0	0	
8	0	0	0	0	467	504	0	0	
9	0	0	0	0	472	508	0	0	
10	0	0	0	0	476	511	0	0	
11	0	0	0	0	480	508	0	0	
12	0	0	0	0	486	511	0	0	
13	0	0	0	0	487	511	0	0	
14	0	0	0	0	487	511	0	0	
15	0	0	0	0	487	510	0	0	
0	0	0	0	0	487	504	0	0	
1	0	0	0	0	480	504	0	0	
2	0	0	0	0	478	504	0	0	
3	0	0	0	0	472	504	0	0	
4	0	0	0	0	473	508	0	0	
5	0	0	0	0	467	512	0	0	
6	0	0	0	0	463	505	0	0	
7	0	0	0	0	462	511	0	0	
8	0	0	0	0	460	511	0	0	
9	0	0	0	0	463	515	0	0	
10	0	0	0	0	472	518	0	0	
11	0	0	0	0	472	512	0	0	
12	0	0	0	0	472	510	0	0	
13	0	0	0	0	480	511	0	0	
14	0	0	0	0	480	512	0	0	
15	0	0	0	0	483	511	0	0	
0	0	0	0	0	483	512	0	0	
1	0	0	0	0	483	511	0	0	
2	0	0	0	0	487	510	0	0	
3	0	0	0	0	483	508	0	0	
4	0	0	0	0	480	511	0	0	
5	0	0	0	0	476	508	0	0	
6	0	0	0	0	467	510	0	0	
7	0	0	0	0	463	510	0	0	
8	0	0	0	0	473	511	0	0	
9	0	0	0	0	476	512	0	0	
10	0	0	0	0	472	508	0	0	
11	0	0	0	0	467	510	0	0	
12	0	0	0	0	463	508	0	0	
13	0	0	0	0	463	508	0	0	
14	0	0	0	0	472	510	0	0	
15	0	0	0	0	467	508	0	0	
0	0	0	0	0	472	508	0	0	
1	0	0	0	0	467	508	0	0	
2	0	0	0	0	472	508	0	0	
3	0	0	0	0	476	511	0	0	
4	0	0	0	0	480	510	0	0	
5	0	0	0	0	480	510	0	0	
6	0	0	0	0	481	508	0	0	
7	0	0	0	0	489	512	0	0	
8	0	0	0	0	492	511	0	0	
9	0	0	0	0	487	512	0	0	
10	0	0	0	0	487	508	0	0	
11	0	0	0	0	487	511	0	0	
12	0	0	0	0	481	511	0	0	
13	0	0	0	0	480	508	0	0	
14	0	0	0	0	480	508	0	0	
15	0	0	0	0	476	510	0	0	
0	0	0	0	0	463	508	0	0	
1	0	0	0	0	462	510	0	0	
2	0	0	0	0	463	510	0	0	
3	0	0	0	0	463	508	0	0	
4	0	0	0	0	467	508	0	0	
5	0	0	0	0	463	508	0	0	
6	0	0	0	0	460	508	0	0	
7	0	0	0	0	465	508	0	0	
8	0	0	0	0	472	511	0	0	
9	0	0	0	0	480	511	0	0	
10	0	0	0	0	487	508	0	0	
