# OpenSignals Text File Format. Version 1
# {"20:18:06:13:21:78": {"position": 0, "device": "bitalino_rev", "device name": "20:18:06:13:21:78", "device connection": "BTH20:18:06:13:21:78", "sampling rate": 1000, "resolution": [4, 1, 1, 1, 1, 10, 10, 10, 10], "firmware version": 1281, "comments": "", "keywords": "", "mode": 0, "sync interval": 2, "date": "2023-6-5", "time": "19:45:27.158", "channels": [1, 2, 3, 4], "sensor": ["EMGBITREV", "EMGBITREV", "RAW", "RAW"], "label": ["A1", "A2", "A3", "A4"], "column": ["nSeq", "I1", "I2", "O1", "O2", "A1", "A2", "A3", "A4"], "special": [{}, {}, {}, {}], "digital IO": [0, 0, 1, 1]}}
# EndOfHeader
0	0	0	0	0	508	508	0	0	
1	0	0	0	0	509	508	0	0	
2	0	0	0	0	510	506	0	0	
3	0	0	0	0	510	505	0	0	
4	0	0	0	0	511	508	0	0	
5	0	0	0	0	511	511	0	0	
6	0	0	0	0	512	509	0	0	
7	0	0	0	0	513	508	0	0	
8	0	0	0	0	512	509	0	0	
9	0	0	0	0	512	508	0	0	
10	0	0	0	0	514	509	0	0	
11	0	0	0	0	511	509	0	0	
12	0	0	0	0	513	508	0	0	
13	0	0	0	0	511	509	0	0	
14	0	0	0	0	512	509	0	0	
15	0	0	0	0	511	508	0	0	
0	0	0	0	0	511	507	0	0	
1	0	0	0	0	510	509	0	0	
2	0	0	0	0	509	507	0	0	
3	0	0	0	0	508	508	0	0	
4	0	0	0	0	509	507	0	0	
5	0	0	0	0	509	507	0	0	
6	0	0	0	0	509	508	0	0	
7	0	0	0	0	508	508	0	0	
8	0	0	0	0	511	510	0	0	
9	0	0	0	0	511	508	0	0	
10	0	0	0	0	511	508	0	0	
11	0	0	0	0	512	507	0	0	
12	0	0	0	0	514	509	0	0	
13	0	0	0	0	511	508	0	0	
14	0	0	0	0	512	510	0	0	
15	0	0	0	0	512	507	0	0	
0	0	0	0	0	512	510	0	0	
1	0	0	0	0	513	507	0	0	
2	0	0	0	0	511	508	0	0	
3	0	0	0	0	509	508	0	0	
4	0	0	0	0	511	508	0	0	
5	0	0	0	0	511	508	0	0	
6	0	0	0	0	509	508	0	0	
7	0	0	0	0	509	508	0	0	
8	0	0	0	0	509	507	0	0	
9	0	0	0	0	511	508	0	0	
10	0	0	0	0	510	507	0	0	
11	0	0	0	0	509	507	0	0	
12	0	0	0	0	511	509	0	0	
13	0	0	0	0	512	510	0	0	
14	0	0	0	0	513	509	0	0	
15	0	0	0	0	512	507	0	0	
0	0	0	0	0	514	508	0	0	
1	0	0	0	0	513	510	0	0	
2	0	0	0	0	513	507	0	0	
3	0	0	0	0	514	509	0	0	
4	0	0	0	0	512	509	0	0	
5	0	0	0	0	509	508	0	0	
6	0	0	0	0	511	509	0	0	
7	0	0	0	0	510	508	0	0	
8	0	0	0	0	510	509	0	0	
9	0	0	0	0	510	509	0	0	
10	0	0	0	0	510	506	0	0	
11	0	0	0	0	510	508	0	0	
12	0	0	0	0	511	508	0	0	
13	0	0	0	0	510	506	0	0	
14	0	0	0	0	510	506	0	0	
15	0	0	0	0	508	508	0	0	
0	0	0	0	0	511	509	0	0	
1	0	0	0	0	510	508	0	0	
2	0	0	0	0	511	508	0	0	
3	0	0	0	0	511	508	0	0	
4	0	0	0	0	512	508	0	0	
5	0	0	0	0	513	507	0	0	
6	0	0	0	0	515	507	0	0	
7	0	0	0	0	514	507	0	0	
8	0	0	0	0	511	510	0	0	
9	0	0	0	0	510	508	0	0	
10	0	0	0	0	511	507	0	0	
11	0	0	0	0	509	509	0	0	
12	0	0	0	0	511	511	0	0	
13	0	0	0	0	510	509	0	0	
14	0	0	0	0	510	509	0	0	
15	0	0	0	0	509	508	0	0	
0	0	0	0	0	508	506	0	0	
1	0	0	0	0	511	508	0	0	
2	0	0	0	0	511	507	0	0	
3	0	0	0	0	510	508	0	0	
4	0	0	0	0	508	507	0	0	
5	0	0	0	0	510	507	0	0	
6	0	0	0	0	512	508	0	0	
7	0	0	0	0	512	508	0	0	
8	0	0	0	0	512	508	0	0	
9	0	0	0	0	513	507	0	0	
10	0	0	0	0	516	507	0	0	
11	0	0	0	0	513	508	0	0	
12	0	0	0	0	513	508	0	0	
13	0	0	0	0	512	507	0	0	
14	0	0	0	0	511	508	0	0	
15	0	0	0	0	512	508	0	0	
0	0	0	0	0	510	507	0	0	
1	0	0	0	0	509	508	0	0	
2	0	0	0	0	509	508	0	0	
3	0	0	0	0	509	509	0	0	
4	0	0	0	0	508	506	0	0	
5	0	0	0	0	511	508	0	0	
6	0	0	0	0	510	508	0	0	
7	0	0	0	0	508	511	0	0	
8	0	0	0	0	510	508	0	0	
9	0	0	0	0	511	509	0	0	
10	0	0	0	0	514	508	0	0	
11	0	0	0	0	512	509	0	0	
12	0	0	0	0	512	508	0	0	
13	0	0	0	0	512	507	0	0	
14	0	0	0	0	514	507	0	0	
15	0	0	0	0	512	509	0	0	
0	0	0	0	0	513	509	0	0	
1	0	0	0	0	510	509	0	0	
2	0	0	0	0	511	507	0	0	
3	0	0	0	0	510	507	0	0	
4	0	0	0	0	511	506	0	0	
5	0	0	0	0	510	509	0	0	
6	0	0	0	0	508	506	0	0	
7	0	0	0	0	507	507	0	0	
8	0	0	0	0	511	507	0	0	
9	0	0	0	0	511	508	0	0	
10	0	0	0	0	508	509	0	0	
11	0	0	0	0	510	509	0	0	
12	0	0	0	0	512	509	0	0	
13	0	0	0	0	514	508	0	0	
14	0	0	0	0	512	508	0	0	
15	0	0	0	0	514	508	0	0	
0	0	0	0	0	513	508	0	0	
1	0	0	0	0	514	507	0	0	
2	0	0	0	0	514	509	0	0	
3	0	0	0	0	512	508	0	0	
4	0	0	0	0	514	507	0	0	
5	0	0	0	0	513	508	0	0	
6	0	0	0	0	511	509	0	0	
7	0	0	0	0	509	510	0	0	
8	0	0	0	0	510	508	0	0	
9	0	0	0	0	509	507	0	0	
10	0	0	0	0	507	508	0	0	
11	0	0	0	0	509	508	0	0	
12	0	0	0	0	510	510	0	0	
13	0	0	0	0	511	508	0	0	
14	0	0	0	0	510	507	0	0	
15	0	0	0	0	511	508	0	0	
0	0	0	0	0	512	508	0	0	
1	0	0	0	0	512	509	0	0	
2	0	0	0	0	515	508	0	0	
3	0	0	0	0	512	508	0	0	
4	0	0	0	0	512	508	0	0	
5	0	0	0	0	512	508	0	0	
6	0	0	0	0	513	509	0	0	
7	0	0	0	0	512	508	0	0	
8	0	0	0	0	511	508	0	0	
9	0	0	0	0	512	507	0	0	
10	0	0	0	0	510	509	0	0	
11	0	0	0	0	512	510	0	0	
12	0	0	0	0	508	507	0	0	
13	0	0	0	0	508	509	0	0	
14	0	0	0	0	509	507	0	0	
15	0	0	0	0	510	509	0	0	
0	0	0	0	0	510	507	0	0	
1	0	0	0	0	508	506	0	0	
2	0	0	0	0	511	508	0	0	
3	0	0	0	0	509	508	0	0	
4	0	0	0	0	511	508	0	0	
5	0	0	0	0	511	507	0	0	
6	0	0	0	0	512	508	0	0	
7	0	0	0	0	512	507	0	0	
8	0	0	0	0	513	510	0	0	
9	0	0	0	0	513	507	0	0	
10	0	0	0	0	512	508	0	0	
11	0	0	0	0	512	508	0	0	
12	0	0	0	0	515	510	0	0	
13	0	0	0	0	513	509	0	0	
14	0	0	0	0	509	507	0	0	
15	0	0	0	0	511	507	0	0	
0	0	0	0	0	507	508	0	0	
1	0	0	0	0	511	507	0	0	
2	0	0	0	0	508	507	0	0	
3	0	0	0	0	508	507	0	0	
4	0	0	0	0	507	508	0	0	
5	0	0	0	0	509	510	0	0	
6	0	0	0	0	510	508	0	0	
7	0	0	0	0	510	507	0	0	
8	0	0	0	0	513	508	0	0	
9	0	0	0	0	513	506	0	0	
10	0	0	0	0	511	509	0	0	
11	0	0	0	0	514	510	0	0	
12	0	0	0	0	512	507	0	0	
13	0	0	0	0	512	507	0	0	
14	0	0	0	0	511	508	0	0	
15	0	0	0	0	512	508	0	0	
0	0	0	0	0	512	508	0	0	
1	0	0	0	0	513	508	0	0	
2	0	0	0	0	513	508	0	0	
3	0	0	0	0	512	508	0	0	
4	0	0	0	0	511	508	0	0	
5	0	0	0	0	509	508	0	0	
6	0	0	0	0	511	508	0	0	
7	0	0	0	0	508	508	0	0	
8	0	0	0	0	507	508	0	0	
9	0	0	0	0	511	506	0	0	
10	0	0	0	0	509	507	0	0	
11	0	0	0	0	511	508	0	0	
12	0	0	0	0	512	508	0	0	
13	0	0	0	0	511	507	0	0	
14	0	0	0	0	510	507	0	0	
15	0	0	0	0	511	508	0	0	
0	0	0	0	0	514	508	0	0	
1	0	0	0	0	516	507	0	0	
2	0	0	0	0	512	508	0	0	
3	0	0	0	0	513	508	0	0	
4	0	0	0	0	512	508	0	0	
5	0	0	0	0	512	508	0	0	
6	0	0	0	0	512	508	0	0	
7	0	0	0	0	513	510	0	0	
8	0	0	0	0	509	507	0	0	
9	0	0	0	0	508	509	0	0	
10	0	0	0	0	510	506	0	0	
11	0	0	0	0	508	505	0	0	
12	0	0	0	0	507	507	0	0	
13	0	0	0	0	509	510	0	0	
14	0	0	0	0	510	507	0	0	
15	0	0	0	0	508	508	0	0	
0	0	0	0	0	512	509	0	0	
1	0	0	0	0	511	509	0	0	
2	0	0	0	0	511	508	0	0	
3	0	0	0	0	512	505	0	0	
4	0	0	0	0	513	510	0	0	
5	0	0	0	0	513	508	0	0	
6	0	0	0	0	513	507	0	0	
7	0	0	0	0	512	508	0	0	
8	0	0	0	0	510	506	0	0	
9	0	0	0	0	512	510	0	0	
10	0	0	0	0	514	510	0	0	
11	0	0	0	0	512	508	0	0	
12	0	0	0	0	513	509	0	0	
13	0	0	0	0	514	510	0	0	
14	0	0	0	0	514	508	0	0	
15	0	0	0	0	511	505	0	0	
0	0	0	0	0	505	508	0	0	
1	0	0	0	0	504	507	0	0	
2	0	0	0	0	502	507	0	0	
3	0	0	0	0	500	506	0	0	
4	0	0	0	0	505	508	0	0	
5	0	0	0	0	506	508	0	0	
6	0	0	0	0	509	508	0	0	
7	0	0	0	0	509	507	0	0	
8	0	0	0	0	513	507	0	0	
9	0	0	0	0	515	508	0	0	
10	0	0	0	0	516	508	0	0	
11	0	0	0	0	517	509	0	0	
12	0	0	0	0	517	509	0	0	
13	0	0	0	0	515	510	0	0	
14	0	0	0	0	516	512	0	0	
15	0	0	0	0	514	509	0	0	
0	0	0	0	0	516	509	0	0	
1	0	0	0	0	516	509	0	0	
2	0	0	0	0	512	509	0	0	
3	0	0	0	0	509	506	0	0	
4	0	0	0	0	507	507	0	0	
5	0	0	0	0	504	505	0	0	
6	0	0	0	0	503	508	0	0	
7	0	0	0	0	503	506	0	0	
8	0	0	0	0	504	506	0	0	
9	0	0	0	0	507	505	0	0	
10	0	0	0	0	506	509	0	0	
11	0	0	0	0	511	508	0	0	
12	0	0	0	0	511	508	0	0	
13	0	0	0	0	515	508	0	0	
14	0	0	0	0	517	510	0	0	
15	0	0	0	0	516	507	0	0	
0	0	0	0	0	517	508	0	0	
1	0	0	0	0	516	509	0	0	
2	0	0	0	0	517	511	0	0	
3	0	0	0	0	518	510	0	0	
4	0	0	0	0	514	508	0	0	
5	0	0	0	0	515	507	0	0	
6	0	0	0	0	512	507	0	0	
7	0	0	0	0	507	508	0	0	
8	0	0	0	0	503	506	0	0	
9	0	0	0	0	503	506	0	0	
10	0	0	0	0	499	505	0	0	
11	0	0	0	0	500	508	0	0	
12	0	0	0	0	502	508	0	0	
13	0	0	0	0	506	508	0	0	
14	0	0	0	0	507	508	0	0	
15	0	0	0	0	510	508	0	0	
0	0	0	0	0	513	509	0	0	
1	0	0	0	0	516	507	0	0	
2	0	0	0	0	520	511	0	0	
3	0	0	0	0	518	511	0	0	
4	0	0	0	0	514	510	0	0	
5	0	0	0	0	519	509	0	0	
6	0	0	0	0	518	508	0	0	
7	0	0	0	0	520	509	0	0	
8	0	0	0	0	519	509	0	0	
9	0	0	0	0	515	507	0	0	
10	0	0	0	0	511	508	0	0	
11	0	0	0	0	508	507	0	0	
12	0	0	0	0	504	507	0	0	
13	0	0	0	0	501	507	0	0	
14	0	0	0	0	500	507	0	0	
15	0	0	0	0	501	504	0	0	
0	0	0	0	0	504	509	0	0	
1	0	0	0	0	507	508	0	0	
2	0	0	0	0	511	508	0	0	
3	0	0	0	0	510	507	0	0	
4	0	0	0	0	515	508	0	0	
5	0	0	0	0	516	510	0	0	
6	0	0	0	0	516	508	0	0	
7	0	0	0	0	516	511	0	0	
8	0	0	0	0	517	510	0	0	
9	0	0	0	0	519	509	0	0	
10	0	0	0	0	518	510	0	0	
11	0	0	0	0	519	511	0	0	
12	0	0	0	0	519	508	0	0	
13	0	0	0	0	513	507	0	0	
14	0	0	0	0	512	508	0	0	
15	0	0	0	0	507	505	0	0	
0	0	0	0	0	503	505	0	0	
1	0	0	0	0	499	506	0	0	
2	0	0	0	0	500	507	0	0	
3	0	0	0	0	501	507	0	0	
4	0	0	0	0	504	508	0	0	
5	0	0	0	0	507	508	0	0	
6	0	0	0	0	507	507	0	0	
7	0	0	0	0	510	507	0	0	
8	0	0	0	0	512	510	0	0	
9	0	0	0	0	517	508	0	0	
10	0	0	0	0	520	512	0	0	
11	0	0	0	0	519	509	0	0	
12	0	0	0	0	520	510	0	0	
13	0	0	0	0	520	509	0	0	
14	0	0	0	0	520	509	0	0	
15	0	0	0	0	517	509	0	0	
0	0	0	0	0	516	508	0	0	
1	0	0	0	0	515	507	0	0	
2	0	0	0	0	511	507	0	0	
3	0	0	0	0	508	506	0	0	
4	0	0	0	0	503	503	0	0	
5	0	0	0	0	498	505	0	0	
6	0	0	0	0	497	506	0	0	
7	0	0	0	0	496	506	0	0	
8	0	0	0	0	502	508	0	0	
9	0	0	0	0	504	508	0	0	
10	0	0	0	0	506	509	0	0	
11	0	0	0	0	510	507	0	0	
12	0	0	0	0	512	509	0	0	
13	0	0	0	0	515	510	0	0	
14	0	0	0	0	519	509	0	0	
15	0	0	0	0	520	510	0	0	
0	0	0	0	0	523	509	0	0	
1	0	0	0	0	519	510	0	0	
2	0	0	0	0	520	511	0	0	
3	0	0	0	0	522	509	0	0	
4	0	0	0	0	518	508	0	0	
5	0	0	0	0	515	508	0	0	
6	0	0	0	0	512	507	0	0	
7	0	0	0	0	505	506	0	0	
8	0	0	0	0	502	504	0	0	
9	0	0	0	0	499	506	0	0	
10	0	0	0	0	498	505	0	0	
11	0	0	0	0	496	506	0	0	
12	0	0	0	0	501	508	0	0	
13	0	0	0	0	504	508	0	0	
14	0	0	0	0	503	507	0	0	
15	0	0	0	0	511	507	0	0	
0	0	0	0	0	514	508	0	0	
1	0	0	0	0	519	511	0	0	
2	0	0	0	0	523	510	0	0	
3	0	0	0	0	519	510	0	0	
4	0	0	0	0	521	511	0	0	
5	0	0	0	0	520	511	0	0	
6	0	0	0	0	519	513	0	0	
7	0	0	0	0	519	510	0	0	
8	0	0	0	0	518	507	0	0	
9	0	0	0	0	515	508	0	0	
10	0	0	0	0	513	505	0	0	
11	0	0	0	0	507	504	0	0	
12	0	0	0	0	502	504	0	0	
13	0	0	0	0	496	505	0	0	
14	0	0	0	0	494	506	0	0	
15	0	0	0	0	494	506	0	0	
0	0	0	0	0	499	508	0	0	
1	0	0	0	0	506	507	0	0	
2	0	0	0	0	507	508	0	0	
3	0	0	0	0	510	509	0	0	
4	0	0	0	0	515	509	0	0	
5	0	0	0	0	519	510	0	0	
6	0	0	0	0	522	510	0	0	
7	0	0	0	0	523	510	0	0	
8	0	0	0	0	521	510	0	0	
9	0	0	0	0	521	512	0	0	
10	0	0	0	0	521	511	0	0	
11	0	0	0	0	525	510	0	0	
12	0	0	0	0	521	508	0	0	
13	0	0	0	0	514	508	0	0	
14	0	0	0	0	509	507	0	0	
15	0	0	0	0	505	506	0	0	
0	0	0	0	0	500	504	0	0	
1	0	0	0	0	498	504	0	0	
2	0	0	0	0	496	508	0	0	
3	0	0	0	0	492	505	0	0	
4	0	0	0	0	498	507	0	0	
5	0	0	0	0	503	509	0	0	
6	0	0	0	0	504	507	0	0	
7	0	0	0	0	511	509	0	0	
8	0	0	0	0	515	508	0	0	
9	0	0	0	0	519	511	0	0	
10	0	0	0	0	523	511	0	0	
11	0	0	0	0	522	509	0	0	
12	0	0	0	0	523	511	0	0	
13	0	0	0	0	524	511	0	0	
14	0	0	0	0	521	510	0	0	
15	0	0	0	0	523	511	0	0	
0	0	0	0	0	518	507	0	0	
1	0	0	0	0	513	507	0	0	
2	0	0	0	0	511	507	0	0	
3	0	0	0	0	505	507	0	0	
4	0	0	0	0	500	505	0	0	
5	0	0	0	0	497	505	0	0	
6	0	0	0	0	493	504	0	0	
7	0	0	0	0	493	504	0	0	
8	0	0	0	0	498	508	0	0	
9	0	0	0	0	504	506	0	0	
10	0	0	0	0	506	508	0	0	
11	0	0	0	0	511	508	0	0	
12	0	0	0	0	513	508	0	0	
13	0	0	0	0	517	512	0	0	
14	0	0	0	0	521	511	0	0	
15	0	0	0	0	520	511	0	0	
0	0	0	0	0	522	510	0	0	
1	0	0	0	0	525	511	0	0	
2	0	0	0	0	523	510	0	0	
3	0	0	0	0	524	511	0	0	
4	0	0	0	0	518	506	0	0	
5	0	0	0	0	514	508	0	0	
6	0	0	0	0	510	505	0	0	
7	0	0	0	0	506	506	0	0	
8	0	0	0	0	502	503	0	0	
9	0	0	0	0	500	505	0	0	
10	0	0	0	0	495	505	0	0	
11	0	0	0	0	494	505	0	0	
12	0	0	0	0	498	505	0	0	
13	0	0	0	0	501	508	0	0	
14	0	0	0	0	505	508	0	0	
15	0	0	0	0	509	510	0	0	
0	0	0	0	0	514	509	0	0	
1	0	0	0	0	519	510	0	0	
2	0	0	0	0	524	508	0	0	
3	0	0	0	0	524	510	0	0	
4	0	0	0	0	521	510	0	0	
5	0	0	0	0	524	512	0	0	
6	0	0	0	0	524	512	0	0	
7	0	0	0	0	524	512	0	0	
8	0	0	0	0	519	509	0	0	
9	0	0	0	0	514	508	0	0	
10	0	0	0	0	510	505	0	0	
11	0	0	0	0	505	505	0	0	
12	0	0	0	0	499	504	0	0	
13	0	0	0	0	496	504	0	0	
14	0	0	0	0	494	505	0	0	
15	0	0	0	0	494	505	0	0	
0	0	0	0	0	499	505	0	0	
1	0	0	0	0	503	510	0	0	
2	0	0	0	0	504	507	0	0	
3	0	0	0	0	509	507	0	0	
4	0	0	0	0	515	509	0	0	
5	0	0	0	0	519	510	0	0	
6	0	0	0	0	523	509	0	0	
7	0	0	0	0	524	510	0	0	
8	0	0	0	0	524	512	0	0	
9	0	0	0	0	523	509	0	0	
10	0	0	0	0	522	509	0	0	
11	0	0	0	0	522	509	0	0	
12	0	0	0	0	519	507	0	0	
13	0	0	0	0	513	508	0	0	
14	0	0	0	0	511	507	0	0	
15	0	0	0	0	504	504	0	0	
0	0	0	0	0	499	505	0	0	
1	0	0	0	0	497	506	0	0	
2	0	0	0	0	494	504	0	0	
3	0	0	0	0	496	506	0	0	
4	0	0	0	0	500	505	0	0	
5	0	0	0	0	505	509	0	0	
6	0	0	0	0	508	509	0	0	
7	0	0	0	0	510	508	0	0	
8	0	0	0	0	515	509	0	0	
9	0	0	0	0	520	510	0	0	
10	0	0	0	0	521	511	0	0	
11	0	0	0	0	522	509	0	0	
12	0	0	0	0	522	509	0	0	
13	0	0	0	0	524	511	0	0	
14	0	0	0	0	524	512	0	0	
15	0	0	0	0	523	510	0	0	
0	0	0	0	0	520	505	0	0	
1	0	0	0	0	515	508	0	0	
2	0	0	0	0	510	507	0	0	
3	0	0	0	0	503	505	0	0	
4	0	0	0	0	499	503	0	0	
5	0	0	0	0	495	505	0	0	
6	0	0	0	0	493	506	0	0	
7	0	0	0	0	495	504	0	0	
8	0	0	0	0	498	506	0	0	
9	0	0	0	0	504	508	0	0	
10	0	0	0	0	506	508	0	0	
11	0	0	0	0	511	507	0	0	
12	0	0	0	0	516	510	0	0	
13	0	0	0	0	518	510	0	0	
14	0	0	0	0	522	510	0	0	
15	0	0	0	0	523	509	0	0	
0	0	0	0	0	524	510	0	0	
1	0	0	0	0	523	514	0	0	
2	0	0	0	0	524	514	0	0	
3	0	0	0	0	523	511	0	0	
4	0	0	0	0	517	507	0	0	
5	0	0	0	0	513	507	0	0	
6	0	0	0	0	508	503	0	0	
7	0	0	0	0	504	505	0	0	
8	0	0	0	0	497	506	0	0	
9	0	0	0	0	497	505	0	0	
10	0	0	0	0	495	505	0	0	
11	0	0	0	0	494	508	0	0	
12	0	0	0	0	500	508	0	0	
13	0	0	0	0	504	508	0	0	
14	0	0	0	0	504	505	0	0	
15	0	0	0	0	511	508	0	0	
0	0	0	0	0	515	507	0	0	
1	0	0	0	0	518	510	0	0	
2	0	0	0	0	522	511	0	0	
3	0	0	0	0	521	507	0	0	
4	0	0	0	0	524	510	0	0	
5	0	0	0	0	523	511	0	0	
6	0	0	0	0	523	513	0	0	
7	0	0	0	0	524	511	0	0	
8	0	0	0	0	520	508	0	0	
9	0	0	0	0	511	507	0	0	
10	0	0	0	0	509	507	0	0	
11	0	0	0	0	503	507	0	0	
12	0	0	0	0	499	505	0	0	
13	0	0	0	0	498	505	0	0	
14	0	0	0	0	496	503	0	0	
15	0	0	0	0	495	505	0	0	
0	0	0	0	0	500	507	0	0	
1	0	0	0	0	505	508	0	0	
2	0	0	0	0	507	505	0	0	
3	0	0	0	0	511	508	0	0	
4	0	0	0	0	512	510	0	0	
5	0	0	0	0	520	511	0	0	
6	0	0	0	0	525	509	0	0	
7	0	0	0	0	521	511	0	0	
8	0	0	0	0	520	512	0	0	
9	0	0	0	0	524	512	0	0	
10	0	0	0	0	524	511	0	0	
11	0	0	0	0	523	510	0	0	
12	0	0	0	0	519	509	0	0	
13	0	0	0	0	514	507	0	0	
14	0	0	0	0	507	506	0	0	
15	0	0	0	0	505	503	0	0	
0	0	0	0	0	500	503	0	0	
1	0	0	0	0	496	504	0	0	
2	0	0	0	0	495	505	0	0	
3	0	0	0	0	497	504	0	0	
4	0	0	0	0	499	508	0	0	
5	0	0	0	0	504	510	0	0	
6	0	0	0	0	504	508	0	0	
7	0	0	0	0	511	509	0	0	
8	0	0	0	0	516	508	0	0	
9	0	0	0	0	520	511	0	0	
10	0	0	0	0	522	511	0	0	
11	0	0	0	0	521	510	0	0	
12	0	0	0	0	521	511	0	0	
13	0	0	0	0	523	510	0	0	
14	0	0	0	0	524	510	0	0	
15	0	0	0	0	523	510	0	0	
0	0	0	0	0	517	509	0	0	
1	0	0	0	0	514	507	0	0	
2	0	0	0	0	510	507	0	0	
3	0	0	0	0	504	504	0	0	
4	0	0	0	0	499	506	0	0	
5	0	0	0	0	499	504	0	0	
6	0	0	0	0	496	502	0	0	
7	0	0	0	0	494	504	0	0	
8	0	0	0	0	499	509	0	0	
9	0	0	0	0	503	509	0	0	
10	0	0	0	0	505	506	0	0	
11	0	0	0	0	512	508	0	0	
12	0	0	0	0	518	510	0	0	
13	0	0	0	0	519	509	0	0	
14	0	0	0	0	523	512	0	0	
15	0	0	0	0	521	511	0	0	
0	0	0	0	0	523	512	0	0	
1	0	0	0	0	522	512	0	0	
2	0	0	0	0	523	512	0	0	
3	0	0	0	0	522	509	0	0	
4	0	0	0	0	516	507	0	0	
5	0	0	0	0	510	507	0	0	
6	0	0	0	0	508	506	0	0	
7	0	0	0	0	507	505	0	0	
8	0	0	0	0	500	505	0	0	
9	0	0	0	0	498	505	0	0	
10	0	0	0	0	494	507	0	0	
11	0	0	0	0	493	507	0	0	
12	0	0	0	0	499	507	0	0	
13	0	0	0	0	504	507	0	0	
14	0	0	0	0	505	507	0	0	
15	0	0	0	0	511	509	0	0	
0	0	0	0	0	515	509	0	0	
1	0	0	0	0	523	510	0	0	
2	0	0	0	0	523	511	0	0	
3	0	0	0	0	521	512	0	0	
4	0	0	0	0	525	511	0	0	
5	0	0	0	0	525	512	0	0	
6	0	0	0	0	523	511	0	0	
7	0	0	0	0	523	510	0	0	
8	0	0	0	0	517	506	0	0	
9	0	0	0	0	513	506	0	0	
10	0	0	0	0	508	504	0	0	
11	0	0	0	0	505	504	0	0	
12	0	0	0	0	500	503	0	0	
13	0	0	0	0	495	503	0	0	
14	0	0	0	0	495	504	0	0	
15	0	0	0	0	494	506	0	0	
0	0	0	0	0	499	507	0	0	
1	0	0	0	0	505	509	0	0	
2	0	0	0	0	507	507	0	0	
3	0	0	0	0	511	508	0	0	
4	0	0	0	0	515	510	0	0	
5	0	0	0	0	519	511	0	0	
6	0	0	0	0	523	510	0	0	
7	0	0	0	0	521	510	0	0	
8	0	0	0	0	522	510	0	0	
9	0	0	0	0	524	512	0	0	
10	0	0	0	0	521	512	0	0	
11	0	0	0	0	522	510	0	0	
12	0	0	0	0	519	507	0	0	
13	0	0	0	0	514	508	0	0	
14	0	0	0	0	505	507	0	0	
15	0	0	0	0	503	505	0	0	
0	0	0	0	0	499	507	0	0	
1	0	0	0	0	497	505	0	0	
2	0	0	0	0	494	507	0	0	
3	0	0	0	0	496	505	0	0	
4	0	0	0	0	498	508	0	0	
5	0	0	0	0	505	509	0	0	
6	0	0	0	0	506	506	0	0	
7	0	0	0	0	511	509	0	0	
8	0	0	0	0	517	511	0	0	
9	0	0	0	0	519	510	0	0	
10	0	0	0	0	521	508	0	0	
11	0	0	0	0	522	510	0	0	
12	0	0	0	0	522	511	0	0	
13	0	0	0	0	525	513	0	0	
14	0	0	0	0	527	510	0	0	
15	0	0	0	0	523	509	0	0	
0	0	0	0	0	518	508	0	0	
1	0	0	0	0	512	508	0	0	
2	0	0	0	0	509	507	0	0	
3	0	0	0	0	504	505	0	0	
4	0	0	0	0	499	505	0	0	
5	0	0	0	0	496	505	0	0	
6	0	0	0	0	496	503	0	0	
7	0	0	0	0	494	505	0	0	
8	0	0	0	0	499	506	0	0	
9	0	0	0	0	504	507	0	0	
10	0	0	0	0	503	508	0	0	
11	0	0	0	0	511	510	0	0	
12	0	0	0	0	513	508	0	0	
13	0	0	0	0	518	511	0	0	
14	0	0	0	0	523	512	0	0	
15	0	0	0	0	523	510	0	0	
0	0	0	0	0	522	512	0	0	
1	0	0	0	0	524	511	0	0	
2	0	0	0	0	524	510	0	0	
3	0	0	0	0	525	510	0	0	
4	0	0	0	0	518	507	0	0	
5	0	0	0	0	511	508	0	0	
6	0	0	0	0	506	507	0	0	
7	0	0	0	0	505	504	0	0	
8	0	0	0	0	502	506	0	0	
9	0	0	0	0	499	505	0	0	
10	0	0	0	0	494	506	0	0	
11	0	0	0	0	492	507	0	0	
12	0	0	0	0	497	507	0	0	
13	0	0	0	0	504	508	0	0	
14	0	0	0	0	504	507	0	0	
15	0	0	0	0	510	508	0	0	
0	0	0	0	0	516	509	0	0	
1	0	0	0	0	521	510	0	0	
2	0	0	0	0	523	511	0	0	
3	0	0	0	0	521	511	0	0	
4	0	0	0	0	522	510	0	0	
5	0	0	0	0	524	512	0	0	
6	0	0	0	0	525	513	0	0	
7	0	0	0	0	524	510	0	0	
8	0	0	0	0	519	508	0	0	
9	0	0	0	0	514	506	0	0	
10	0	0	0	0	509	504	0	0	
11	0	0	0	0	505	504	0	0	
12	0	0	0	0	498	505	0	0	
13	0	0	0	0	497	506	0	0	
14	0	0	0	0	493	504	0	0	
15	0	0	0	0	493	506	0	0	
0	0	0	0	0	496	509	0	0	
1	0	0	0	0	503	508	0	0	
2	0	0	0	0	503	507	0	0	
3	0	0	0	0	512	509	0	0	
4	0	0	0	0	513	510	0	0	
5	0	0	0	0	521	510	0	0	
6	0	0	0	0	524	512	0	0	
7	0	0	0	0	522	511	0	0	
8	0	0	0	0	526	511	0	0	
9	0	0	0	0	525	513	0	0	
10	0	0	0	0	524	511	0	0	
11	0	0	0	0	524	509	0	0	
12	0	0	0	0	518	505	0	0	
13	0	0	0	0	512	508	0	0	
14	0	0	0	0	510	507	0	0	
15	0	0	0	0	504	504	0	0	
0	0	0	0	0	500	505	0	0	
1	0	0	0	0	495	504	0	0	
2	0	0	0	0	492	505	0	0	
3	0	0	0	0	495	506	0	0	
4	0	0	0	0	498	508	0	0	
5	0	0	0	0	504	508	0	0	
6	0	0	0	0	503	506	0	0	
7	0	0	0	0	510	509	0	0	
8	0	0	0	0	514	509	0	0	
9	0	0	0	0	521	510	0	0	
10	0	0	0	0	523	511	0	0	
11	0	0	0	0	523	510	0	0	
12	0	0	0	0	525	511	0	0	
13	0	0	0	0	525	510	0	0	
14	0	0	0	0	523	513	0	0	
15	0	0	0	0	523	510	0	0	
0	0	0	0	0	517	506	0	0	
1	0	0	0	0	512	506	0	0	
2	0	0	0	0	507	509	0	0	
3	0	0	0	0	506	508	0	0	
4	0	0	0	0	501	504	0	0	
5	0	0	0	0	497	505	0	0	
6	0	0	0	0	495	506	0	0	
7	0	0	0	0	491	504	0	0	
8	0	0	0	0	499	508	0	0	
9	0	0	0	0	503	507	0	0	
10	0	0	0	0	504	506	0	0	
11	0	0	0	0	510	508	0	0	
12	0	0	0	0	516	508	0	0	
13	0	0	0	0	519	510	0	0	
14	0	0	0	0	524	510	0	0	
15	0	0	0	0	524	511	0	0	
0	0	0	0	0	523	509	0	0	
1	0	0	0	0	526	513	0	0	
2	0	0	0	0	524	511	0	0	
3	0	0	0	0	524	512	0	0	
4	0	0	0	0	516	507	0	0	
5	0	0	0	0	511	504	0	0	
6	0	0	0	0	510	507	0	0	
7	0	0	0	0	503	506	0	0	
8	0	0	0	0	498	503	0	0	
9	0	0	0	0	495	504	0	0	
10	0	0	0	0	496	504	0	0	
11	0	0	0	0	493	504	0	0	
12	0	0	0	0	499	507	0	0	
13	0	0	0	0	505	509	0	0	
14	0	0	0	0	507	508	0	0	
15	0	0	0	0	512	509	0	0	
0	0	0	0	0	516	508	0	0	
1	0	0	0	0	521	509	0	0	
2	0	0	0	0	526	511	0	0	
3	0	0	0	0	524	511	0	0	
4	0	0	0	0	523	511	0	0	
5	0	0	0	0	525	511	0	0	
6	0	0	0	0	523	512	0	0	
7	0	0	0	0	520	510	0	0	
8	0	0	0	0	516	505	0	0	
9	0	0	0	0	513	507	0	0	
10	0	0	0	0	509	504	0	0	
11	0	0	0	0	508	505	0	0	
12	0	0	0	0	500	506	0	0	
13	0	0	0	0	497	506	0	0	
14	0	0	0	0	495	507	0	0	
15	0	0	0	0	495	506	0	0	
0	0	0	0	0	501	508	0	0	
1	0	0	0	0	503	508	0	0	
2	0	0	0	0	505	507	0	0	
3	0	0	0	0	509	506	0	0	
4	0	0	0	0	515	508	0	0	
5	0	0	0	0	519	509	0	0	
6	0	0	0	0	520	511	0	0	
7	0	0	0	0	520	510	0	0	
8	0	0	0	0	523	509	0	0	
9	0	0	0	0	523	513	0	0	
10	0	0	0	0	524	512	0	0	
11	0	0	0	0	520	510	0	0	
12	0	0	0	0	516	507	0	0	
13	0	0	0	0	513	505	0	0	
14	0	0	0	0	509	505	0	0	
15	0	0	0	0	505	505	0	0	
0	0	0	0	0	498	505	0	0	
1	0	0	0	0	496	504	0	0	
2	0	0	0	0	494	505	0	0	
3	0	0	0	0	494	506	0	0	
4	0	0	0	0	500	508	0	0	
5	0	0	0	0	504	508	0	0	
6	0	0	0	0	506	504	0	0	
7	0	0	0	0	509	508	0	0	
8	0	0	0	0	516	508	0	0	
9	0	0	0	0	521	510	0	0	
10	0	0	0	0	520	510	0	0	
11	0	0	0	0	522	511	0	0	
12	0	0	0	0	523	511	0	0	
13	0	0	0	0	525	512	0	0	
14	0	0	0	0	523	512	0	0	
15	0	0	0	0	525	508	0	0	
0	0	0	0	0	518	507	0	0	
1	0	0	0	0	512	508	0	0	
2	0	0	0	0	511	507	0	0	
3	0	0	0	0	505	505	0	0	
4	0	0	0	0	499	505	0	0	
5	0	0	0	0	496	504	0	0	
6	0	0	0	0	494	505	0	0	
7	0	0	0	0	493	505	0	0	
8	0	0	0	0	498	506	0	0	
9	0	0	0	0	503	509	0	0	
10	0	0	0	0	505	507	0	0	
11	0	0	0	0	511	507	0	0	
12	0	0	0	0	515	510	0	0	
13	0	0	0	0	519	508	0	0	
14	0	0	0	0	523	511	0	0	
15	0	0	0	0	524	512	0	0	
0	0	0	0	0	524	511	0	0	
1	0	0	0	0	527	512	0	0	
2	0	0	0	0	525	511	0	0	
3	0	0	0	0	523	513	0	0	
4	0	0	0	0	518	508	0	0	
5	0	0	0	0	512	508	0	0	
6	0	0	0	0	510	508	0	0	
7	0	0	0	0	504	505	0	0	
8	0	0	0	0	497	504	0	0	
9	0	0	0	0	494	503	0	0	
10	0	0	0	0	495	504	0	0	
11	0	0	0	0	494	505	0	0	
12	0	0	0	0	497	508	0	0	
13	0	0	0	0	504	509	0	0	
14	0	0	0	0	504	508	0	0	
15	0	0	0	0	509	507	0	0	
0	0	0	0	0	514	508	0	0	
1	0	0	0	0	523	510	0	0	
2	0	0	0	0	525	510	0	0	
3	0	0	0	0	523	511	0	0	
4	0	0	0	0	522	510	0	0	
5	0	0	0	0	525	511	0	0	
6	0	0	0	0	526	512	0	0	
7	0	0	0	0	526	511	0	0	
8	0	0	0	0	519	508	0	0	
9	0	0	0	0	511	507	0	0	
10	0	0	0	0	509	504	0	0	
11	0	0	0	0	504	505	0	0	
12	0	0	0	0	497	504	0	0	
13	0	0	0	0	494	506	0	0	
14	0	0	0	0	494	507	0	0	
15	0	0	0	0	493	506	0	0	
0	0	0	0	0	498	508	0	0	
1	0	0	0	0	505	507	0	0	
2	0	0	0	0	506	505	0	0	
3	0	0	0	0	508	508	0	0	
4	0	0	0	0	515	508	0	0	
5	0	0	0	0	520	509	0	0	
6	0	0	0	0	525	511	0	0	
7	0	0	0	0	524	510	0	0	
8	0	0	0	0	525	511	0	0	
9	0	0	0	0	524	511	0	0	
10	0	0	0	0	522	512	0	0	
11	0	0	0	0	523	512	0	0	
12	0	0	0	0	516	508	0	0	
13	0	0	0	0	512	506	0	0	
14	0	0	0	0	508	507	0	0	
15	0	0	0	0	504	504	0	0	
0	0	0	0	0	502	505	0	0	
1	0	0	0	0	497	504	0	0	
2	0	0	0	0	494	506	0	0	
3	0	0	0	0	492	506	0	0	
4	0	0	0	0	498	507	0	0	
5	0	0	0	0	502	509	0	0	
6	0	0	0	0	505	507	0	0	
7	0	0	0	0	511	507	0	0	
8	0	0	0	0	514	508	0	0	
9	0	0	0	0	519	510	0	0	
10	0	0	0	0	522	511	0	0	
11	0	0	0	0	522	509	0	0	
12	0	0	0	0	524	511	0	0	
13	0	0	0	0	527	512	0	0	
14	0	0	0	0	526	511	0	0	
15	0	0	0	0	524	508	0	0	
0	0	0	0	0	518	510	0	0	
1	0	0	0	0	511	508	0	0	
2	0	0	0	0	508	506	0	0	
3	0	0	0	0	504	505	0	0	
4	0	0	0	0	499	504	0	0	
5	0	0	0	0	496	504	0	0	
6	0	0	0	0	494	506	0	0	
7	0	0	0	0	493	505	0	0	
8	0	0	0	0	500	508	0	0	
9	0	0	0	0	504	506	0	0	
10	0	0	0	0	504	507	0	0	
11	0	0	0	0	508	510	0	0	
12	0	0	0	0	515	510	0	0	
13	0	0	0	0	521	511	0	0	
14	0	0	0	0	524	511	0	0	
15	0	0	0	0	523	510	0	0	
0	0	0	0	0	525	512	0	0	
1	0	0	0	0	526	513	0	0	
2	0	0	0	0	526	511	0	0	
3	0	0	0	0	524	508	0	0	
4	0	0	0	0	519	506	0	0	
5	0	0	0	0	513	506	0	0	
6	0	0	0	0	508	507	0	0	
7	0	0	0	0	503	507	0	0	
8	0	0	0	0	499	506	0	0	
9	0	0	0	0	496	504	0	0	
10	0	0	0	0	495	503	0	0	
11	0	0	0	0	492	505	0	0	
12	0	0	0	0	498	507	0	0	
13	0	0	0	0	504	508	0	0	
14	0	0	0	0	505	508	0	0	
15	0	0	0	0	509	508	0	0	
0	0	0	0	0	515	511	0	0	
1	0	0	0	0	520	511	0	0	
2	0	0	0	0	524	511	0	0	
3	0	0	0	0	522	510	0	0	
4	0	0	0	0	523	511	0	0	
5	0	0	0	0	526	511	0	0	
6	0	0	0	0	525	511	0	0	
7	0	0	0	0	527	509	0	0	
8	0	0	0	0	518	508	0	0	
9	0	0	0	0	512	505	0	0	
10	0	0	0	0	510	508	0	0	
11	0	0	0	0	507	505	0	0	
12	0	0	0	0	500	505	0	0	
13	0	0	0	0	496	506	0	0	
14	0	0	0	0	492	504	0	0	
15	0	0	0	0	494	507	0	0	
0	0	0	0	0	497	507	0	0	
1	0	0	0	0	502	508	0	0	
2	0	0	0	0	504	506	0	0	
3	0	0	0	0	511	508	0	0	
4	0	0	0	0	515	508	0	0	
5	0	0	0	0	520	510	0	0	
6	0	0	0	0	522	510	0	0	
7	0	0	0	0	522	510	0	0	
8	0	0	0	0	526	511	0	0	
9	0	0	0	0	525	513	0	0	
10	0	0	0	0	527	511	0	0	
11	0	0	0	0	523	509	0	0	
12	0	0	0	0	517	506	0	0	
13	0	0	0	0	512	506	0	0	
14	0	0	0	0	506	507	0	0	
15	0	0	0	0	504	506	0	0	
0	0	0	0	0	498	504	0	0	
1	0	0	0	0	499	506	0	0	
2	0	0	0	0	493	505	0	0	
3	0	0	0	0	492	504	0	0	
4	0	0	0	0	496	507	0	0	
5	0	0	0	0	502	506	0	0	
6	0	0	0	0	504	506	0	0	
7	0	0	0	0	511	508	0	0	
8	0	0	0	0	515	510	0	0	
9	0	0	0	0	519	511	0	0	
10	0	0	0	0	524	511	0	0	
11	0	0	0	0	522	510	0	0	
12	0	0	0	0	526	512	0	0	
13	0	0	0	0	526	511	0	0	
14	0	0	0	0	524	512	0	0	
15	0	0	0	0	524	509	0	0	
0	0	0	0	0	518	507	0	0	
1	0	0	0	0	513	507	0	0	
2	0	0	0	0	510	506	0	0	
3	0	0	0	0	504	505	0	0	
4	0	0	0	0	501	503	0	0	
5	0	0	0	0	495	504	0	0	
6	0	0	0	0	493	507	0	0	
7	0	0	0	0	493	507	0	0	
8	0	0	0	0	497	508	0	0	
9	0	0	0	0	501	507	0	0	
10	0	0	0	0	503	507	0	0	
11	0	0	0	0	510	507	0	0	
12	0	0	0	0	515	510	0	0	
13	0	0	0	0	519	510	0	0	
14	0	0	0	0	524	509	0	0	
15	0	0	0	0	522	510	0	0	
0	0	0	0	0	524	511	0	0	
1	0	0	0	0	525	512	0	0	
2	0	0	0	0	525	513	0	0	
3	0	0	0	0	525	509	0	0	
4	0	0	0	0	518	508	0	0	
5	0	0	0	0	512	505	0	0	
6	0	0	0	0	510	508	0	0	
7	0	0	0	0	504	505	0	0	
8	0	0	0	0	498	505	0	0	
9	0	0	0	0	497	505	0	0	
10	0	0	0	0	494	506	0	0	
11	0	0	0	0	492	505	0	0	
12	0	0	0	0	497	508	0	0	
13	0	0	0	0	504	506	0	0	
14	0	0	0	0	505	505	0	0	
15	0	0	0	0	510	508	0	0	
0	0	0	0	0	515	508	0	0	
1	0	0	0	0	520	511	0	0	
2	0	0	0	0	522	511	0	0	
3	0	0	0	0	522	510	0	0	
4	0	0	0	0	524	511	0	0	
5	0	0	0	0	526	512	0	0	
6	0	0	0	0	526	513	0	0	
7	0	0	0	0	525	509	0	0	
8	0	0	0	0	518	508	0	0	
9	0	0	0	0	515	508	0	0	
10	0	0	0	0	507	505	0	0	
11	0	0	0	0	507	504	0	0	
12	0	0	0	0	499	504	0	0	
13	0	0	0	0	496	504	0	0	
14	0	0	0	0	495	505	0	0	
15	0	0	0	0	494	503	0	0	
0	0	0	0	0	498	507	0	0	
1	0	0	0	0	503	510	0	0	
2	0	0	0	0	500	507	0	0	
3	0	0	0	0	509	507	0	0	
4	0	0	0	0	516	508	0	0	
5	0	0	0	0	520	512	0	0	
6	0	0	0	0	520	509	0	0	
7	0	0	0	0	524	511	0	0	
8	0	0	0	0	524	510	0	0	
9	0	0	0	0	527	513	0	0	
10	0	0	0	0	525	513	0	0	
11	0	0	0	0	526	510	0	0	
12	0	0	0	0	519	507	0	0	
13	0	0	0	0	513	506	0	0	
14	0	0	0	0	510	505	0	0	
15	0	0	0	0	503	505	0	0	
0	0	0	0	0	501	506	0	0	
1	0	0	0	0	496	505	0	0	
2	0	0	0	0	492	504	0	0	
3	0	0	0	0	492	507	0	0	
4	0	0	0	0	499	508	0	0	
5	0	0	0	0	503	509	0	0	
6	0	0	0	0	506	506	0	0	
7	0	0	0	0	511	508	0	0	
8	0	0	0	0	515	507	0	0	
9	0	0	0	0	521	511	0	0	
10	0	0	0	0	523	512	0	0	
11	0	0	0	0	520	511	0	0	
12	0	0	0	0	522	512	0	0	
13	0	0	0	0	523	514	0	0	
14	0	0	0	0	527	511	0	0	
15	0	0	0	0	527	510	0	0	
0	0	0	0	0	519	507	0	0	
1	0	0	0	0	512	506	0	0	
2	0	0	0	0	507	506	0	0	
3	0	0	0	0	503	506	0	0	
4	0	0	0	0	499	505	0	0	
5	0	0	0	0	497	503	0	0	
6	0	0	0	0	493	504	0	0	
7	0	0	0	0	494	506	0	0	
8	0	0	0	0	500	507	0	0	
9	0	0	0	0	505	507	0	0	
10	0	0	0	0	502	506	0	0	
11	0	0	0	0	508	508	0	0	
12	0	0	0	0	515	510	0	0	
13	0	0	0	0	521	511	0	0	
14	0	0	0	0	523	510	0	0	
15	0	0	0	0	520	511	0	0	
0	0	0	0	0	524	511	0	0	
1	0	0	0	0	527	512	0	0	
2	0	0	0	0	524	511	0	0	
3	0	0	0	0	525	511	0	0	
4	0	0	0	0	518	507	0	0	
5	0	0	0	0	511	505	0	0	
6	0	0	0	0	510	507	0	0	
7	0	0	0	0	506	506	0	0	
8	0	0	0	0	499	505	0	0	
9	0	0	0	0	496	505	0	0	
10	0	0	0	0	493	506	0	0	
11	0	0	0	0	492	504	0	0	
12	0	0	0	0	497	508	0	0	
13	0	0	0	0	504	508	0	0	
14	0	0	0	0	502	506	0	0	
15	0	0	0	0	508	510	0	0	
0	0	0	0	0	513	508	0	0	
1	0	0	0	0	520	508	0	0	
2	0	0	0	0	525	509	0	0	
3	0	0	0	0	522	509	0	0	
4	0	0	0	0	524	511	0	0	
5	0	0	0	0	526	512	0	0	
6	0	0	0	0	526	511	0	0	
7	0	0	0	0	526	510	0	0	
8	0	0	0	0	520	506	0	0	
9	0	0	0	0	515	506	0	0	
10	0	0	0	0	509	506	0	0	
11	0	0	0	0	505	506	0	0	
12	0	0	0	0	500	505	0	0	
13	0	0	0	0	496	504	0	0	
14	0	0	0	0	494	505	0	0	
15	0	0	0	0	494	504	0	0	
0	0	0	0	0	499	508	0	0	
1	0	0	0	0	502	508	0	0	
2	0	0	0	0	503	505	0	0	
3	0	0	0	0	510	508	0	0	
4	0	0	0	0	513	507	0	0	
5	0	0	0	0	519	510	0	0	
6	0	0	0	0	524	510	0	0	
7	0	0	0	0	522	511	0	0	
8	0	0	0	0	524	511	0	0	
9	0	0	0	0	526	513	0	0	
10	0	0	0	0	525	512	0	0	
11	0	0	0	0	526	511	0	0	
12	0	0	0	0	520	507	0	0	
13	0	0	0	0	513	507	0	0	
14	0	0	0	0	508	506	0	0	
15	0	0	0	0	504	504	0	0	
0	0	0	0	0	499	504	0	0	
1	0	0	0	0	496	507	0	0	
2	0	0	0	0	493	505	0	0	
3	0	0	0	0	493	506	0	0	
4	0	0	0	0	499	507	0	0	
5	0	0	0	0	503	508	0	0	
6	0	0	0	0	502	505	0	0	
7	0	0	0	0	509	508	0	0	
8	0	0	0	0	512	508	0	0	
9	0	0	0	0	519	512	0	0	
10	0	0	0	0	524	509	0	0	
11	0	0	0	0	524	508	0	0	
12	0	0	0	0	523	512	0	0	
13	0	0	0	0	525	512	0	0	
14	0	0	0	0	526	512	0	0	
15	0	0	0	0	523	509	0	0	
0	0	0	0	0	519	510	0	0	
1	0	0	0	0	512	506	0	0	
2	0	0	0	0	511	506	0	0	
3	0	0	0	0	504	504	0	0	
4	0	0	0	0	499	504	0	0	
5	0	0	0	0	496	504	0	0	
6	0	0	0	0	493	508	0	0	
7	0	0	0	0	495	506	0	0	
8	0	0	0	0	497	507	0	0	
9	0	0	0	0	501	506	0	0	
10	0	0	0	0	505	508	0	0	
11	0	0	0	0	510	508	0	0	
12	0	0	0	0	513	508	0	0	
13	0	0	0	0	518	511	0	0	
14	0	0	0	0	523	511	0	0	
15	0	0	0	0	523	511	0	0	
0	0	0	0	0	526	510	0	0	
1	0	0	0	0	526	512	0	0	
2	0	0	0	0	525	509	0	0	
3	0	0	0	0	524	510	0	0	
4	0	0	0	0	517	508	0	0	
5	0	0	0	0	512	508	0	0	
6	0	0	0	0	506	504	0	0	
7	0	0	0	0	503	507	0	0	
8	0	0	0	0	500	504	0	0	
9	0	0	0	0	499	504	0	0	
10	0	0	0	0	495	507	0	0	
11	0	0	0	0	493	506	0	0	
12	0	0	0	0	498	506	0	0	
13	0	0	0	0	503	507	0	0	
14	0	0	0	0	503	507	0	0	
15	0	0	0	0	512	508	0	0	
0	0	0	0	0	514	506	0	0	
1	0	0	0	0	520	512	0	0	
2	0	0	0	0	520	510	0	0	
3	0	0	0	0	522	509	0	0	
4	0	0	0	0	522	511	0	0	
5	0	0	0	0	526	513	0	0	
6	0	0	0	0	528	511	0	0	
7	0	0	0	0	525	508	0	0	
8	0	0	0	0	519	509	0	0	
9	0	0	0	0	512	507	0	0	
10	0	0	0	0	509	505	0	0	
11	0	0	0	0	504	507	0	0	
12	0	0	0	0	501	504	0	0	
13	0	0	0	0	499	504	0	0	
14	0	0	0	0	495	504	0	0	
15	0	0	0	0	493	506	0	0	
0	0	0	0	0	499	507	0	0	
1	0	0	0	0	502	507	0	0	
2	0	0	0	0	502	507	0	0	
3	0	0	0	0	508	508	0	0	
4	0	0	0	0	513	508	0	0	
5	0	0	0	0	520	511	0	0	
6	0	0	0	0	522	510	0	0	
7	0	0	0	0	521	510	0	0	
8	0	0	0	0	522	511	0	0	
9	0	0	0	0	524	511	0	0	
10	0	0	0	0	527	511	0	0	
11	0	0	0	0	524	511	0	0	
12	0	0	0	0	519	507	0	0	
13	0	0	0	0	514	508	0	0	
14	0	0	0	0	511	506	0	0	
15	0	0	0	0	504	507	0	0	
0	0	0	0	0	499	505	0	0	
1	0	0	0	0	498	505	0	0	
2	0	0	0	0	495	507	0	0	
3	0	0	0	0	494	506	0	0	
4	0	0	0	0	497	507	0	0	
5	0	0	0	0	500	505	0	0	
6	0	0	0	0	504	508	0	0	
7	0	0	0	0	508	508	0	0	
8	0	0	0	0	512	509	0	0	
9	0	0	0	0	519	511	0	0	
10	0	0	0	0	520	512	0	0	
11	0	0	0	0	522	510	0	0	
12	0	0	0	0	522	511	0	0	
13	0	0	0	0	527	513	0	0	
14	0	0	0	0	527	510	0	0	
15	0	0	0	0	525	509	0	0	
0	0	0	0	0	519	507	0	0	
1	0	0	0	0	514	507	0	0	
2	0	0	0	0	510	504	0	0	
3	0	0	0	0	505	505	0	0	
4	0	0	0	0	501	507	0	0	
5	0	0	0	0	497	505	0	0	
6	0	0	0	0	493	506	0	0	
7	0	0	0	0	495	506	0	0	
8	0	0	0	0	501	504	0	0	
9	0	0	0	0	502	508	0	0	
10	0	0	0	0	504	507	0	0	
11	0	0	0	0	508	508	0	0	
12	0	0	0	0	514	508	0	0	
13	0	0	0	0	519	510	0	0	
14	0	0	0	0	523	512	0	0	
15	0	0	0	0	521	510	0	0	
0	0	0	0	0	522	511	0	0	
1	0	0	0	0	522	511	0	0	
2	0	0	0	0	526	511	0	0	
3	0	0	0	0	523	511	0	0	
4	0	0	0	0	518	507	0	0	
5	0	0	0	0	514	508	0	0	
6	0	0	0	0	511	506	0	0	
7	0	0	0	0	505	504	0	0	
8	0	0	0	0	499	504	0	0	
9	0	0	0	0	497	504	0	0	
10	0	0	0	0	497	505	0	0	
11	0	0	0	0	496	506	0	0	
12	0	0	0	0	498	506	0	0	
13	0	0	0	0	502	508	0	0	
14	0	0	0	0	504	505	0	0	
15	0	0	0	0	510	509	0	0	
0	0	0	0	0	515	510	0	0	
1	0	0	0	0	519	510	0	0	
2	0	0	0	0	521	513	0	0	
3	0	0	0	0	520	508	0	0	
4	0	0	0	0	521	510	0	0	
5	0	0	0	0	524	513	0	0	
6	0	0	0	0	526	513	0	0	
7	0	0	0	0	523	511	0	0	
8	0	0	0	0	515	510	0	0	
9	0	0	0	0	514	507	0	0	
10	0	0	0	0	508	508	0	0	
11	0	0	0	0	503	506	0	0	
12	0	0	0	0	501	504	0	0	
13	0	0	0	0	498	505	0	0	
14	0	0	0	0	496	504	0	0	
15	0	0	0	0	495	505	0	0	
0	0	0	0	0	499	507	0	0	
1	0	0	0	0	502	507	0	0	
2	0	0	0	0	504	507	0	0	
3	0	0	0	0	510	507	0	0	
4	0	0	0	0	512	509	0	0	
5	0	0	0	0	517	510	0	0	
6	0	0	0	0	523	511	0	0	
7	0	0	0	0	521	510	0	0	
8	0	0	0	0	521	510	0	0	
9	0	0	0	0	525	512	0	0	
10	0	0	0	0	523	510	0	0	
11	0	0	0	0	523	510	0	0	
12	0	0	0	0	518	508	0	0	
13	0	0	0	0	515	508	0	0	
14	0	0	0	0	509	507	0	0	
15	0	0	0	0	505	505	0	0	
0	0	0	0	0	500	503	0	0	
1	0	0	0	0	498	506	0	0	
2	0	0	0	0	496	507	0	0	
3	0	0	0	0	494	504	0	0	
4	0	0	0	0	499	507	0	0	
5	0	0	0	0	507	507	0	0	
6	0	0	0	0	504	507	0	0	
7	0	0	0	0	508	508	0	0	
8	0	0	0	0	514	510	0	0	
9	0	0	0	0	517	510	0	0	
10	0	0	0	0	519	510	0	0	
11	0	0	0	0	520	510	0	0	
12	0	0	0	0	523	510	0	0	
13	0	0	0	0	523	511	0	0	
14	0	0	0	0	524	512	0	0	
15	0	0	0	0	524	511	0	0	
0	0	0	0	0	519	507	0	0	
1	0	0	0	0	514	507	0	0	
2	0	0	0	0	511	507	0	0	
3	0	0	0	0	507	505	0	0	
4	0	0	0	0	502	504	0	0	
5	0	0	0	0	496	506	0	0	
6	0	0	0	0	492	505	0	0	
7	0	0	0	0	494	507	0	0	
8	0	0	0	0	498	506	0	0	
9	0	0	0	0	504	507	0	0	
10	0	0	0	0	507	507	0	0	
11	0	0	0	0	509	508	0	0	
12	0	0	0	0	515	510	0	0	
13	0	0	0	0	521	509	0	0	
14	0	0	0	0	522	511	0	0	
15	0	0	0	0	520	511	0	0	
0	0	0	0	0	522	510	0	0	
1	0	0	0	0	522	510	0	0	
2	0	0	0	0	522	512	0	0	
3	0	0	0	0	523	510	0	0	
4	0	0	0	0	518	507	0	0	
5	0	0	0	0	514	505	0	0	
6	0	0	0	0	510	508	0	0	
7	0	0	0	0	505	507	0	0	
8	0	0	0	0	502	504	0	0	
9	0	0	0	0	499	504	0	0	
10	0	0	0	0	495	505	0	0	
11	0	0	0	0	494	505	0	0	
12	0	0	0	0	499	508	0	0	
13	0	0	0	0	504	509	0	0	
14	0	0	0	0	504	505	0	0	
15	0	0	0	0	508	508	0	0	
0	0	0	0	0	515	509	0	0	
1	0	0	0	0	517	510	0	0	
2	0	0	0	0	521	510	0	0	
3	0	0	0	0	521	508	0	0	
4	0	0	0	0	522	508	0	0	
5	0	0	0	0	526	511	0	0	
6	0	0	0	0	523	512	0	0	
7	0	0	0	0	523	512	0	0	
8	0	0	0	0	521	510	0	0	
9	0	0	0	0	514	508	0	0	
10	0	0	0	0	512	507	0	0	
11	0	0	0	0	505	503	0	0	
12	0	0	0	0	498	505	0	0	
13	0	0	0	0	498	506	0	0	
14	0	0	0	0	494	505	0	0	
15	0	0	0	0	496	507	0	0	
0	0	0	0	0	500	508	0	0	
1	0	0	0	0	504	507	0	0	
2	0	0	0	0	505	507	0	0	
3	0	0	0	0	511	507	0	0	
4	0	0	0	0	512	508	0	0	
5	0	0	0	0	518	508	0	0	
6	0	0	0	0	519	510	0	0	
7	0	0	0	0	519	510	0	0	
8	0	0	0	0	520	511	0	0	
9	0	0	0	0	523	513	0	0	
10	0	0	0	0	520	510	0	0	
11	0	0	0	0	520	511	0	0	
12	0	0	0	0	518	508	0	0	
13	0	0	0	0	515	507	0	0	
14	0	0	0	0	511	507	0	0	
15	0	0	0	0	508	505	0	0	
0	0	0	0	0	502	504	0	0	
1	0	0	0	0	499	506	0	0	
2	0	0	0	0	497	505	0	0	
3	0	0	0	0	498	507	0	0	
4	0	0	0	0	503	508	0	0	
5	0	0	0	0	505	508	0	0	
6	0	0	0	0	507	509	0	0	
7	0	0	0	0	510	508	0	0	
8	0	0	0	0	512	508	0	0	
9	0	0	0	0	515	508	0	0	
10	0	0	0	0	517	510	0	0	
11	0	0	0	0	518	509	0	0	
12	0	0	0	0	518	510	0	0	
13	0	0	0	0	519	508	0	0	
14	0	0	0	0	519	508	0	0	
15	0	0	0	0	520	509	0	0	
0	0	0	0	0	519	510	0	0	
1	0	0	0	0	515	507	0	0	
2	0	0	0	0	513	509	0	0	
3	0	0	0	0	511	508	0	0	
4	0	0	0	0	505	506	0	0	
5	0	0	0	0	506	510	0	0	
6	0	0	0	0	504	505	0	0	
7	0	0	0	0	498	505	0	0	
8	0	0	0	0	501	507	0	0	
9	0	0	0	0	502	506	0	0	
10	0	0	0	0	507	508	0	0	
11	0	0	0	0	511	508	0	0	
12	0	0	0	0	512	510	0	0	
13	0	0	0	0	514	510	0	0	
14	0	0	0	0	515	508	0	0	
15	0	0	0	0	517	508	0	0	
0	0	0	0	0	519	509	0	0	
1	0	0	0	0	515	510	0	0	
2	0	0	0	0	516	510	0	0	
3	0	0	0	0	517	509	0	0	
4	0	0	0	0	514	509	0	0	
5	0	0	0	0	513	508	0	0	
6	0	0	0	0	510	508	0	0	
7	0	0	0	0	509	508	0	0	
8	0	0	0	0	506	507	0	0	
9	0	0	0	0	508	507	0	0	
10	0	0	0	0	508	508	0	0	
11	0	0	0	0	509	508	0	0	
12	0	0	0	0	511	507	0	0	
13	0	0	0	0	512	509	0	0	
14	0	0	0	0	511	508	0	0	
15	0	0	0	0	513	506	0	0	
0	0	0	0	0	513	508	0	0	
1	0	0	0	0	507	504	0	0	
2	0	0	0	0	517	510	0	0	
3	0	0	0	0	519	509	0	0	
4	0	0	0	0	514	509	0	0	
5	0	0	0	0	513	508	0	0	
6	0	0	0	0	512	507	0	0	
7	0	0	0	0	512	508	0	0	
8	0	0	0	0	510	510	0	0	
9	0	0	0	0	507	508	0	0	
10	0	0	0	0	508	508	0	0	
11	0	0	0	0	508	508	0	0	
12	0	0	0	0	507	508	0	0	
13	0	0	0	0	510	508	0	0	
14	0	0	0	0	511	509	0	0	
15	0	0	0	0	511	508	0	0	
0	0	0	0	0	512	509	0	0	
1	0	0	0	0	514	506	0	0	
2	0	0	0	0	511	508	0	0	
3	0	0	0	0	511	508	0	0	
4	0	0	0	0	513	506	0	0	
5	0	0	0	0	511	508	0	0	
6	0	0	0	0	511	507	0	0	
7	0	0	0	0	511	508	0	0	
8	0	0	0	0	511	508	0	0	
9	0	0	0	0	512	509	0	0	
10	0	0	0	0	511	507	0	0	
11	0	0	0	0	510	508	0	0	
12	0	0	0	0	509	510	0	0	
13	0	0	0	0	509	509	0	0	
14	0	0	0	0	509	508	0	0	
15	0	0	0	0	508	508	0	0	
0	0	0	0	0	509	507	0	0	
1	0	0	0	0	511	510	0	0	
2	0	0	0	0	510	508	0	0	
3	0	0	0	0	511	508	0	0	
4	0	0	0	0	511	509	0	0	
5	0	0	0	0	513	508	0	0	
6	0	0	0	0	513	508	0	0	
7	0	0	0	0	512	508	0	0	
8	0	0	0	0	512	508	0	0	
9	0	0	0	0	511	510	0	0	
10	0	0	0	0	512	507	0	0	
11	0	0	0	0	513	506	0	0	
12	0	0	0	0	512	508	0	0	
13	0	0	0	0	511	507	0	0	
14	0	0	0	0	510	506	0	0	
15	0	0	0	0	510	509	0	0	
0	0	0	0	0	508	507	0	0	
1	0	0	0	0	508	507	0	0	
2	0	0	0	0	507	509	0	0	
3	0	0	0	0	509	508	0	0	
4	0	0	0	0	509	508	0	0	
5	0	0	0	0	511	508	0	0	
6	0	0	0	0	510	508	0	0	
7	0	0	0	0	508	507	0	0	
8	0	0	0	0	511	510	0	0	
9	0	0	0	0	511	508	0	0	
10	0	0	0	0	514	510	0	0	
11	0	0	0	0	513	508	0	0	
12	0	0	0	0	514	507	0	0	
13	0	0	0	0	513	509	0	0	
14	0	0	0	0	513	508	0	0	
15	0	0	0	0	513	507	0	0	
0	0	0	0	0	513	507	0	0	
1	0	0	0	0	512	508	0	0	
2	0	0	0	0	511	508	0	0	
3	0	0	0	0	511	508	0	0	
4	0	0	0	0	508	509	0	0	
5	0	0	0	0	508	508	0	0	
6	0	0	0	0	508	508	0	0	
7	0	0	0	0	509	508	0	0	
8	0	0	0	0	510	508	0	0	
9	0	0	0	0	510	508	0	0	
10	0	0	0	0	511	510	0	0	
11	0	0	0	0	513	507	0	0	
12	0	0	0	0	510	507	0	0	
13	0	0	0	0	511	509	0	0	
14	0	0	0	0	510	507	0	0	
15	0	0	0	0	511	507	0	0	
0	0	0	0	0	512	508	0	0	
1	0	0	0	0	514	509	0	0	
2	0	0	0	0	513	509	0	0	
3	0	0	0	0	513	508	0	0	
4	0	0	0	0	512	507	0	0	
5	0	0	0	0	512	508	0	0	
6	0	0	0	0	510	508	0	0	
7	0	0	0	0	511	508	0	0	
8	0	0	0	0	508	508	0	0	
9	0	0	0	0	510	508	0	0	
10	0	0	0	0	508	507	0	0	
11	0	0	0	0	509	507	0	0	
12	0	0	0	0	508	507	0	0	
13	0	0	0	0	512	508	0	0	
14	0	0	0	0	511	508	0	0	
15	0	0	0	0	510	506	0	0	
0	0	0	0	0	511	505	0	0	
1	0	0	0	0	511	508	0	0	
2	0	0	0	0	512	507	0	0	
3	0	0	0	0	513	508	0	0	
4	0	0	0	0	513	508	0	0	
5	0	0	0	0	512	509	0	0	
6	0	0	0	0	514	508	0	0	
7	0	0	0	0	511	508	0	0	
8	0	0	0	0	515	508	0	0	
9	0	0	0	0	512	509	0	0	
10	0	0	0	0	512	508	0	0	
11	0	0	0	0	510	508	0	0	
12	0	0	0	0	508	509	0	0	
13	0	0	0	0	509	511	0	0	
14	0	0	0	0	508	507	0	0	
15	0	0	0	0	509	508	0	0	
0	0	0	0	0	510	507	0	0	
1	0	0	0	0	508	506	0	0	
2	0	0	0	0	509	508	0	0	
3	0	0	0	0	512	507	0	0	
4	0	0	0	0	512	508	0	0	
5	0	0	0	0	512	508	0	0	
6	0	0	0	0	512	507	0	0	
7	0	0	0	0	514	508	0	0	
8	0	0	0	0	512	508	0	0	
9	0	0	0	0	512	509	0	0	
10	0	0	0	0	513	509	0	0	
11	0	0	0	0	511	508	0	0	
12	0	0	0	0	513	508	0	0	
13	0	0	0	0	511	507	0	0	
14	0	0	0	0	511	508	0	0	
15	0	0	0	0	510	508	0	0	
0	0	0	0	0	510	509	0	0	
1	0	0	0	0	508	510	0	0	
2	0	0	0	0	509	508	0	0	
3	0	0	0	0	510	507	0	0	
4	0	0	0	0	510	508	0	0	
5	0	0	0	0	509	508	0	0	
6	0	0	0	0	511	508	0	0	
7	0	0	0	0	511	508	0	0	
8	0	0	0	0	510	508	0	0	
9	0	0	0	0	509	511	0	0	
10	0	0	0	0	511	507	0	0	
11	0	0	0	0	514	508	0	0	
12	0	0	0	0	513	506	0	0	
13	0	0	0	0	515	507	0	0	
14	0	0	0	0	511	509	0	0	
15	0	0	0	0	513	508	0	0	
0	0	0	0	0	512	509	0	0	
1	0	0	0	0	511	509	0	0	
2	0	0	0	0	511	506	0	0	
3	0	0	0	0	509	507	0	0	
4	0	0	0	0	509	508	0	0	
5	0	0	0	0	507	508	0	0	
6	0	0	0	0	508	508	0	0	
7	0	0	0	0	509	508	0	0	
8	0	0	0	0	509	507	0	0	
9	0	0	0	0	513	507	0	0	
10	0	0	0	0	511	507	0	0	
11	0	0	0	0	508	507	0	0	
12	0	0	0	0	511	508	0	0	
13	0	0	0	0	511	509	0	0	
14	0	0	0	0	513	507	0	0	
15	0	0	0	0	513	508	0	0	
0	0	0	0	0	513	508	0	0	
1	0	0	0	0	515	508	0	0	
2	0	0	0	0	513	510	0	0	
3	0	0	0	0	513	508	0	0	
4	0	0	0	0	513	508	0	0	
5	0	0	0	0	510	509	0	0	
6	0	0	0	0	510	508	0	0	
7	0	0	0	0	509	510	0	0	
8	0	0	0	0	507	509	0	0	
9	0	0	0	0	509	504	0	0	
10	0	0	0	0	511	507	0	0	
11	0	0	0	0	510	508	0	0	
12	0	0	0	0	509	507	0	0	
13	0	0	0	0	508	508	0	0	
14	0	0	0	0	511	507	0	0	
15	0	0	0	0	508	508	0	0	
0	0	0	0	0	512	508	0	0	
1	0	0	0	0	512	508	0	0	
2	0	0	0	0	514	508	0	0	
3	0	0	0	0	513	508	0	0	
4	0	0	0	0	512	510	0	0	
5	0	0	0	0	513	508	0	0	
6	0	0	0	0	514	508	0	0	
7	0	0	0	0	512	507	0	0	
8	0	0	0	0	512	508	0	0	
9	0	0	0	0	512	509	0	0	
10	0	0	0	0	510	509	0	0	
11	0	0	0	0	508	508	0	0	
12	0	0	0	0	507	508	0	0	
13	0	0	0	0	510	508	0	0	
14	0	0	0	0	509	508	0	0	
15	0	0	0	0	508	508	0	0	
0	0	0	0	0	510	507	0	0	
1	0	0	0	0	511	508	0	0	
2	0	0	0	0	511	507	0	0	
3	0	0	0	0	510	508	0	0	
4	0	0	0	0	512	507	0	0	
5	0	0	0	0	512	508	0	0	
6	0	0	0	0	513	507	0	0	
7	0	0	0	0	513	509	0	0	
8	0	0	0	0	513	510	0	0	
9	0	0	0	0	512	511	0	0	
10	0	0	0	0	515	510	0	0	
11	0	0	0	0	509	508	0	0	
12	0	0	0	0	509	507	0	0	
13	0	0	0	0	510	506	0	0	
14	0	0	0	0	511	509	0	0	
15	0	0	0	0	511	509	0	0	
0	0	0	0	0	510	503	0	0	
1	0	0	0	0	509	507	0	0	
2	0	0	0	0	511	508	0	0	
3	0	0	0	0	511	509	0	0	
4	0	0	0	0	509	506	0	0	
5	0	0	0	0	512	506	0	0	
6	0	0	0	0	510	507	0	0	
7	0	0	0	0	511	509	0	0	
8	0	0	0	0	511	508	0	0	
9	0	0	0	0	513	511	0	0	
10	0	0	0	0	513	509	0	0	
11	0	0	0	0	512	508	0	0	
12	0	0	0	0	513	507	0	0	
13	0	0	0	0	513	507	0	0	
14	0	0	0	0	514	510	0	0	
15	0	0	0	0	514	508	0	0	
0	0	0	0	0	512	509	0	0	
1	0	0	0	0	510	504	0	0	
2	0	0	0	0	510	506	0	0	
3	0	0	0	0	510	508	0	0	
4	0	0	0	0	508	508	0	0	
5	0	0	0	0	509	508	0	0	
6	0	0	0	0	510	508	0	0	
7	0	0	0	0	508	509	0	0	
8	0	0	0	0	508	509	0	0	
9	0	0	0	0	510	508	0	0	
10	0	0	0	0	511	508	0	0	
11	0	0	0	0	512	508	0	0	
12	0	0	0	0	512	509	0	0	
13	0	0	0	0	515	507	0	0	
14	0	0	0	0	510	508	0	0	
15	0	0	0	0	511	507	0	0	
0	0	0	0	0	513	506	0	0	
1	0	0	0	0	513	510	0	0	
2	0	0	0	0	512	508	0	0	
3	0	0	0	0	512	506	0	0	
4	0	0	0	0	512	507	0	0	
5	0	0	0	0	509	508	0	0	
6	0	0	0	0	509	509	0	0	
7	0	0	0	0	511	507	0	0	
8	0	0	0	0	510	508	0	0	
9	0	0	0	0	508	508	0	0	
10	0	0	0	0	509	508	0	0	
11	0	0	0	0	510	505	0	0	
12	0	0	0	0	509	508	0	0	
13	0	0	0	0	511	510	0	0	
14	0	0	0	0	511	510	0	0	
15	0	0	0	0	513	507	0	0	
0	0	0	0	0	511	508	0	0	
1	0	0	0	0	508	507	0	0	
2	0	0	0	0	511	508	0	0	
3	0	0	0	0	511	507	0	0	
4	0	0	0	0	512	508	0	0	
5	0	0	0	0	512	507	0	0	
6	0	0	0	0	512	509	0	0	
7	0	0	0	0	511	508	0	0	
8	0	0	0	0	512	507	0	0	
9	0	0	0	0	513	508	0	0	
10	0	0	0	0	511	511	0	0	
11	0	0	0	0	511	508	0	0	
12	0	0	0	0	510	510	0	0	
13	0	0	0	0	510	507	0	0	
14	0	0	0	0	508	510	0	0	
15	0	0	0	0	508	507	0	0	
0	0	0	0	0	509	508	0	0	
1	0	0	0	0	510	508	0	0	
2	0	0	0	0	510	507	0	0	
3	0	0	0	0	512	507	0	0	
4	0	0	0	0	512	507	0	0	
5	0	0	0	0	511	510	0	0	
6	0	0	0	0	513	508	0	0	
7	0	0	0	0	512	508	0	0	
8	0	0	0	0	513	510	0	0	
9	0	0	0	0	511	508	0	0	
10	0	0	0	0	512	508	0	0	
11	0	0	0	0	512	509	0	0	
12	0	0	0	0	512	507	0	0	
13	0	0	0	0	511	505	0	0	
14	0	0	0	0	512	509	0	0	
15	0	0	0	0	509	508	0	0	
0	0	0	0	0	509	509	0	0	
1	0	0	0	0	508	509	0	0	
2	0	0	0	0	510	509	0	0	
3	0	0	0	0	511	508	0	0	
4	0	0	0	0	510	508	0	0	
5	0	0	0	0	512	508	0	0	
6	0	0	0	0	513	507	0	0	
7	0	0	0	0	511	508	0	0	
8	0	0	0	0	512	508	0	0	
9	0	0	0	0	511	510	0	0	
10	0	0	0	0	513	509	0	0	
11	0	0	0	0	514	507	0	0	
12	0	0	0	0	511	507	0	0	
13	0	0	0	0	512	507	0	0	
14	0	0	0	0	513	508	0	0	
15	0	0	0	0	512	507	0	0	
0	0	0	0	0	510	508	0	0	
1	0	0	0	0	511	509	0	0	
2	0	0	0	0	511	508	0	0	
3	0	0	0	0	511	507	0	0	
4	0	0	0	0	510	509	0	0	
5	0	0	0	0	510	508	0	0	
6	0	0	0	0	509	508	0	0	
7	0	0	0	0	508	509	0	0	
8	0	0	0	0	510	509	0	0	
9	0	0	0	0	511	509	0	0	
10	0	0	0	0	509	508	0	0	
11	0	0	0	0	511	508	0	0	
12	0	0	0	0	512	505	0	0	
13	0	0	0	0	512	509	0	0	
14	0	0	0	0	513	509	0	0	
15	0	0	0	0	511	507	0	0	
0	0	0	0	0	512	509	0	0	
1	0	0	0	0	513	506	0	0	
2	0	0	0	0	513	507	0	0	
3	0	0	0	0	515	508	0	0	
4	0	0	0	0	513	507	0	0	
5	0	0	0	0	510	509	0	0	
6	0	0	0	0	509	508	0	0	
7	0	0	0	0	508	508	0	0	
8	0	0	0	0	509	508	0	0	
9	0	0	0	0	509	508	0	0	
10	0	0	0	0	510	508	0	0	
11	0	0	0	0	509	508	0	0	
12	0	0	0	0	510	508	0	0	
13	0	0	0	0	510	508	0	0	
14	0	0	0	0	509	508	0	0	
15	0	0	0	0	511	507	0	0	
0	0	0	0	0	512	510	0	0	
1	0	0	0	0	511	508	0	0	
2	0	0	0	0	512	510	0	0	
3	0	0	0	0	513	508	0	0	
4	0	0	0	0	512	509	0	0	
5	0	0	0	0	514	508	0	0	
6	0	0	0	0	514	508	0	0	
7	0	0	0	0	511	508	0	0	
8	0	0	0	0	512	508	0	0	
9	0	0	0	0	512	506	0	0	
10	0	0	0	0	510	507	0	0	
11	0	0	0	0	509	508	0	0	
12	0	0	0	0	510	507	0	0	
13	0	0	0	0	508	506	0	0	
14	0	0	0	0	507	508	0	0	
15	0	0	0	0	511	507	0	0	
0	0	0	0	0	510	507	0	0	
1	0	0	0	0	510	509	0	0	
2	0	0	0	0	510	509	0	0	
3	0	0	0	0	511	507	0	0	
4	0	0	0	0	513	508	0	0	
5	0	0	0	0	513	507	0	0	
6	0	0	0	0	513	509	0	0	
7	0	0	0	0	513	509	0	0	
8	0	0	0	0	512	510	0	0	
9	0	0	0	0	512	508	0	0	
10	0	0	0	0	512	508	0	0	
11	0	0	0	0	511	509	0	0	
12	0	0	0	0	511	509	0	0	
13	0	0	0	0	511	509	0	0	
14	0	0	0	0	510	508	0	0	
15	0	0	0	0	509	509	0	0	
0	0	0	0	0	511	508	0	0	
1	0	0	0	0	510	508	0	0	
2	0	0	0	0	508	506	0	0	
3	0	0	0	0	509	509	0	0	
4	0	0	0	0	509	507	0	0	
5	0	0	0	0	511	506	0	0	
6	0	0	0	0	509	505	0	0	
7	0	0	0	0	510	510	0	0	
8	0	0	0	0	513	508	0	0	
9	0	0	0	0	511	507	0	0	
10	0	0	0	0	512	507	0	0	
11	0	0	0	0	513	508	0	0	
12	0	0	0	0	512	509	0	0	
13	0	0	0	0	512	508	0	0	
14	0	0	0	0	514	508	0	0	
15	0	0	0	0	511	507	0	0	
0	0	0	0	0	511	508	0	0	
1	0	0	0	0	511	508	0	0	
2	0	0	0	0	511	507	0	0	
3	0	0	0	0	509	507	0	0	
4	0	0	0	0	510	510	0	0	
5	0	0	0	0	508	508	0	0	
6	0	0	0	0	508	507	0	0	
7	0	0	0	0	509	505	0	0	
8	0	0	0	0	510	508	0	0	
9	0	0	0	0	510	509	0	0	
10	0	0	0	0	512	509	0	0	
11	0	0	0	0	512	510	0	0	
12	0	0	0	0	511	508	0	0	
13	0	0	0	0	511	509	0	0	
14	0	0	0	0	513	506	0	0	
15	0	0	0	0	515	507	0	0	
0	0	0	0	0	514	507	0	0	
1	0	0	0	0	515	508	0	0	
2	0	0	0	0	513	506	0	0	
3	0	0	0	0	512	508	0	0	
4	0	0	0	0	513	509	0	0	
5	0	0	0	0	511	508	0	0	
6	0	0	0	0	509	508	0	0	
7	0	0	0	0	508	509	0	0	
8	0	0	0	0	511	508	0	0	
9	0	0	0	0	509	508	0	0	
10	0	0	0	0	506	506	0	0	
11	0	0	0	0	508	508	0	0	
12	0	0	0	0	511	508	0	0	
13	0	0	0	0	511	507	0	0	
14	0	0	0	0	510	509	0	0	
15	0	0	0	0	509	508	0	0	
0	0	0	0	0	514	508	0	0	
1	0	0	0	0	513	508	0	0	
2	0	0	0	0	513	508	0	0	
3	0	0	0	0	514	510	0	0	
4	0	0	0	0	512	508	0	0	
5	0	0	0	0	514	507	0	0	
6	0	0	0	0	512	507	0	0	
7	0	0	0	0	510	508	0	0	
8	0	0	0	0	513	507	0	0	
9	0	0	0	0	510	507	0	0	
10	0	0	0	0	512	509	0	0	
11	0	0	0	0	508	506	0	0	
12	0	0	0	0	510	507	0	0	
13	0	0	0	0	508	509	0	0	
14	0	0	0	0	508	508	0	0	
15	0	0	0	0	510	508	0	0	
0	0	0	0	0	509	508	0	0	
1	0	0	0	0	510	507	0	0	
2	0	0	0	0	511	509	0	0	
3	0	0	0	0	509	508	0	0	
4	0	0	0	0	511	507	0	0	
5	0	0	0	0	512	509	0	0	
6	0	0	0	0	512	508	0	0	
7	0	0	0	0	515	508	0	0	
8	0	0	0	0	514	509	0	0	
9	0	0	0	0	513	508	0	0	
10	0	0	0	0	512	508	0	0	
11	0	0	0	0	511	509	0	0	
12	0	0	0	0	512	509	0	0	
13	0	0	0	0	511	507	0	0	
14	0	0	0	0	509	508	0	0	
15	0	0	0	0	509	507	0	0	
0	0	0	0	0	511	507	0	0	
1	0	0	0	0	510	507	0	0	
2	0	0	0	0	511	511	0	0	
3	0	0	0	0	509	508	0	0	
4	0	0	0	0	511	508	0	0	
5	0	0	0	0	511	506	0	0	
6	0	0	0	0	512	506	0	0	
7	0	0	0	0	511	508	0	0	
8	0	0	0	0	510	508	0	0	
9	0	0	0	0	511	510	0	0	
10	0	0	0	0	513	506	0	0	
11	0	0	0	0	511	508	0	0	
12	0	0	0	0	512	508	0	0	
13	0	0	0	0	511	509	0	0	
14	0	0	0	0	512	509	0	0	
15	0	0	0	0	510	508	0	0	
0	0	0	0	0	510	509	0	0	
1	0	0	0	0	512	508	0	0	
2	0	0	0	0	511	508	0	0	
3	0	0	0	0	513	509	0	0	
4	0	0	0	0	509	509	0	0	
5	0	0	0	0	508	508	0	0	
6	0	0	0	0	508	508	0	0	
7	0	0	0	0	509	508	0	0	
8	0	0	0	0	509	508	0	0	
9	0	0	0	0	510	507	0	0	
10	0	0	0	0	512	507	0	0	
11	0	0	0	0	510	506	0	0	
12	0	0	0	0	513	508	0	0	
13	0	0	0	0	512	509	0	0	
14	0	0	0	0	513	508	0	0	
15	0	0	0	0	513	508	0	0	
0	0	0	0	0	513	509	0	0	
1	0	0	0	0	512	508	0	0	
2	0	0	0	0	511	506	0	0	
3	0	0	0	0	510	507	0	0	
4	0	0	0	0	512	508	0	0	
5	0	0	0	0	510	507	0	0	
6	0	0	0	0	511	506	0	0	
7	0	0	0	0	509	508	0	0	
8	0	0	0	0	511	509	0	0	
9	0	0	0	0	509	508	0	0	
10	0	0	0	0	508	507	0	0	
11	0	0	0	0	510	510	0	0	
12	0	0	0	0	512	508	0	0	
13	0	0	0	0	512	507	0	0	
14	0	0	0	0	512	508	0	0	
15	0	0	0	0	511	508	0	0	
0	0	0	0	0	511	509	0	0	
1	0	0	0	0	510	508	0	0	
2	0	0	0	0	512	508	0	0	
3	0	0	0	0	512	507	0	0	
4	0	0	0	0	512	508	0	0	
5	0	0	0	0	514	508	0	0	
6	0	0	0	0	512	508	0	0	
7	0	0	0	0	511	509	0	0	
8	0	0	0	0	512	508	0	0	
9	0	0	0	0	513	507	0	0	
10	0	0	0	0	510	508	0	0	
11	0	0	0	0	509	509	0	0	
12	0	0	0	0	508	509	0	0	
13	0	0	0	0	510	508	0	0	
14	0	0	0	0	508	510	0	0	
15	0	0	0	0	510	509	0	0	
0	0	0	0	0	509	507	0	0	
1	0	0	0	0	512	508	0	0	
2	0	0	0	0	510	508	0	0	
3	0	0	0	0	512	508	0	0	
4	0	0	0	0	512	508	0	0	
5	0	0	0	0	510	509	0	0	
6	0	0	0	0	511	510	0	0	
7	0	0	0	0	511	507	0	0	
8	0	0	0	0	513	507	0	0	
9	0	0	0	0	514	508	0	0	
10	0	0	0	0	511	508	0	0	
11	0	0	0	0	512	507	0	0	
12	0	0	0	0	512	507	0	0	
13	0	0	0	0	511	507	0	0	
14	0	0	0	0	510	507	0	0	
15	0	0	0	0	511	507	0	0	
0	0	0	0	0	509	507	0	0	
1	0	0	0	0	510	510	0	0	
2	0	0	0	0	508	509	0	0	
3	0	0	0	0	511	509	0	0	
4	0	0	0	0	511	508	0	0	
5	0	0	0	0	512	508	0	0	
6	0	0	0	0	511	507	0	0	
7	0	0	0	0	511	507	0	0	
8	0	0	0	0	510	510	0	0	
9	0	0	0	0	511	508	0	0	
10	0	0	0	0	512	508	0	0	
11	0	0	0	0	515	509	0	0	
12	0	0	0	0	513	507	0	0	
13	0	0	0	0	514	505	0	0	
14	0	0	0	0	511	508	0	0	
15	0	0	0	0	512	509	0	0	
0	0	0	0	0	512	508	0	0	
1	0	0	0	0	512	509	0	0	
2	0	0	0	0	512	508	0	0	
3	0	0	0	0	511	508	0	0	
4	0	0	0	0	508	508	0	0	
5	0	0	0	0	507	507	0	0	
6	0	0	0	0	508	507	0	0	
7	0	0	0	0	511	507	0	0	
8	0	0	0	0	511	508	0	0	
9	0	0	0	0	510	507	0	0	
10	0	0	0	0	511	507	0	0	
11	0	0	0	0	513	507	0	0	
12	0	0	0	0	512	507	0	0	
13	0	0	0	0	510	507	0	0	
14	0	0	0	0	511	510	0	0	
15	0	0	0	0	512	508	0	0	
0	0	0	0	0	512	509	0	0	
1	0	0	0	0	515	509	0	0	
2	0	0	0	0	513	509	0	0	
3	0	0	0	0	513	509	0	0	
4	0	0	0	0	511	508	0	0	
5	0	0	0	0	510	508	0	0	
6	0	0	0	0	510	507	0	0	
7	0	0	0	0	509	507	0	0	
8	0	0	0	0	508	507	0	0	
9	0	0	0	0	509	510	0	0	
10	0	0	0	0	508	509	0	0	
11	0	0	0	0	508	507	0	0	
12	0	0	0	0	510	508	0	0	
13	0	0	0	0	511	506	0	0	
14	0	0	0	0	511	507	0	0	
15	0	0	0	0	512	507	0	0	
0	0	0	0	0	511	508	0	0	
1	0	0	0	0	514	508	0	0	
2	0	0	0	0	512	508	0	0	
3	0	0	0	0	514	509	0	0	
4	0	0	0	0	513	507	0	0	
5	0	0	0	0	515	508	0	0	
6	0	0	0	0	511	507	0	0	
7	0	0	0	0	512	507	0	0	
8	0	0	0	0	511	510	0	0	
9	0	0	0	0	510	508	0	0	
10	0	0	0	0	509	508	0	0	
11	0	0	0	0	511	509	0	0	
12	0	0	0	0	510	507	0	0	
13	0	0	0	0	509	509	0	0	
14	0	0	0	0	508	509	0	0	
15	0	0	0	0	508	505	0	0	
0	0	0	0	0	509	507	0	0	
1	0	0	0	0	507	509	0	0	
2	0	0	0	0	511	508	0	0	
3	0	0	0	0	510	508	0	0	
4	0	0	0	0	511	509	0	0	
5	0	0	0	0	513	508	0	0	
6	0	0	0	0	515	507	0	0	
7	0	0	0	0	513	512	0	0	
8	0	0	0	0	513	508	0	0	
9	0	0	0	0	511	509	0	0	
10	0	0	0	0	511	508	0	0	
11	0	0	0	0	512	507	0	0	
12	0	0	0	0	512	509	0	0	
13	0	0	0	0	511	508	0	0	
14	0	0	0	0	510	508	0	0	
15	0	0	0	0	511	505	0	0	
0	0	0	0	0	510	508	0	0	
1	0	0	0	0	510	508	0	0	
2	0	0	0	0	512	509	0	0	
3	0	0	0	0	508	508	0	0	
4	0	0	0	0	509	508	0	0	
5	0	0	0	0	510	508	0	0	
6	0	0	0	0	511	509	0	0	
7	0	0	0	0	511	508	0	0	
8	0	0	0	0	511	508	0	0	
9	0	0	0	0	512	508	0	0	
10	0	0	0	0	514	509	0	0	
11	0	0	0	0	511	509	0	0	
12	0	0	0	0	513	509	0	0	
13	0	0	0	0	511	508	0	0	
14	0	0	0	0	511	508	0	0	
15	0	0	0	0	511	507	0	0	
0	0	0	0	0	512	509	0	0	
1	0	0	0	0	511	507	0	0	
2	0	0	0	0	508	508	0	0	
3	0	0	0	0	510	508	0	0	
4	0	0	0	0	510	508	0	0	
5	0	0	0	0	510	508	0	0	
6	0	0	0	0	510	507	0	0	
7	0	0	0	0	509	508	0	0	
8	0	0	0	0	508	507	0	0	
9	0	0	0	0	512	510	0	0	
10	0	0	0	0	512	507	0	0	
11	0	0	0	0	512	508	0	0	
12	0	0	0	0	511	508	0	0	
13	0	0	0	0	511	507	0	0	
14	0	0	0	0	513	509	0	0	
15	0	0	0	0	512	508	0	0	
0	0	0	0	0	511	507	0	0	
1	0	0	0	0	513	509	0	0	
2	0	0	0	0	513	508	0	0	
3	0	0	0	0	511	508	0	0	
4	0	0	0	0	510	510	0	0	
5	0	0	0	0	510	510	0	0	
6	0	0	0	0	511	508	0	0	
7	0	0	0	0	509	507	0	0	
8	0	0	0	0	510	507	0	0	
9	0	0	0	0	511	509	0	0	
10	0	0	0	0	509	507	0	0	
11	0	0	0	0	508	508	0	0	
12	0	0	0	0	510	507	0	0	
13	0	0	0	0	509	508	0	0	
14	0	0	0	0	511	509	0	0	
15	0	0	0	0	511	509	0	0	
0	0	0	0	0	513	510	0	0	
1	0	0	0	0	512	507	0	0	
2	0	0	0	0	513	507	0	0	
3	0	0	0	0	514	507	0	0	
4	0	0	0	0	512	509	0	0	
5	0	0	0	0	512	508	0	0	
6	0	0	0	0	514	506	0	0	
7	0	0	0	0	511	509	0	0	
8	0	0	0	0	512	506	0	0	
9	0	0	0	0	511	510	0	0	
10	0	0	0	0	511	508	0	0	
11	0	0	0	0	510	506	0	0	
12	0	0	0	0	511	510	0	0	
13	0	0	0	0	510	508	0	0	
14	0	0	0	0	508	507	0	0	
15	0	0	0	0	509	506	0	0	
0	0	0	0	0	512	508	0	0	
1	0	0	0	0	509	511	0	0	
2	0	0	0	0	512	509	0	0	
3	0	0	0	0	513	508	0	0	
4	0	0	0	0	512	508	0	0	
5	0	0	0	0	512	508	0	0	
6	0	0	0	0	512	508	0	0	
7	0	0	0	0	514	508	0	0	
8	0	0	0	0	513	507	0	0	
9	0	0	0	0	513	507	0	0	
10	0	0	0	0	511	508	0	0	
11	0	0	0	0	512	507	0	0	
12	0	0	0	0	510	506	0	0	
13	0	0	0	0	512	508	0	0	
14	0	0	0	0	511	509	0	0	
15	0	0	0	0	509	509	0	0	
0	0	0	0	0	510	510	0	0	
1	0	0	0	0	510	509	0	0	
2	0	0	0	0	508	508	0	0	
3	0	0	0	0	511	508	0	0	
4	0	0	0	0	511	508	0	0	
5	0	0	0	0	511	507	0	0	
6	0	0	0	0	510	509	0	0	
7	0	0	0	0	511	508	0	0	
8	0	0	0	0	511	509	0	0	
9	0	0	0	0	514	510	0	0	
10	0	0	0	0	512	508	0	0	
11	0	0	0	0	513	507	0	0	
12	0	0	0	0	512	508	0	0	
13	0	0	0	0	511	509	0	0	
14	0	0	0	0	512	508	0	0	
15	0	0	0	0	512	509	0	0	
0	0	0	0	0	512	510	0	0	
1	0	0	0	0	511	509	0	0	
2	0	0	0	0	512	507	0	0	
3	0	0	0	0	508	507	0	0	
4	0	0	0	0	510	507	0	0	
5	0	0	0	0	508	507	0	0	
6	0	0	0	0	509	507	0	0	
7	0	0	0	0	510	508	0	0	
8	0	0	0	0	512	508	0	0	
9	0	0	0	0	511	509	0	0	
10	0	0	0	0	509	511	0	0	
11	0	0	0	0	513	507	0	0	
12	0	0	0	0	512	508	0	0	
13	0	0	0	0	513	510	0	0	
14	0	0	0	0	511	508	0	0	
15	0	0	0	0	510	507	0	0	
0	0	0	0	0	512	508	0	0	
1	0	0	0	0	514	507	0	0	
2	0	0	0	0	512	509	0	0	
3	0	0	0	0	512	508	0	0	
4	0	0	0	0	513	506	0	0	
5	0	0	0	0	511	509	0	0	
6	0	0	0	0	511	508	0	0	
7	0	0	0	0	509	508	0	0	
8	0	0	0	0	511	507	0	0	
9	0	0	0	0	508	508	0	0	
10	0	0	0	0	510	509	0	0	
11	0	0	0	0	509	505	0	0	
12	0	0	0	0	512	507	0	0	
13	0	0	0	0	512	510	0	0	
14	0	0	0	0	510	509	0	0	
15	0	0	0	0	510	506	0	0	
0	0	0	0	0	512	507	0	0	
1	0	0	0	0	512	508	0	0	
2	0	0	0	0	513	508	0	0	
3	0	0	0	0	513	508	0	0	
4	0	0	0	0	513	508	0	0	
5	0	0	0	0	513	510	0	0	
6	0	0	0	0	513	507	0	0	
7	0	0	0	0	512	510	0	0	
8	0	0	0	0	511	510	0	0	
9	0	0	0	0	510	509	0	0	
10	0	0	0	0	510	507	0	0	
11	0	0	0	0	512	507	0	0	
12	0	0	0	0	508	510	0	0	
13	0	0	0	0	509	507	0	0	
14	0	0	0	0	510	508	0	0	
15	0	0	0	0	507	508	0	0	
0	0	0	0	0	510	510	0	0	
1	0	0	0	0	513	509	0	0	
2	0	0	0	0	510	508	0	0	
3	0	0	0	0	511	510	0	0	
4	0	0	0	0	511	506	0	0	
5	0	0	0	0	508	507	0	0	
6	0	0	0	0	513	507	0	0	
7	0	0	0	0	513	509	0	0	
8	0	0	0	0	513	509	0	0	
9	0	0	0	0	514	507	0	0	
10	0	0	0	0	513	507	0	0	
11	0	0	0	0	513	509	0	0	
12	0	0	0	0	513	508	0	0	
13	0	0	0	0	510	508	0	0	
14	0	0	0	0	509	509	0	0	
15	0	0	0	0	512	508	0	0	
0	0	0	0	0	513	508	0	0	
1	0	0	0	0	510	509	0	0	
2	0	0	0	0	511	508	0	0	
3	0	0	0	0	508	507	0	0	
4	0	0	0	0	511	507	0	0	
5	0	0	0	0	510	509	0	0	
6	0	0	0	0	510	508	0	0	
7	0	0	0	0	512	508	0	0	
8	0	0	0	0	513	509	0	0	
9	0	0	0	0	510	507	0	0	
10	0	0	0	0	510	507	0	0	
11	0	0	0	0	515	508	0	0	
12	0	0	0	0	514	508	0	0	
13	0	0	0	0	510	510	0	0	
14	0	0	0	0	512	508	0	0	
15	0	0	0	0	511	507	0	0	
0	0	0	0	0	513	509	0	0	
1	0	0	0	0	512	508	0	0	
2	0	0	0	0	511	507	0	0	
3	0	0	0	0	509	511	0	0	
4	0	0	0	0	508	508	0	0	
5	0	0	0	0	507	508	0	0	
6	0	0	0	0	510	508	0	0	
7	0	0	0	0	508	509	0	0	
8	0	0	0	0	510	509	0	0	
9	0	0	0	0	512	508	0	0	
10	0	0	0	0	510	508	0	0	
11	0	0	0	0	507	507	0	0	
12	0	0	0	0	511	507	0	0	
13	0	0	0	0	512	508	0	0	
14	0	0	0	0	513	508	0	0	
15	0	0	0	0	513	510	0	0	
0	0	0	0	0	511	509	0	0	
1	0	0	0	0	512	508	0	0	
2	0	0	0	0	514	508	0	0	
3	0	0	0	0	512	507	0	0	
4	0	0	0	0	513	509	0	0	
5	0	0	0	0	512	508	0	0	
6	0	0	0	0	511	506	0	0	
7	0	0	0	0	510	509	0	0	
8	0	0	0	0	508	508	0	0	
9	0	0	0	0	508	508	0	0	
10	0	0	0	0	508	505	0	0	
11	0	0	0	0	509	510	0	0	
12	0	0	0	0	511	507	0	0	
13	0	0	0	0	512	509	0	0	
14	0	0	0	0	510	509	0	0	
15	0	0	0	0	509	508	0	0	
0	0	0	0	0	513	508	0	0	
1	0	0	0	0	513	509	0	0	
2	0	0	0	0	513	508	0	0	
3	0	0	0	0	512	508	0	0	
4	0	0	0	0	511	508	0	0	
5	0	0	0	0	512	508	0	0	
6	0	0	0	0	512	508	0	0	
7	0	0	0	0	511	508	0	0	
8	0	0	0	0	513	508	0	0	
9	0	0	0	0	511	507	0	0	
10	0	0	0	0	511	507	0	0	
11	0	0	0	0	510	506	0	0	
12	0	0	0	0	510	508	0	0	
13	0	0	0	0	508	509	0	0	
14	0	0	0	0	509	509	0	0	
15	0	0	0	0	509	508	0	0	
0	0	0	0	0	510	508	0	0	
1	0	0	0	0	509	506	0	0	
2	0	0	0	0	510	507	0	0	
3	0	0	0	0	508	508	0	0	
4	0	0	0	0	511	509	0	0	
5	0	0	0	0	513	508	0	0	
6	0	0	0	0	513	509	0	0	
7	0	0	0	0	512	508	0	0	
8	0	0	0	0	514	509	0	0	
9	0	0	0	0	515	508	0	0	
10	0	0	0	0	512	509	0	0	
11	0	0	0	0	513	509	0	0	
12	0	0	0	0	513	510	0	0	
13	0	0	0	0	510	508	0	0	
14	0	0	0	0	513	508	0	0	
15	0	0	0	0	511	509	0	0	
0	0	0	0	0	508	507	0	0	
1	0	0	0	0	507	506	0	0	
2	0	0	0	0	507	508	0	0	
3	0	0	0	0	511	507	0	0	
4	0	0	0	0	510	507	0	0	
5	0	0	0	0	512	507	0	0	
6	0	0	0	0	510	508	0	0	
7	0	0	0	0	512	509	0	0	
8	0	0	0	0	511	509	0	0	
9	0	0	0	0	511	508	0	0	
10	0	0	0	0	511	508	0	0	
11	0	0	0	0	512	508	0	0	
12	0	0	0	0	511	509	0	0	
13	0	0	0	0	513	510	0	0	
14	0	0	0	0	511	508	0	0	
15	0	0	0	0	512	508	0	0	
0	0	0	0	0	511	508	0	0	
1	0	0	0	0	513	508	0	0	
2	0	0	0	0	511	508	0	0	
3	0	0	0	0	510	508	0	0	
4	0	0	0	0	510	507	0	0	
5	0	0	0	0	511	510	0	0	
6	0	0	0	0	510	508	0	0	
7	0	0	0	0	510	507	0	0	
8	0	0	0	0	508	508	0	0	
9	0	0	0	0	510	506	0	0	
10	0	0	0	0	510	508	0	0	
11	0	0	0	0	511	508	0	0	
12	0	0	0	0	512	509	0	0	
13	0	0	0	0	511	509	0	0	
14	0	0	0	0	512	508	0	0	
15	0	0	0	0	512	509	0	0	
0	0	0	0	0	513	509	0	0	
1	0	0	0	0	512	508	0	0	
2	0	0	0	0	511	507	0	0	
3	0	0	0	0	511	507	0	0	
4	0	0	0	0	510	509	0	0	
5	0	0	0	0	513	507	0	0	
6	0	0	0	0	511	508	0	0	
7	0	0	0	0	513	507	0	0	
8	0	0	0	0	510	510	0	0	
9	0	0	0	0	508	508	0	0	
10	0	0	0	0	509	508	0	0	
11	0	0	0	0	507	506	0	0	
12	0	0	0	0	509	508	0	0	
13	0	0	0	0	511	507	0	0	
14	0	0	0	0	509	508	0	0	
15	0	0	0	0	509	507	0	0	
0	0	0	0	0	511	509	0	0	
1	0	0	0	0	511	509	0	0	
2	0	0	0	0	514	509	0	0	
3	0	0	0	0	512	510	0	0	
4	0	0	0	0	513	507	0	0	
5	0	0	0	0	512	507	0	0	
6	0	0	0	0	513	508	0	0	
7	0	0	0	0	513	509	0	0	
8	0	0	0	0	514	508	0	0	
9	0	0	0	0	511	508	0	0	
10	0	0	0	0	512	510	0	0	
11	0	0	0	0	511	506	0	0	
12	0	0	0	0	509	508	0	0	
13	0	0	0	0	508	510	0	0	
14	0	0	0	0	507	508	0	0	
15	0	0	0	0	506	509	0	0	
0	0	0	0	0	508	506	0	0	
1	0	0	0	0	508	508	0	0	
2	0	0	0	0	510	508	0	0	
3	0	0	0	0	510	507	0	0	
4	0	0	0	0	510	507	0	0	
5	0	0	0	0	511	508	0	0	
6	0	0	0	0	516	509	0	0	
7	0	0	0	0	513	507	0	0	
8	0	0	0	0	513	508	0	0	
9	0	0	0	0	513	508	0	0	
10	0	0	0	0	512	507	0	0	
11	0	0	0	0	513	508	0	0	
12	0	0	0	0	512	508	0	0	
13	0	0	0	0	512	508	0	0	
14	0	0	0	0	511	508	0	0	
15	0	0	0	0	509	508	0	0	
0	0	0	0	0	511	508	0	0	
1	0	0	0	0	511	505	0	0	
2	0	0	0	0	510	509	0	0	
3	0	0	0	0	509	508	0	0	
4	0	0	0	0	508	508	0	0	
5	0	0	0	0	508	507	0	0	
6	0	0	0	0	509	508	0	0	
7	0	0	0	0	510	509	0	0	
8	0	0	0	0	512	508	0	0	
9	0	0	0	0	512	507	0	0	
10	0	0	0	0	513	507	0	0	
11	0	0	0	0	516	508	0	0	
12	0	0	0	0	517	508	0	0	
13	0	0	0	0	514	509	0	0	
14	0	0	0	0	511	509	0	0	
15	0	0	0	0	513	510	0	0	
0	0	0	0	0	512	508	0	0	
1	0	0	0	0	511	508	0	0	
2	0	0	0	0	510	509	0	0	
3	0	0	0	0	510	508	0	0	
4	0	0	0	0	507	507	0	0	
5	0	0	0	0	510	507	0	0	
6	0	0	0	0	510	506	0	0	
7	0	0	0	0	509	507	0	0	
8	0	0	0	0	508	507	0	0	
9	0	0	0	0	509	506	0	0	
10	0	0	0	0	510	510	0	0	
11	0	0	0	0	509	511	0	0	
12	0	0	0	0	510	507	0	0	
13	0	0	0	0	514	508	0	0	
14	0	0	0	0	516	507	0	0	
15	0	0	0	0	516	509	0	0	
0	0	0	0	0	514	508	0	0	
1	0	0	0	0	511	508	0	0	
2	0	0	0	0	512	508	0	0	
3	0	0	0	0	512	508	0	0	
4	0	0	0	0	511	508	0	0	
5	0	0	0	0	512	508	0	0	
6	0	0	0	0	512	508	0	0	
7	0	0	0	0	510	509	0	0	
8	0	0	0	0	512	506	0	0	
9	0	0	0	0	511	508	0	0	
10	0	0	0	0	510	508	0	0	
11	0	0	0	0	509	509	0	0	
12	0	0	0	0	500	508	0	0	
13	0	0	0	0	507	508	0	0	
14	0	0	0	0	509	508	0	0	
15	0	0	0	0	511	507	0	0	
0	0	0	0	0	515	507	0	0	
1	0	0	0	0	512	505	0	0	
2	0	0	0	0	512	507	0	0	
3	0	0	0	0	511	508	0	0	
4	0	0	0	0	512	509	0	0	
5	0	0	0	0	512	509	0	0	
6	0	0	0	0	511	510	0	0	
7	0	0	0	0	513	507	0	0	
8	0	0	0	0	515	507	0	0	
9	0	0	0	0	515	509	0	0	
10	0	0	0	0	512	507	0	0	
11	0	0	0	0	510	508	0	0	
12	0	0	0	0	511	509	0	0	
13	0	0	0	0	508	509	0	0	
14	0	0	0	0	510	507	0	0	
15	0	0	0	0	509	507	0	0	
0	0	0	0	0	508	506	0	0	
1	0	0	0	0	508	508	0	0	
2	0	0	0	0	508	508	0	0	
3	0	0	0	0	513	505	0	0	
4	0	0	0	0	514	510	0	0	
5	0	0	0	0	513	508	0	0	
6	0	0	0	0	512	507	0	0	
7	0	0	0	0	512	509	0	0	
8	0	0	0	0	510	508	0	0	
9	0	0	0	0	512	506	0	0	
10	0	0	0	0	512	508	0	0	
11	0	0	0	0	512	508	0	0	
12	0	0	0	0	512	508	0	0	
13	0	0	0	0	512	510	0	0	
14	0	0	0	0	511	509	0	0	
15	0	0	0	0	510	506	0	0	
0	0	0	0	0	511	508	0	0	
1	0	0	0	0	501	507	0	0	
2	0	0	0	0	504	509	0	0	
3	0	0	0	0	510	507	0	0	
4	0	0	0	0	510	508	0	0	
5	0	0	0	0	511	509	0	0	
6	0	0	0	0	512	507	0	0	
7	0	0	0	0	514	509	0	0	
8	0	0	0	0	510	508	0	0	
9	0	0	0	0	511	509	0	0	
10	0	0	0	0	512	509	0	0	
11	0	0	0	0	513	509	0	0	
12	0	0	0	0	512	508	0	0	
13	0	0	0	0	513	508	0	0	
14	0	0	0	0	513	509	0	0	
15	0	0	0	0	511	508	0	0	
0	0	0	0	0	511	507	0	0	
1	0	0	0	0	513	508	0	0	
2	0	0	0	0	512	509	0	0	
3	0	0	0	0	510	508	0	0	
4	0	0	0	0	510	507	0	0	
5	0	0	0	0	508	507	0	0	
6	0	0	0	0	509	506	0	0	
7	0	0	0	0	508	506	0	0	
8	0	0	0	0	506	508	0	0	
9	0	0	0	0	509	508	0	0	
10	0	0	0	0	509	509	0	0	
11	0	0	0	0	511	506	0	0	
12	0	0	0	0	514	508	0	0	
13	0	0	0	0	514	508	0	0	
14	0	0	0	0	518	508	0	0	
15	0	0	0	0	515	508	0	0	
0	0	0	0	0	514	508	0	0	
1	0	0	0	0	513	505	0	0	
2	0	0	0	0	513	508	0	0	
3	0	0	0	0	511	507	0	0	
4	0	0	0	0	511	508	0	0	
5	0	0	0	0	509	509	0	0	
6	0	0	0	0	508	506	0	0	
7	0	0	0	0	505	507	0	0	
8	0	0	0	0	508	509	0	0	
9	0	0	0	0	510	509	0	0	
10	0	0	0	0	511	508	0	0	
11	0	0	0	0	509	510	0	0	
12	0	0	0	0	511	507	0	0	
13	0	0	0	0	510	506	0	0	
14	0	0	0	0	508	508	0	0	
15	0	0	0	0	509	507	0	0	
0	0	0	0	0	513	507	0	0	
1	0	0	0	0	513	508	0	0	
2	0	0	0	0	511	508	0	0	
3	0	0	0	0	513	508	0	0	
4	0	0	0	0	511	509	0	0	
5	0	0	0	0	512	509	0	0	
6	0	0	0	0	513	510	0	0	
7	0	0	0	0	511	508	0	0	
8	0	0	0	0	515	507	0	0	
9	0	0	0	0	511	510	0	0	
10	0	0	0	0	510	508	0	0	
11	0	0	0	0	511	508	0	0	
12	0	0	0	0	508	509	0	0	
13	0	0	0	0	509	508	0	0	
14	0	0	0	0	512	509	0	0	
15	0	0	0	0	513	510	0	0	
0	0	0	0	0	513	507	0	0	
1	0	0	0	0	510	509	0	0	
2	0	0	0	0	511	506	0	0	
3	0	0	0	0	507	506	0	0	
4	0	0	0	0	501	510	0	0	
5	0	0	0	0	509	510	0	0	
6	0	0	0	0	511	508	0	0	
7	0	0	0	0	510	508	0	0	
8	0	0	0	0	511	510	0	0	
9	0	0	0	0	513	510	0	0	
10	0	0	0	0	515	509	0	0	
11	0	0	0	0	513	507	0	0	
12	0	0	0	0	513	508	0	0	
13	0	0	0	0	512	506	0	0	
14	0	0	0	0	509	507	0	0	
15	0	0	0	0	508	508	0	0	
0	0	0	0	0	509	508	0	0	
1	0	0	0	0	511	507	0	0	
2	0	0	0	0	510	508	0	0	
3	0	0	0	0	514	507	0	0	
4	0	0	0	0	514	507	0	0	
5	0	0	0	0	518	510	0	0	
6	0	0	0	0	512	509	0	0	
7	0	0	0	0	510	509	0	0	
8	0	0	0	0	510	509	0	0	
9	0	0	0	0	512	507	0	0	
10	0	0	0	0	513	508	0	0	
11	0	0	0	0	511	509	0	0	
12	0	0	0	0	510	508	0	0	
13	0	0	0	0	511	507	0	0	
14	0	0	0	0	513	507	0	0	
15	0	0	0	0	511	508	0	0	
0	0	0	0	0	503	509	0	0	
1	0	0	0	0	505	507	0	0	
2	0	0	0	0	510	508	0	0	
3	0	0	0	0	511	508	0	0	
4	0	0	0	0	511	510	0	0	
5	0	0	0	0	511	508	0	0	
6	0	0	0	0	510	507	0	0	
7	0	0	0	0	511	507	0	0	
8	0	0	0	0	510	507	0	0	
9	0	0	0	0	511	508	0	0	
10	0	0	0	0	511	506	0	0	
11	0	0	0	0	512	509	0	0	
12	0	0	0	0	512	508	0	0	
13	0	0	0	0	513	508	0	0	
14	0	0	0	0	512	508	0	0	
15	0	0	0	0	518	508	0	0	
0	0	0	0	0	511	508	0	0	
1	0	0	0	0	507	510	0	0	
2	0	0	0	0	507	509	0	0	
3	0	0	0	0	506	508	0	0	
4	0	0	0	0	507	509	0	0	
5	0	0	0	0	507	504	0	0	
6	0	0	0	0	511	508	0	0	
7	0	0	0	0	519	508	0	0	
8	0	0	0	0	526	507	0	0	
9	0	0	0	0	524	510	0	0	
10	0	0	0	0	509	509	0	0	
11	0	0	0	0	508	508	0	0	
12	0	0	0	0	507	508	0	0	
13	0	0	0	0	507	507	0	0	
14	0	0	0	0	505	507	0	0	
15	0	0	0	0	508	508	0	0	
0	0	0	0	0	510	508	0	0	
1	0	0	0	0	511	508	0	0	
2	0	0	0	0	511	507	0	0	
3	0	0	0	0	511	508	0	0	
4	0	0	0	0	512	509	0	0	
5	0	0	0	0	511	509	0	0	
6	0	0	0	0	513	508	0	0	
7	0	0	0	0	512	507	0	0	
8	0	0	0	0	508	509	0	0	
9	0	0	0	0	508	508	0	0	
10	0	0	0	0	508	508	0	0	
11	0	0	0	0	510	508	0	0	
12	0	0	0	0	509	507	0	0	
13	0	0	0	0	513	509	0	0	
14	0	0	0	0	514	509	0	0	
15	0	0	0	0	515	508	0	0	
0	0	0	0	0	515	506	0	0	
1	0	0	0	0	512	508	0	0	
2	0	0	0	0	507	507	0	0	
3	0	0	0	0	511	508	0	0	
4	0	0	0	0	508	508	0	0	
5	0	0	0	0	505	507	0	0	
6	0	0	0	0	502	510	0	0	
7	0	0	0	0	508	508	0	0	
8	0	0	0	0	509	507	0	0	
9	0	0	0	0	513	509	0	0	
10	0	0	0	0	515	510	0	0	
11	0	0	0	0	514	508	0	0	
12	0	0	0	0	511	509	0	0	
13	0	0	0	0	515	508	0	0	
14	0	0	0	0	511	507	0	0	
15	0	0	0	0	510	508	0	0	
0	0	0	0	0	511	507	0	0	
1	0	0	0	0	510	508	0	0	
2	0	0	0	0	511	507	0	0	
3	0	0	0	0	512	506	0	0	
4	0	0	0	0	514	508	0	0	
5	0	0	0	0	512	508	0	0	
6	0	0	0	0	512	507	0	0	
7	0	0	0	0	514	507	0	0	
8	0	0	0	0	511	509	0	0	
9	0	0	0	0	506	508	0	0	
10	0	0	0	0	509	509	0	0	
11	0	0	0	0	511	506	0	0	
12	0	0	0	0	510	508	0	0	
13	0	0	0	0	514	508	0	0	
14	0	0	0	0	513	508	0	0	
15	0	0	0	0	515	509	0	0	
0	0	0	0	0	515	509	0	0	
1	0	0	0	0	510	507	0	0	
2	0	0	0	0	508	506	0	0	
3	0	0	0	0	507	508	0	0	
4	0	0	0	0	508	507	0	0	
5	0	0	0	0	511	508	0	0	
6	0	0	0	0	506	511	0	0	
7	0	0	0	0	507	508	0	0	
8	0	0	0	0	511	509	0	0	
9	0	0	0	0	516	510	0	0	
10	0	0	0	0	512	508	0	0	
11	0	0	0	0	517	508	0	0	
12	0	0	0	0	516	509	0	0	
13	0	0	0	0	519	508	0	0	
14	0	0	0	0	515	507	0	0	
15	0	0	0	0	508	509	0	0	
0	0	0	0	0	507	508	0	0	
1	0	0	0	0	504	508	0	0	
2	0	0	0	0	510	506	0	0	
3	0	0	0	0	512	508	0	0	
4	0	0	0	0	513	508	0	0	
5	0	0	0	0	509	509	0	0	
6	0	0	0	0	505	505	0	0	
7	0	0	0	0	508	507	0	0	
8	0	0	0	0	504	509	0	0	
9	0	0	0	0	502	509	0	0	
10	0	0	0	0	506	507	0	0	
11	0	0	0	0	511	508	0	0	
12	0	0	0	0	512	508	0	0	
13	0	0	0	0	514	508	0	0	
14	0	0	0	0	516	510	0	0	
15	0	0	0	0	527	509	0	0	
0	0	0	0	0	529	507	0	0	
1	0	0	0	0	517	509	0	0	
2	0	0	0	0	512	509	0	0	
3	0	0	0	0	510	508	0	0	
4	0	0	0	0	511	508	0	0	
5	0	0	0	0	508	508	0	0	
6	0	0	0	0	510	507	0	0	
7	0	0	0	0	511	507	0	0	
8	0	0	0	0	511	508	0	0	
9	0	0	0	0	513	508	0	0	
10	0	0	0	0	512	506	0	0	
11	0	0	0	0	510	507	0	0	
12	0	0	0	0	510	508	0	0	
13	0	0	0	0	508	508	0	0	
14	0	0	0	0	505	507	0	0	
15	0	0	0	0	503	509	0	0	
0	0	0	0	0	501	507	0	0	
1	0	0	0	0	503	508	0	0	
2	0	0	0	0	509	508	0	0	
3	0	0	0	0	510	508	0	0	
4	0	0	0	0	511	508	0	0	
5	0	0	0	0	510	509	0	0	
6	0	0	0	0	514	509	0	0	
7	0	0	0	0	513	507	0	0	
8	0	0	0	0	513	507	0	0	
9	0	0	0	0	515	509	0	0	
10	0	0	0	0	515	510	0	0	
11	0	0	0	0	519	508	0	0	
12	0	0	0	0	522	506	0	0	
13	0	0	0	0	511	507	0	0	
14	0	0	0	0	507	508	0	0	
15	0	0	0	0	510	508	0	0	
0	0	0	0	0	509	508	0	0	
1	0	0	0	0	511	506	0	0	
2	0	0	0	0	515	511	0	0	
3	0	0	0	0	515	507	0	0	
4	0	0	0	0	512	508	0	0	
5	0	0	0	0	512	507	0	0	
6	0	0	0	0	508	507	0	0	
7	0	0	0	0	502	508	0	0	
8	0	0	0	0	503	509	0	0	
9	0	0	0	0	506	508	0	0	
10	0	0	0	0	511	510	0	0	
11	0	0	0	0	513	508	0	0	
12	0	0	0	0	515	510	0	0	
13	0	0	0	0	512	509	0	0	
14	0	0	0	0	511	508	0	0	
15	0	0	0	0	515	509	0	0	
0	0	0	0	0	515	510	0	0	
1	0	0	0	0	512	505	0	0	
2	0	0	0	0	510	509	0	0	
3	0	0	0	0	507	510	0	0	
4	0	0	0	0	503	507	0	0	
5	0	0	0	0	499	505	0	0	
6	0	0	0	0	499	504	0	0	
7	0	0	0	0	503	504	0	0	
8	0	0	0	0	508	504	0	0	
9	0	0	0	0	511	506	0	0	
10	0	0	0	0	515	509	0	0	
11	0	0	0	0	519	505	0	0	
12	0	0	0	0	519	508	0	0	
13	0	0	0	0	527	510	0	0	
14	0	0	0	0	520	511	0	0	
15	0	0	0	0	514	512	0	0	
0	0	0	0	0	504	506	0	0	
1	0	0	0	0	511	511	0	0	
2	0	0	0	0	524	511	0	0	
3	0	0	0	0	514	510	0	0	
4	0	0	0	0	510	511	0	0	
5	0	0	0	0	510	509	0	0	
6	0	0	0	0	505	506	0	0	
7	0	0	0	0	509	506	0	0	
8	0	0	0	0	511	506	0	0	
9	0	0	0	0	509	507	0	0	
10	0	0	0	0	512	507	0	0	
11	0	0	0	0	514	508	0	0	
12	0	0	0	0	514	510	0	0	
13	0	0	0	0	510	508	0	0	
14	0	0	0	0	498	507	0	0	
15	0	0	0	0	504	508	0	0	
0	0	0	0	0	508	505	0	0	
1	0	0	0	0	508	504	0	0	
2	0	0	0	0	508	508	0	0	
3	0	0	0	0	507	508	0	0	
4	0	0	0	0	508	507	0	0	
5	0	0	0	0	511	508	0	0	
6	0	0	0	0	514	511	0	0	
7	0	0	0	0	514	508	0	0	
8	0	0	0	0	508	510	0	0	
9	0	0	0	0	504	510	0	0	
10	0	0	0	0	496	510	0	0	
11	0	0	0	0	502	505	0	0	
12	0	0	0	0	525	508	0	0	
13	0	0	0	0	548	508	0	0	
14	0	0	0	0	515	505	0	0	
15	0	0	0	0	503	512	0	0	
0	0	0	0	0	515	512	0	0	
1	0	0	0	0	529	508	0	0	
2	0	0	0	0	523	506	0	0	
3	0	0	0	0	512	506	0	0	
4	0	0	0	0	509	505	0	0	
5	0	0	0	0	511	504	0	0	
6	0	0	0	0	509	508	0	0	
7	0	0	0	0	497	507	0	0	
8	0	0	0	0	493	510	0	0	
9	0	0	0	0	487	509	0	0	
10	0	0	0	0	520	509	0	0	
11	0	0	0	0	522	507	0	0	
12	0	0	0	0	519	507	0	0	
13	0	0	0	0	513	507	0	0	
14	0	0	0	0	525	505	0	0	
15	0	0	0	0	518	506	0	0	
0	0	0	0	0	519	510	0	0	
1	0	0	0	0	491	510	0	0	
2	0	0	0	0	496	508	0	0	
3	0	0	0	0	499	509	0	0	
4	0	0	0	0	495	509	0	0	
5	0	0	0	0	496	508	0	0	
6	0	0	0	0	504	507	0	0	
7	0	0	0	0	499	508	0	0	
8	0	0	0	0	501	508	0	0	
9	0	0	0	0	513	507	0	0	
10	0	0	0	0	537	510	0	0	
11	0	0	0	0	548	509	0	0	
12	0	0	0	0	520	508	0	0	
13	0	0	0	0	513	514	0	0	
14	0	0	0	0	517	515	0	0	
15	0	0	0	0	511	508	0	0	
0	0	0	0	0	502	508	0	0	
1	0	0	0	0	502	505	0	0	
2	0	0	0	0	522	502	0	0	
3	0	0	0	0	542	505	0	0	
4	0	0	0	0	516	508	0	0	
5	0	0	0	0	486	505	0	0	
6	0	0	0	0	494	510	0	0	
7	0	0	0	0	496	509	0	0	
8	0	0	0	0	521	512	0	0	
9	0	0	0	0	518	508	0	0	
10	0	0	0	0	527	508	0	0	
11	0	0	0	0	527	507	0	0	
12	0	0	0	0	516	505	0	0	
13	0	0	0	0	511	508	0	0	
14	0	0	0	0	502	509	0	0	
15	0	0	0	0	491	507	0	0	
0	0	0	0	0	488	503	0	0	
1	0	0	0	0	505	505	0	0	
2	0	0	0	0	526	515	0	0	
3	0	0	0	0	537	513	0	0	
4	0	0	0	0	522	509	0	0	
5	0	0	0	0	507	507	0	0	
6	0	0	0	0	501	505	0	0	
7	0	0	0	0	501	507	0	0	
8	0	0	0	0	504	507	0	0	
9	0	0	0	0	501	505	0	0	
10	0	0	0	0	502	507	0	0	
11	0	0	0	0	511	504	0	0	
12	0	0	0	0	506	501	0	0	
13	0	0	0	0	508	513	0	0	
14	0	0	0	0	523	515	0	0	
15	0	0	0	0	511	508	0	0	
0	0	0	0	0	506	506	0	0	
1	0	0	0	0	515	509	0	0	
2	0	0	0	0	520	510	0	0	
3	0	0	0	0	520	510	0	0	
4	0	0	0	0	514	510	0	0	
5	0	0	0	0	505	508	0	0	
6	0	0	0	0	506	505	0	0	
7	0	0	0	0	505	511	0	0	
8	0	0	0	0	493	510	0	0	
9	0	0	0	0	492	503	0	0	
10	0	0	0	0	500	504	0	0	
11	0	0	0	0	510	505	0	0	
12	0	0	0	0	527	508	0	0	
13	0	0	0	0	531	518	0	0	
14	0	0	0	0	529	518	0	0	
15	0	0	0	0	500	508	0	0	
0	0	0	0	0	469	505	0	0	
1	0	0	0	0	487	508	0	0	
2	0	0	0	0	490	504	0	0	
3	0	0	0	0	492	503	0	0	
4	0	0	0	0	502	504	0	0	
5	0	0	0	0	515	498	0	0	
6	0	0	0	0	570	497	0	0	
7	0	0	0	0	549	507	0	0	
8	0	0	0	0	567	502	0	0	
9	0	0	0	0	580	517	0	0	
10	0	0	0	0	574	524	0	0	
11	0	0	0	0	529	522	0	0	
12	0	0	0	0	494	518	0	0	
13	0	0	0	0	467	510	0	0	
14	0	0	0	0	450	509	0	0	
15	0	0	0	0	458	508	0	0	
0	0	0	0	0	470	501	0	0	
1	0	0	0	0	476	502	0	0	
2	0	0	0	0	490	498	0	0	
3	0	0	0	0	528	505	4	0	
4	0	0	0	0	584	502	4	0	
5	0	0	0	0	600	503	2	0	
6	0	0	0	0	520	511	6	0	
7	0	0	0	0	490	522	7	0	
8	0	0	0	0	487	522	9	0	
9	0	0	0	0	511	521	10	0	
10	0	0	0	0	508	506	10	0	
11	0	0	0	0	483	501	15	0	
12	0	0	0	0	483	502	15	0	
13	0	0	0	0	493	496	15	0	
14	0	0	0	0	527	499	17	0	
15	0	0	0	0	531	499	17	0	
0	0	0	0	0	520	510	18	0	
1	0	0	0	0	542	514	18	0	
2	0	0	0	0	548	513	18	0	
3	0	0	0	0	520	510	19	0	
4	0	0	0	0	559	515	20	0	
5	0	0	0	0	521	513	20	0	
6	0	0	0	0	493	511	20	0	
7	0	0	0	0	450	509	21	0	
8	0	0	0	0	435	508	23	0	
9	0	0	0	0	472	505	25	0	
10	0	0	0	0	496	498	28	0	
11	0	0	0	0	508	502	29	0	
12	0	0	0	0	525	507	33	0	
13	0	0	0	0	514	510	34	0	
14	0	0	0	0	515	506	35	0	
15	0	0	0	0	511	507	34	0	
0	0	0	0	0	472	509	38	0	
1	0	0	0	0	454	513	39	0	
2	0	0	0	0	494	508	38	0	
3	0	0	0	0	525	509	39	0	
4	0	0	0	0	534	508	39	0	
5	0	0	0	0	540	508	40	0	
6	0	0	0	0	615	510	38	0	
7	0	0	0	0	587	510	42	0	
8	0	0	0	0	552	508	45	0	
9	0	0	0	0	513	505	46	0	
10	0	0	0	0	509	506	46	0	
11	0	0	0	0	523	503	46	0	
12	0	0	0	0	498	509	45	0	
13	0	0	0	0	464	511	45	0	
14	0	0	0	0	476	509	45	0	
15	0	0	0	0	494	508	45	0	
0	0	0	0	0	492	507	47	0	
1	0	0	0	0	489	504	45	0	
2	0	0	0	0	497	505	44	0	
3	0	0	0	0	502	510	44	0	
4	0	0	0	0	497	507	44	0	
5	0	0	0	0	513	509	45	0	
6	0	0	0	0	514	507	47	0	
7	0	0	0	0	499	514	46	0	
8	0	0	0	0	463	513	46	0	
9	0	0	0	0	471	508	45	0	
10	0	0	0	0	539	507	45	0	
11	0	0	0	0	563	507	45	0	
12	0	0	0	0	551	507	47	0	
13	0	0	0	0	538	506	46	0	
14	0	0	0	0	559	510	48	0	
15	0	0	0	0	560	510	49	0	
0	0	0	0	0	523	507	50	0	
1	0	0	0	0	503	504	51	0	
2	0	0	0	0	495	505	51	0	
3	0	0	0	0	476	507	51	0	
4	0	0	0	0	476	505	53	0	
5	0	0	0	0	495	507	53	0	
6	0	0	0	0	535	504	55	0	
7	0	0	0	0	571	506	51	0	
8	0	0	0	0	510	511	52	0	
9	0	0	0	0	484	516	55	0	
10	0	0	0	0	481	512	55	0	
11	0	0	0	0	486	508	55	0	
12	0	0	0	0	492	511	57	0	
13	0	0	0	0	494	513	56	0	
14	0	0	0	0	516	513	55	0	
15	0	0	0	0	524	510	55	0	
0	0	0	0	0	512	502	56	0	
1	0	0	0	0	519	502	56	0	
2	0	0	0	0	510	506	57	0	
3	0	0	0	0	494	514	57	0	
4	0	0	0	0	501	505	58	0	
5	0	0	0	0	514	504	58	0	
6	0	0	0	0	503	504	57	0	
7	0	0	0	0	501	504	57	0	
8	0	0	0	0	519	506	59	0	
9	0	0	0	0	555	511	60	0	
10	0	0	0	0	556	513	59	0	
11	0	0	0	0	515	509	59	0	
12	0	0	0	0	494	504	61	0	
13	0	0	0	0	496	505	60	0	
14	0	0	0	0	502	507	61	0	
15	0	0	0	0	513	514	61	0	
0	0	0	0	0	534	511	63	0	
1	0	0	0	0	514	508	66	0	
2	0	0	0	0	507	507	67	0	
3	0	0	0	0	511	509	67	0	
4	0	0	0	0	513	505	68	0	
5	0	0	0	0	504	504	67	0	
6	0	0	0	0	487	499	67	0	
7	0	0	0	0	508	507	66	0	
8	0	0	0	0	521	514	69	0	
9	0	0	0	0	510	515	69	0	
10	0	0	0	0	481	515	69	0	
11	0	0	0	0	517	513	76	0	
12	0	0	0	0	532	515	79	0	
13	0	0	0	0	512	507	79	0	
14	0	0	0	0	510	503	81	0	
15	0	0	0	0	512	504	80	0	
0	0	0	0	0	519	508	83	0	
1	0	0	0	0	505	508	85	0	
2	0	0	0	0	492	501	85	0	
3	0	0	0	0	470	505	85	0	
4	0	0	0	0	473	510	83	0	
5	0	0	0	0	508	507	86	0	
6	0	0	0	0	520	512	85	0	
7	0	0	0	0	524	507	84	0	
8	0	0	0	0	524	511	76	0	
9	0	0	0	0	551	510	77	0	
10	0	0	0	0	534	505	77	0	
11	0	0	0	0	511	510	77	0	
12	0	0	0	0	515	508	77	0	
13	0	0	0	0	521	508	79	0	
14	0	0	0	0	513	507	78	0	
15	0	0	0	0	497	504	79	0	
0	0	0	0	0	494	500	79	0	
1	0	0	0	0	515	505	78	0	
2	0	0	0	0	519	514	78	0	
3	0	0	0	0	500	514	78	0	
4	0	0	0	0	496	510	77	0	
5	0	0	0	0	505	510	76	0	
6	0	0	0	0	513	509	77	0	
7	0	0	0	0	518	506	77	0	
8	0	0	0	0	526	509	77	0	
9	0	0	0	0	540	505	77	0	
10	0	0	0	0	502	510	78	0	
11	0	0	0	0	470	510	78	0	
12	0	0	0	0	461	507	79	0	
13	0	0	0	0	475	511	79	0	
14	0	0	0	0	514	505	78	0	
15	0	0	0	0	596	505	79	0	
0	0	0	0	0	623	505	79	0	
1	0	0	0	0	545	508	80	0	
2	0	0	0	0	512	510	80	0	
3	0	0	0	0	482	512	80	0	
4	0	0	0	0	486	510	80	0	
5	0	0	0	0	489	516	81	0	
6	0	0	0	0	467	504	80	0	
7	0	0	0	0	483	500	79	0	
8	0	0	0	0	512	504	79	0	
9	0	0	0	0	533	509	78	0	
10	0	0	0	0	528	512	79	0	
11	0	0	0	0	525	505	79	0	
12	0	0	0	0	507	505	78	0	
13	0	0	0	0	511	509	78	0	
14	0	0	0	0	499	514	87	0	
15	0	0	0	0	476	508	87	0	
0	0	0	0	0	472	510	89	0	
1	0	0	0	0	508	503	91	0	
2	0	0	0	0	514	509	92	0	
3	0	0	0	0	508	513	94	0	
4	0	0	0	0	485	511	94	0	
5	0	0	0	0	528	509	94	0	
6	0	0	0	0	575	507	93	0	
7	0	0	0	0	540	502	92	0	
8	0	0	0	0	511	508	94	0	
9	0	0	0	0	514	510	94	0	
10	0	0	0	0	524	503	93	0	
11	0	0	0	0	522	505	94	0	
12	0	0	0	0	526	505	93	0	
13	0	0	0	0	509	506	93	0	
14	0	0	0	0	496	504	93	0	
15	0	0	0	0	498	505	93	0	
0	0	0	0	0	496	508	94	0	
1	0	0	0	0	494	512	95	0	
2	0	0	0	0	508	513	95	0	
3	0	0	0	0	482	513	95	0	
4	0	0	0	0	474	510	95	0	
5	0	0	0	0	488	509	97	0	
6	0	0	0	0	494	509	96	0	
7	0	0	0	0	507	507	95	0	
8	0	0	0	0	532	510	94	0	
9	0	0	0	0	560	509	94	0	
10	0	0	0	0	545	506	95	0	
11	0	0	0	0	550	509	96	0	
12	0	0	0	0	532	507	95	0	
13	0	0	0	0	505	507	96	0	
14	0	0	0	0	511	512	94	0	
15	0	0	0	0	505	499	96	0	
0	0	0	0	0	503	505	97	0	
1	0	0	0	0	509	507	98	0	
2	0	0	0	0	499	507	97	0	
3	0	0	0	0	502	507	97	0	
4	0	0	0	0	493	508	97	0	
5	0	0	0	0	500	507	96	0	
6	0	0	0	0	497	505	95	0	
7	0	0	0	0	487	511	95	0	
8	0	0	0	0	503	514	95	0	
9	0	0	0	0	527	516	94	0	
10	0	0	0	0	546	509	95	0	
11	0	0	0	0	523	504	95	0	
12	0	0	0	0	528	505	95	0	
13	0	0	0	0	534	510	95	0	
14	0	0	0	0	530	508	95	0	
15	0	0	0	0	521	512	95	0	
0	0	0	0	0	508	508	96	0	
1	0	0	0	0	495	504	95	0	
2	0	0	0	0	493	502	95	0	
3	0	0	0	0	505	503	96	0	
4	0	0	0	0	521	504	95	0	
5	0	0	0	0	517	507	94	0	
6	0	0	0	0	518	514	94	0	
7	0	0	0	0	500	513	95	0	
8	0	0	0	0	498	512	94	0	
9	0	0	0	0	473	514	94	0	
10	0	0	0	0	492	509	94	0	
11	0	0	0	0	499	511	94	0	
12	0	0	0	0	496	503	95	0	
13	0	0	0	0	518	506	95	0	
14	0	0	0	0	520	507	96	0	
15	0	0	0	0	531	506	96	0	
0	0	0	0	0	521	505	96	0	
1	0	0	0	0	517	504	97	0	
2	0	0	0	0	520	512	96	0	
3	0	0	0	0	524	511	96	0	
4	0	0	0	0	525	511	96	0	
5	0	0	0	0	534	508	97	0	
6	0	0	0	0	517	509	96	0	
7	0	0	0	0	509	508	97	0	
8	0	0	0	0	507	507	97	0	
9	0	0	0	0	509	512	97	0	
10	0	0	0	0	515	510	98	0	
11	0	0	0	0	487	506	99	0	
12	0	0	0	0	484	505	97	0	
13	0	0	0	0	491	507	98	0	
14	0	0	0	0	503	505	97	0	
15	0	0	0	0	526	508	99	0	
0	0	0	0	0	517	507	98	0	
1	0	0	0	0	517	510	97	0	
2	0	0	0	0	521	504	99	0	
3	0	0	0	0	525	503	100	0	
4	0	0	0	0	519	508	100	0	
5	0	0	0	0	508	512	100	0	
6	0	0	0	0	480	511	101	0	
7	0	0	0	0	460	502	103	0	
8	0	0	0	0	467	502	102	0	
9	0	0	0	0	524	512	100	0	
10	0	0	0	0	536	515	101	0	
11	0	0	0	0	524	512	100	0	
12	0	0	0	0	540	511	99	0	
13	0	0	0	0	545	512	100	0	
14	0	0	0	0	522	508	100	0	
15	0	0	0	0	516	511	99	0	
0	0	0	0	0	519	503	101	0	
1	0	0	0	0	513	502	100	0	
2	0	0	0	0	495	501	101	0	
3	0	0	0	0	498	507	100	0	
4	0	0	0	0	511	510	100	0	
5	0	0	0	0	505	507	102	0	
6	0	0	0	0	516	509	100	0	
7	0	0	0	0	523	512	101	0	
8	0	0	0	0	502	510	100	0	
9	0	0	0	0	498	511	100	0	
10	0	0	0	0	514	507	100	0	
11	0	0	0	0	524	503	99	0	
12	0	0	0	0	511	510	98	0	
13	0	0	0	0	492	504	98	0	
14	0	0	0	0	493	516	100	0	
15	0	0	0	0	502	516	102	0	
0	0	0	0	0	505	508	103	0	
1	0	0	0	0	525	502	100	0	
2	0	0	0	0	516	502	102	0	
3	0	0	0	0	545	505	102	0	
4	0	0	0	0	563	509	101	0	
5	0	0	0	0	519	506	100	0	
6	0	0	0	0	482	507	101	0	
7	0	0	0	0	471	507	100	0	
8	0	0	0	0	458	505	99	0	
9	0	0	0	0	469	508	100	0	
10	0	0	0	0	519	511	100	0	
11	0	0	0	0	535	509	100	0	
12	0	0	0	0	545	507	101	0	
13	0	0	0	0	562	517	100	0	
14	0	0	0	0	534	517	102	0	
15	0	0	0	0	493	505	101	0	
0	0	0	0	0	470	504	100	0	
1	0	0	0	0	514	511	101	0	
2	0	0	0	0	508	504	99	0	
3	0	0	0	0	511	508	99	0	
4	0	0	0	0	503	504	100	0	
5	0	0	0	0	510	504	101	0	
6	0	0	0	0	516	505	100	0	
7	0	0	0	0	521	508	100	0	
8	0	0	0	0	511	512	101	0	
9	0	0	0	0	513	510	99	0	
10	0	0	0	0	518	510	99	0	
11	0	0	0	0	530	506	100	0	
12	0	0	0	0	521	504	101	0	
13	0	0	0	0	512	508	99	0	
14	0	0	0	0	509	506	100	0	
15	0	0	0	0	497	506	101	0	
0	0	0	0	0	485	510	100	0	
1	0	0	0	0	489	505	100	0	
2	0	0	0	0	508	506	98	0	
3	0	0	0	0	520	511	98	0	
4	0	0	0	0	537	507	99	0	
5	0	0	0	0	537	512	98	0	
6	0	0	0	0	526	509	98	0	
7	0	0	0	0	497	512	98	0	
8	0	0	0	0	491	506	97	0	
9	0	0	0	0	527	506	99	0	
10	0	0	0	0	521	510	99	0	
11	0	0	0	0	513	504	98	0	
12	0	0	0	0	473	504	98	0	
13	0	0	0	0	480	508	96	0	
14	0	0	0	0	499	508	96	0	
15	0	0	0	0	484	511	96	0	
0	0	0	0	0	487	513	97	0	
1	0	0	0	0	506	502	98	0	
2	0	0	0	0	531	501	96	0	
3	0	0	0	0	522	509	96	0	
4	0	0	0	0	504	512	97	0	
5	0	0	0	0	503	509	96	0	
6	0	0	0	0	537	510	98	0	
7	0	0	0	0	536	508	97	0	
8	0	0	0	0	542	506	99	0	
9	0	0	0	0	548	508	100	0	
10	0	0	0	0	562	512	99	0	
11	0	0	0	0	523	509	99	0	
12	0	0	0	0	500	511	100	0	
13	0	0	0	0	499	507	100	0	
14	0	0	0	0	500	503	101	0	
15	0	0	0	0	515	500	103	0	
0	0	0	0	0	524	507	103	0	
1	0	0	0	0	523	504	103	0	
2	0	0	0	0	521	507	103	0	
3	0	0	0	0	495	509	100	0	
4	0	0	0	0	468	514	103	0	
5	0	0	0	0	471	512	102	0	
6	0	0	0	0	481	507	102	0	
7	0	0	0	0	511	513	100	0	
8	0	0	0	0	478	507	99	0	
9	0	0	0	0	494	503	100	0	
10	0	0	0	0	529	509	98	0	
11	0	0	0	0	547	510	99	0	
12	0	0	0	0	515	505	98	0	
13	0	0	0	0	499	507	99	0	
14	0	0	0	0	493	508	98	0	
15	0	0	0	0	492	509	98	0	
0	0	0	0	0	503	515	98	0	
1	0	0	0	0	520	515	98	0	
2	0	0	0	0	523	511	98	0	
3	0	0	0	0	516	500	99	0	
4	0	0	0	0	512	496	102	0	
5	0	0	0	0	523	499	101	0	
6	0	0	0	0	534	509	101	0	
7	0	0	0	0	522	515	102	0	
8	0	0	0	0	534	512	101	0	
9	0	0	0	0	506	513	100	0	
10	0	0	0	0	493	507	100	0	
11	0	0	0	0	510	507	99	0	
12	0	0	0	0	502	507	99	0	
13	0	0	0	0	496	504	102	0	
14	0	0	0	0	512	509	103	0	
15	0	0	0	0	517	510	103	0	
0	0	0	0	0	506	507	103	0	
1	0	0	0	0	500	507	101	0	
2	0	0	0	0	540	507	101	0	
3	0	0	0	0	551	504	102	0	
4	0	0	0	0	517	509	100	0	
5	0	0	0	0	504	513	102	0	
6	0	0	0	0	499	512	102	0	
7	0	0	0	0	507	508	102	0	
8	0	0	0	0	516	508	102	0	
9	0	0	0	0	518	500	102	0	
10	0	0	0	0	526	506	102	0	
11	0	0	0	0	531	508	106	0	
12	0	0	0	0	507	507	103	0	
13	0	0	0	0	467	510	105	0	
14	0	0	0	0	454	510	109	0	
15	0	0	0	0	492	513	110	0	
0	0	0	0	0	544	513	110	0	
1	0	0	0	0	529	504	113	0	
2	0	0	0	0	549	507	113	0	
3	0	0	0	0	551	510	114	0	
4	0	0	0	0	486	506	115	0	
5	0	0	0	0	435	500	116	0	
6	0	0	0	0	424	505	116	0	
7	0	0	0	0	487	512	116	0	
8	0	0	0	0	516	511	117	0	
9	0	0	0	0	532	504	118	0	
10	0	0	0	0	552	511	118	0	
11	0	0	0	0	556	512	120	0	
12	0	0	0	0	558	512	119	0	
13	0	0	0	0	536	507	119	0	
14	0	0	0	0	509	504	120	0	
15	0	0	0	0	508	504	117	0	
0	0	0	0	0	517	507	117	0	
1	0	0	0	0	507	508	119	0	
2	0	0	0	0	504	509	119	0	
3	0	0	0	0	492	508	119	0	
4	0	0	0	0	495	510	118	0	
5	0	0	0	0	519	511	117	0	
6	0	0	0	0	518	509	120	0	
7	0	0	0	0	513	510	120	0	
8	0	0	0	0	513	512	118	0	
9	0	0	0	0	499	502	114	0	
10	0	0	0	0	485	502	113	0	
11	0	0	0	0	510	511	114	0	
12	0	0	0	0	523	512	114	0	
13	0	0	0	0	524	504	116	0	
14	0	0	0	0	512	502	116	0	
15	0	0	0	0	522	507	117	0	
0	0	0	0	0	523	503	115	0	
1	0	0	0	0	531	508	117	0	
2	0	0	0	0	530	511	116	0	
3	0	0	0	0	514	508	115	0	
4	0	0	0	0	519	508	117	0	
5	0	0	0	0	479	513	117	0	
6	0	0	0	0	473	504	114	0	
7	0	0	0	0	476	507	115	0	
8	0	0	0	0	481	505	113	0	
9	0	0	0	0	500	506	113	0	
10	0	0	0	0	525	512	115	0	
11	0	0	0	0	514	512	112	0	
12	0	0	0	0	510	515	112	0	
13	0	0	0	0	502	514	114	0	
14	0	0	0	0	519	509	115	0	
15	0	0	0	0	525	502	117	0	
0	0	0	0	0	519	505	115	0	
1	0	0	0	0	507	505	115	0	
2	0	0	0	0	516	505	118	0	
3	0	0	0	0	499	505	121	0	
4	0	0	0	0	489	502	121	0	
5	0	0	0	0	527	503	123	0	
6	0	0	0	0	552	511	121	0	
7	0	0	0	0	529	514	121	0	
8	0	0	0	0	531	518	121	0	
9	0	0	0	0	526	508	121	0	
10	0	0	0	0	522	508	122	0	
11	0	0	0	0	512	512	123	0	
12	0	0	0	0	487	505	121	0	
13	0	0	0	0	487	506	121	0	
14	0	0	0	0	491	507	121	0	
15	0	0	0	0	497	508	120	0	
0	0	0	0	0	525	506	121	0	
1	0	0	0	0	529	505	124	0	
2	0	0	0	0	534	509	121	0	
3	0	0	0	0	524	508	122	0	
4	0	0	0	0	507	504	121	0	
5	0	0	0	0	495	505	119	0	
6	0	0	0	0	496	508	118	0	
7	0	0	0	0	504	511	116	0	
8	0	0	0	0	487	511	117	0	
9	0	0	0	0	477	511	117	0	
10	0	0	0	0	514	504	116	0	
11	0	0	0	0	540	504	115	0	
12	0	0	0	0	535	509	117	0	
13	0	0	0	0	541	512	117	0	
14	0	0	0	0	536	515	117	0	
15	0	0	0	0	534	512	116	0	
0	0	0	0	0	534	505	116	0	
1	0	0	0	0	522	510	118	0	
2	0	0	0	0	492	500	115	0	
3	0	0	0	0	485	506	117	0	
4	0	0	0	0	494	506	118	0	
5	0	0	0	0	496	511	118	0	
6	0	0	0	0	487	508	117	0	
7	0	0	0	0	487	505	116	0	
8	0	0	0	0	503	511	116	0	
9	0	0	0	0	489	513	115	0	
10	0	0	0	0	487	507	115	0	
11	0	0	0	0	529	505	115	0	
12	0	0	0	0	543	508	115	0	
13	0	0	0	0	522	504	114	0	
14	0	0	0	0	483	502	114	0	
15	0	0	0	0	502	505	111	0	
0	0	0	0	0	525	511	111	0	
1	0	0	0	0	520	515	112	0	
2	0	0	0	0	511	506	111	0	
3	0	0	0	0	508	505	112	0	
4	0	0	0	0	511	507	111	0	
5	0	0	0	0	523	510	108	0	
6	0	0	0	0	516	512	110	0	
7	0	0	0	0	510	510	109	0	
8	0	0	0	0	497	507	108	0	
9	0	0	0	0	498	508	107	0	
10	0	0	0	0	529	512	109	0	
11	0	0	0	0	544	508	108	0	
12	0	0	0	0	532	507	108	0	
13	0	0	0	0	521	510	109	0	
14	0	0	0	0	507	507	108	0	
15	0	0	0	0	494	510	108	0	
0	0	0	0	0	503	507	108	0	
1	0	0	0	0	501	496	108	0	
2	0	0	0	0	524	510	107	0	
3	0	0	0	0	524	508	108	0	
4	0	0	0	0	508	508	110	0	
5	0	0	0	0	495	512	108	0	
6	0	0	0	0	497	510	107	0	
7	0	0	0	0	499	507	109	0	
8	0	0	0	0	524	508	111	0	
9	0	0	0	0	542	504	110	0	
10	0	0	0	0	535	509	111	0	
11	0	0	0	0	516	504	109	0	
12	0	0	0	0	511	510	111	0	
13	0	0	0	0	504	510	112	0	
14	0	0	0	0	503	507	110	0	
15	0	0	0	0	510	507	112	0	
0	0	0	0	0	518	508	111	0	
1	0	0	0	0	519	510	111	0	
2	0	0	0	0	485	511	110	0	
3	0	0	0	0	488	508	111	0	
4	0	0	0	0	507	507	112	0	
5	0	0	0	0	518	508	113	0	
6	0	0	0	0	506	509	112	0	
7	0	0	0	0	493	507	112	0	
8	0	0	0	0	510	505	108	0	
9	0	0	0	0	485	507	103	0	
10	0	0	0	0	479	512	103	0	
11	0	0	0	0	505	512	105	0	
12	0	0	0	0	516	507	104	0	
13	0	0	0	0	519	506	104	0	
14	0	0	0	0	531	508	103	0	
15	0	0	0	0	520	506	101	0	
0	0	0	0	0	505	507	111	0	
1	0	0	0	0	514	508	111	0	
2	0	0	0	0	531	505	112	0	
3	0	0	0	0	516	509	110	0	
4	0	0	0	0	529	509	111	0	
5	0	0	0	0	536	509	111	0	
6	0	0	0	0	525	504	110	0	
7	0	0	0	0	539	507	102	0	
8	0	0	0	0	542	510	107	0	
9	0	0	0	0	512	506	110	0	
10	0	0	0	0	482	504	110	0	
11	0	0	0	0	464	507	111	0	
12	0	0	0	0	497	516	111	0	
13	0	0	0	0	482	512	111	0	
14	0	0	0	0	483	509	110	0	
15	0	0	0	0	505	507	112	0	
0	0	0	0	0	511	508	113	0	
1	0	0	0	0	508	511	113	0	
2	0	0	0	0	505	506	112	0	
3	0	0	0	0	527	508	110	0	
4	0	0	0	0	552	504	110	0	
5	0	0	0	0	546	501	109	0	
6	0	0	0	0	531	506	111	0	
7	0	0	0	0	532	507	113	0	
8	0	0	0	0	521	510	112	0	
9	0	0	0	0	495	510	112	0	
10	0	0	0	0	483	509	114	0	
11	0	0	0	0	479	511	114	0	
12	0	0	0	0	501	508	113	0	
13	0	0	0	0	513	508	114	0	
14	0	0	0	0	504	504	114	0	
15	0	0	0	0	504	508	113	0	
0	0	0	0	0	500	507	113	0	
1	0	0	0	0	487	511	113	0	
2	0	0	0	0	494	507	111	0	
3	0	0	0	0	524	513	112	0	
4	0	0	0	0	551	508	111	0	
5	0	0	0	0	553	501	110	0	
6	0	0	0	0	563	508	110	0	
7	0	0	0	0	538	511	108	0	
8	0	0	0	0	505	511	107	0	
9	0	0	0	0	490	509	105	0	
10	0	0	0	0	489	504	106	0	
11	0	0	0	0	480	509	106	0	
12	0	0	0	0	463	511	106	0	
13	0	0	0	0	491	512	105	0	
14	0	0	0	0	499	503	105	0	
15	0	0	0	0	521	509	105	0	
0	0	0	0	0	527	504	106	0	
1	0	0	0	0	522	505	106	0	
2	0	0	0	0	529	506	105	0	
3	0	0	0	0	532	504	105	0	
4	0	0	0	0	527	515	106	0	
5	0	0	0	0	516	516	107	0	
6	0	0	0	0	498	507	107	0	
7	0	0	0	0	486	508	107	0	
8	0	0	0	0	488	508	107	0	
9	0	0	0	0	512	505	108	0	
10	0	0	0	0	535	505	108	0	
11	0	0	0	0	534	510	109	0	
12	0	0	0	0	501	510	108	0	
13	0	0	0	0	486	507	108	0	
14	0	0	0	0	495	507	108	0	
15	0	0	0	0	507	510	107	0	
0	0	0	0	0	502	507	108	0	
1	0	0	0	0	494	502	108	0	
2	0	0	0	0	513	509	107	0	
3	0	0	0	0	518	512	108	0	
4	0	0	0	0	528	513	107	0	
5	0	0	0	0	541	509	107	0	
6	0	0	0	0	566	507	107	0	
7	0	0	0	0	552	504	105	0	
8	0	0	0	0	539	510	106	0	
9	0	0	0	0	509	510	105	0	
10	0	0	0	0	480	507	105	0	
11	0	0	0	0	460	507	104	0	
12	0	0	0	0	459	510	105	0	
13	0	0	0	0	474	504	104	0	
14	0	0	0	0	491	504	103	0	
15	0	0	0	0	508	508	102	0	
0	0	0	0	0	516	512	101	0	
1	0	0	0	0	530	507	101	0	
2	0	0	0	0	532	507	101	0	
3	0	0	0	0	519	509	101	0	
4	0	0	0	0	517	504	99	0	
5	0	0	0	0	535	514	95	0	
6	0	0	0	0	524	511	94	0	
7	0	0	0	0	523	504	94	0	
8	0	0	0	0	541	505	95	0	
9	0	0	0	0	527	511	95	0	
10	0	0	0	0	513	511	94	0	
11	0	0	0	0	514	509	92	0	
12	0	0	0	0	510	507	92	0	
13	0	0	0	0	497	504	92	0	
14	0	0	0	0	484	508	92	0	
15	0	0	0	0	470	511	92	0	
0	0	0	0	0	477	501	91	0	
1	0	0	0	0	483	508	91	0	
2	0	0	0	0	491	508	91	0	
3	0	0	0	0	500	508	92	0	
4	0	0	0	0	539	508	92	0	
5	0	0	0	0	545	515	91	0	
6	0	0	0	0	536	506	91	0	
7	0	0	0	0	545	508	91	0	
8	0	0	0	0	542	509	91	0	
9	0	0	0	0	540	507	92	0	
10	0	0	0	0	525	507	91	0	
11	0	0	0	0	493	505	90	0	
12	0	0	0	0	497	510	91	0	
13	0	0	0	0	484	508	91	0	
14	0	0	0	0	463	509	90	0	
15	0	0	0	0	465	513	91	0	
0	0	0	0	0	500	509	90	0	
1	0	0	0	0	521	499	91	0	
2	0	0	0	0	529	502	91	0	
3	0	0	0	0	522	508	90	0	
4	0	0	0	0	515	508	90	0	
5	0	0	0	0	503	514	90	0	
6	0	0	0	0	499	508	90	0	
7	0	0	0	0	506	508	91	0	
8	0	0	0	0	523	506	90	0	
9	0	0	0	0	528	506	89	0	
10	0	0	0	0	529	505	89	0	
11	0	0	0	0	535	507	89	0	
12	0	0	0	0	534	507	90	0	
13	0	0	0	0	498	508	90	0	
14	0	0	0	0	514	516	90	0	
15	0	0	0	0	513	518	90	0	
0	0	0	0	0	500	515	90	0	
1	0	0	0	0	505	506	89	0	
2	0	0	0	0	497	502	90	0	
3	0	0	0	0	493	508	90	0	
4	0	0	0	0	488	507	90	0	
5	0	0	0	0	501	503	90	0	
6	0	0	0	0	507	506	90	0	
7	0	0	0	0	506	505	90	0	
8	0	0	0	0	522	508	90	0	
9	0	0	0	0	532	511	90	0	
10	0	0	0	0	537	513	90	0	
11	0	0	0	0	521	508	91	0	
12	0	0	0	0	502	506	90	0	
13	0	0	0	0	487	500	89	0	
14	0	0	0	0	490	502	90	0	
15	0	0	0	0	516	504	90	0	
0	0	0	0	0	515	512	90	0	
1	0	0	0	0	520	510	89	0	
2	0	0	0	0	553	508	91	0	
3	0	0	0	0	552	508	90	0	
4	0	0	0	0	519	512	91	0	
5	0	0	0	0	504	510	89	0	
6	0	0	0	0	499	507	89	0	
7	0	0	0	0	494	509	90	0	
8	0	0	0	0	477	505	90	0	
9	0	0	0	0	494	506	91	0	
10	0	0	0	0	511	511	91	0	
11	0	0	0	0	511	509	91	0	
12	0	0	0	0	509	507	90	0	
13	0	0	0	0	529	507	90	0	
14	0	0	0	0	527	510	90	0	
15	0	0	0	0	528	508	90	0	
0	0	0	0	0	511	509	91	0	
1	0	0	0	0	516	507	91	0	
2	0	0	0	0	509	511	91	0	
3	0	0	0	0	495	508	89	0	
4	0	0	0	0	547	504	89	0	
5	0	0	0	0	545	503	89	0	
6	0	0	0	0	514	504	89	0	
7	0	0	0	0	490	509	89	0	
8	0	0	0	0	480	506	90	0	
9	0	0	0	0	452	510	90	0	
10	0	0	0	0	451	510	90	0	
11	0	0	0	0	490	512	90	0	
12	0	0	0	0	492	510	88	0	
13	0	0	0	0	504	513	88	0	
14	0	0	0	0	516	514	88	0	
15	0	0	0	0	536	504	89	0	
0	0	0	0	0	527	503	89	0	
1	0	0	0	0	519	505	88	0	
2	0	0	0	0	529	507	88	0	
3	0	0	0	0	535	507	89	0	
4	0	0	0	0	551	507	88	0	
5	0	0	0	0	523	508	89	0	
6	0	0	0	0	493	505	89	0	
7	0	0	0	0	487	505	88	0	
8	0	0	0	0	495	504	88	0	
9	0	0	0	0	508	509	88	0	
10	0	0	0	0	539	516	88	0	
11	0	0	0	0	560	511	88	0	
12	0	0	0	0	579	512	88	0	
13	0	0	0	0	542	501	89	0	
14	0	0	0	0	521	511	88	0	
15	0	0	0	0	515	512	89	0	
0	0	0	0	0	494	510	88	0	
1	0	0	0	0	448	507	88	0	
2	0	0	0	0	421	508	89	0	
3	0	0	0	0	451	509	88	0	
4	0	0	0	0	470	504	88	0	
5	0	0	0	0	492	503	89	0	
6	0	0	0	0	510	504	89	0	
7	0	0	0	0	523	504	88	0	
8	0	0	0	0	547	508	88	0	
9	0	0	0	0	555	510	88	0	
10	0	0	0	0	557	512	88	0	
11	0	0	0	0	548	512	88	0	
12	0	0	0	0	532	504	88	0	
13	0	0	0	0	528	505	88	0	
14	0	0	0	0	490	503	89	0	
15	0	0	0	0	490	507	88	0	
0	0	0	0	0	484	514	88	0	
1	0	0	0	0	482	516	89	0	
2	0	0	0	0	501	512	88	0	
3	0	0	0	0	506	510	87	0	
4	0	0	0	0	510	503	88	0	
5	0	0	0	0	503	502	88	0	
6	0	0	0	0	512	510	88	0	
7	0	0	0	0	522	512	88	0	
8	0	0	0	0	517	509	87	0	
9	0	0	0	0	533	512	87	0	
10	0	0	0	0	540	509	87	0	
11	0	0	0	0	520	504	87	0	
12	0	0	0	0	503	504	87	0	
13	0	0	0	0	499	507	87	0	
14	0	0	0	0	501	503	86	0	
15	0	0	0	0	501	505	85	0	
0	0	0	0	0	502	508	84	0	
1	0	0	0	0	503	507	84	0	
2	0	0	0	0	519	510	85	0	
3	0	0	0	0	528	513	85	0	
4	0	0	0	0	525	512	85	0	
5	0	0	0	0	515	509	86	0	
6	0	0	0	0	532	509	85	0	
7	0	0	0	0	515	508	84	0	
8	0	0	0	0	492	508	86	0	
9	0	0	0	0	486	510	86	0	
10	0	0	0	0	476	505	86	0	
11	0	0	0	0	472	505	86	0	
12	0	0	0	0	497	509	87	0	
13	0	0	0	0	541	507	86	0	
14	0	0	0	0	558	508	88	0	
15	0	0	0	0	533	513	87	0	
0	0	0	0	0	515	513	87	0	
1	0	0	0	0	513	511	88	0	
2	0	0	0	0	520	507	87	0	
3	0	0	0	0	493	507	87	0	
4	0	0	0	0	499	508	87	0	
5	0	0	0	0	512	504	87	0	
6	0	0	0	0	531	497	87	0	
7	0	0	0	0	520	504	87	0	
8	0	0	0	0	506	511	87	0	
9	0	0	0	0	528	516	87	0	
10	0	0	0	0	543	512	87	0	
11	0	0	0	0	515	507	87	0	
12	0	0	0	0	481	505	88	0	
13	0	0	0	0	461	508	88	0	
14	0	0	0	0	457	509	89	0	
15	0	0	0	0	492	512	89	0	
0	0	0	0	0	511	510	89	0	
1	0	0	0	0	519	508	89	0	
2	0	0	0	0	506	508	88	0	
3	0	0	0	0	515	505	88	0	
4	0	0	0	0	547	510	88	0	
5	0	0	0	0	556	505	87	0	
6	0	0	0	0	532	505	87	0	
7	0	0	0	0	515	504	87	0	
8	0	0	0	0	513	508	87	0	
9	0	0	0	0	489	507	87	0	
10	0	0	0	0	492	509	86	0	
11	0	0	0	0	509	511	87	0	
12	0	0	0	0	504	508	87	0	
13	0	0	0	0	499	509	86	0	
14	0	0	0	0	500	510	86	0	
15	0	0	0	0	561	513	87	0	
0	0	0	0	0	527	512	87	0	
1	0	0	0	0	483	511	86	0	
2	0	0	0	0	494	505	87	0	
3	0	0	0	0	512	505	87	0	
4	0	0	0	0	519	505	86	0	
5	0	0	0	0	515	506	87	0	
6	0	0	0	0	507	505	86	0	
7	0	0	0	0	497	505	87	0	
8	0	0	0	0	499	508	87	0	
9	0	0	0	0	500	511	86	0	
10	0	0	0	0	507	504	86	0	
11	0	0	0	0	515	509	86	0	
12	0	0	0	0	517	513	86	0	
13	0	0	0	0	512	508	86	0	
14	0	0	0	0	530	504	86	0	
15	0	0	0	0	577	512	86	0	
0	0	0	0	0	544	511	86	0	
1	0	0	0	0	539	513	86	0	
2	0	0	0	0	508	514	86	0	
3	0	0	0	0	467	508	85	0	
4	0	0	0	0	458	507	85	0	
5	0	0	0	0	491	508	86	0	
6	0	0	0	0	519	501	85	0	
7	0	0	0	0	524	505	86	0	
8	0	0	0	0	532	506	86	0	
9	0	0	0	0	519	512	86	0	
10	0	0	0	0	510	511	86	0	
11	0	0	0	0	495	507	86	0	
12	0	0	0	0	469	505	86	0	
13	0	0	0	0	466	508	86	0	
14	0	0	0	0	496	509	86	0	
15	0	0	0	0	511	507	86	0	
0	0	0	0	0	524	507	85	0	
1	0	0	0	0	530	505	86	0	
2	0	0	0	0	555	508	86	0	
3	0	0	0	0	555	510	85	0	
4	0	0	0	0	525	507	87	0	
5	0	0	0	0	504	505	85	0	
6	0	0	0	0	500	507	85	0	
7	0	0	0	0	510	507	86	0	
8	0	0	0	0	531	509	86	0	
9	0	0	0	0	550	508	86	0	
10	0	0	0	0	540	505	86	0	
11	0	0	0	0	509	507	86	0	
12	0	0	0	0	469	508	86	0	
13	0	0	0	0	440	514	86	0	
14	0	0	0	0	428	515	85	0	
15	0	0	0	0	448	513	86	0	
0	0	0	0	0	515	510	85	0	
1	0	0	0	0	556	508	85	0	
2	0	0	0	0	534	508	85	0	
3	0	0	0	0	552	505	84	0	
4	0	0	0	0	574	512	84	0	
5	0	0	0	0	556	505	84	0	
6	0	0	0	0	511	506	84	0	
7	0	0	0	0	514	507	84	0	
8	0	0	0	0	517	507	84	0	
9	0	0	0	0	503	510	83	0	
10	0	0	0	0	494	511	83	0	
11	0	0	0	0	482	508	83	0	
12	0	0	0	0	502	510	82	0	
13	0	0	0	0	508	511	83	0	
14	0	0	0	0	510	504	83	0	
15	0	0	0	0	517	499	82	0	
0	0	0	0	0	519	504	81	0	
1	0	0	0	0	513	507	80	0	
2	0	0	0	0	508	513	79	0	
3	0	0	0	0	507	512	79	0	
4	0	0	0	0	483	503	79	0	
5	0	0	0	0	482	511	80	0	
6	0	0	0	0	500	509	80	0	
7	0	0	0	0	489	507	80	0	
8	0	0	0	0	487	504	80	0	
9	0	0	0	0	511	505	81	0	
10	0	0	0	0	505	506	80	0	
11	0	0	0	0	535	509	80	0	
12	0	0	0	0	548	512	79	0	
13	0	0	0	0	566	512	80	0	
14	0	0	0	0	545	511	80	0	
15	0	0	0	0	518	508	80	0	
0	0	0	0	0	496	507	79	0	
1	0	0	0	0	480	508	79	0	
2	0	0	0	0	476	507	79	0	
3	0	0	0	0	471	508	79	0	
4	0	0	0	0	490	512	79	0	
5	0	0	0	0	518	511	79	0	
6	0	0	0	0	487	505	80	0	
7	0	0	0	0	483	497	79	0	
8	0	0	0	0	513	504	80	0	
9	0	0	0	0	560	510	80	0	
10	0	0	0	0	573	510	80	0	
11	0	0	0	0	543	506	80	0	
12	0	0	0	0	583	509	80	0	
13	0	0	0	0	567	513	80	0	
14	0	0	0	0	521	508	80	0	
15	0	0	0	0	496	507	80	0	
0	0	0	0	0	460	504	81	0	
1	0	0	0	0	474	506	80	0	
2	0	0	0	0	480	511	79	0	
3	0	0	0	0	483	508	77	0	
4	0	0	0	0	492	505	78	0	
5	0	0	0	0	501	509	76	0	
6	0	0	0	0	514	509	75	0	
7	0	0	0	0	504	506	74	0	
8	0	0	0	0	508	511	75	0	
9	0	0	0	0	524	508	74	0	
10	0	0	0	0	540	508	74	0	
11	0	0	0	0	537	508	75	0	
12	0	0	0	0	523	508	75	0	
13	0	0	0	0	511	508	76	0	
14	0	0	0	0	499	508	76	0	
15	0	0	0	0	484	511	76	0	
0	0	0	0	0	507	509	76	0	
1	0	0	0	0	520	507	76	0	
2	0	0	0	0	512	508	76	0	
3	0	0	0	0	523	506	76	0	
4	0	0	0	0	512	506	76	0	
5	0	0	0	0	501	508	76	0	
6	0	0	0	0	486	509	75	0	
7	0	0	0	0	483	508	76	0	
8	0	0	0	0	504	508	75	0	
9	0	0	0	0	511	509	75	0	
10	0	0	0	0	520	508	75	0	
11	0	0	0	0	523	504	76	0	
12	0	0	0	0	520	504	76	0	
13	0	0	0	0	512	507	75	0	
14	0	0	0	0	518	513	75	0	
15	0	0	0	0	518	508	76	0	
0	0	0	0	0	523	511	76	0	
1	0	0	0	0	517	509	76	0	
2	0	0	0	0	518	513	76	0	
3	0	0	0	0	508	503	77	0	
4	0	0	0	0	517	505	76	0	
5	0	0	0	0	518	510	76	0	
6	0	0	0	0	494	509	75	0	
7	0	0	0	0	491	507	74	0	
8	0	0	0	0	504	510	75	0	
9	0	0	0	0	505	507	74	0	
10	0	0	0	0	527	508	74	0	
11	0	0	0	0	538	508	75	0	
12	0	0	0	0	517	507	75	0	
13	0	0	0	0	497	504	74	0	
14	0	0	0	0	494	507	73	0	
15	0	0	0	0	481	511	73	0	
0	0	0	0	0	491	510	72	0	
1	0	0	0	0	496	514	72	0	
2	0	0	0	0	522	509	72	0	
3	0	0	0	0	580	507	71	0	
4	0	0	0	0	564	505	71	0	
5	0	0	0	0	519	507	71	0	
6	0	0	0	0	504	509	71	0	
7	0	0	0	0	499	508	70	0	
8	0	0	0	0	497	506	71	0	
9	0	0	0	0	484	508	70	0	
10	0	0	0	0	506	510	71	0	
11	0	0	0	0	507	510	71	0	
12	0	0	0	0	515	507	70	0	
13	0	0	0	0	504	506	69	0	
14	0	0	0	0	507	505	70	0	
15	0	0	0	0	523	504	69	0	
0	0	0	0	0	521	503	69	0	
1	0	0	0	0	516	509	68	0	
2	0	0	0	0	506	513	69	0	
3	0	0	0	0	505	508	70	0	
4	0	0	0	0	503	508	70	0	
5	0	0	0	0	497	511	71	0	
6	0	0	0	0	504	511	71	0	
7	0	0	0	0	490	507	71	0	
8	0	0	0	0	490	507	71	0	
9	0	0	0	0	473	508	71	0	
10	0	0	0	0	478	508	72	0	
11	0	0	0	0	501	511	71	0	
12	0	0	0	0	555	511	73	0	
13	0	0	0	0	561	507	72	0	
14	0	0	0	0	540	506	73	0	
15	0	0	0	0	526	504	71	0	
0	0	0	0	0	530	504	69	0	
1	0	0	0	0	517	507	70	0	
2	0	0	0	0	512	511	68	0	
3	0	0	0	0	521	508	69	0	
4	0	0	0	0	522	508	70	0	
5	0	0	0	0	508	510	68	0	
6	0	0	0	0	483	509	69	0	
7	0	0	0	0	483	508	68	0	
8	0	0	0	0	508	508	69	0	
9	0	0	0	0	509	507	69	0	
10	0	0	0	0	515	512	69	0	
11	0	0	0	0	513	508	69	0	
12	0	0	0	0	512	508	70	0	
13	0	0	0	0	514	508	70	0	
14	0	0	0	0	508	505	71	0	
15	0	0	0	0	504	506	71	0	
0	0	0	0	0	508	511	71	0	
1	0	0	0	0	515	508	70	0	
2	0	0	0	0	524	506	70	0	
3	0	0	0	0	519	507	68	0	
4	0	0	0	0	511	511	70	0	
5	0	0	0	0	511	511	69	0	
6	0	0	0	0	507	509	68	0	
7	0	0	0	0	504	508	67	0	
8	0	0	0	0	500	513	68	0	
9	0	0	0	0	492	502	68	0	
10	0	0	0	0	506	503	69	0	
11	0	0	0	0	533	508	67	0	
12	0	0	0	0	529	508	68	0	
13	0	0	0	0	563	508	69	0	
14	0	0	0	0	532	508	68	0	
15	0	0	0	0	496	511	70	0	
0	0	0	0	0	481	512	69	0	
1	0	0	0	0	483	505	70	0	
2	0	0	0	0	489	503	71	0	
3	0	0	0	0	487	506	70	0	
4	0	0	0	0	516	506	71	0	
5	0	0	0	0	524	507	71	0	
6	0	0	0	0	531	510	72	0	
7	0	0	0	0	504	512	71	0	
8	0	0	0	0	487	510	71	0	
9	0	0	0	0	506	509	71	0	
10	0	0	0	0	512	507	70	0	
11	0	0	0	0	517	510	71	0	
12	0	0	0	0	529	509	71	0	
13	0	0	0	0	514	506	72	0	
14	0	0	0	0	502	506	71	0	
15	0	0	0	0	509	508	71	0	
0	0	0	0	0	507	509	71	0	
1	0	0	0	0	511	507	71	0	
2	0	0	0	0	519	508	69	0	
3	0	0	0	0	545	508	70	0	
4	0	0	0	0	561	508	71	0	
5	0	0	0	0	520	510	70	0	
6	0	0	0	0	499	511	71	0	
7	0	0	0	0	499	513	71	0	
8	0	0	0	0	502	505	71	0	
9	0	0	0	0	501	503	71	0	
10	0	0	0	0	508	502	70	0	
11	0	0	0	0	502	511	70	0	
12	0	0	0	0	498	514	69	0	
13	0	0	0	0	496	504	70	0	
14	0	0	0	0	490	502	70	0	
15	0	0	0	0	505	506	72	0	
0	0	0	0	0	515	507	71	0	
1	0	0	0	0	525	510	71	0	
2	0	0	0	0	531	508	71	0	
3	0	0	0	0	527	506	72	0	
4	0	0	0	0	513	502	71	0	
5	0	0	0	0	524	511	70	0	
6	0	0	0	0	532	519	70	0	
7	0	0	0	0	511	513	70	0	
8	0	0	0	0	518	512	71	0	
9	0	0	0	0	514	510	71	0	
10	0	0	0	0	486	510	71	0	
11	0	0	0	0	478	508	70	0	
12	0	0	0	0	491	502	70	0	
13	0	0	0	0	515	502	70	0	
14	0	0	0	0	519	505	71	0	
15	0	0	0	0	522	509	71	0	
0	0	0	0	0	531	509	70	0	
1	0	0	0	0	509	508	70	0	
2	0	0	0	0	497	509	70	0	
3	0	0	0	0	505	513	71	0	
4	0	0	0	0	499	509	71	0	
5	0	0	0	0	507	508	71	0	
6	0	0	0	0	500	502	71	0	
7	0	0	0	0	499	501	72	0	
8	0	0	0	0	512	509	71	0	
9	0	0	0	0	515	508	71	0	
10	0	0	0	0	517	508	72	0	
11	0	0	0	0	529	508	72	0	
12	0	0	0	0	543	505	72	0	
13	0	0	0	0	543	503	72	0	
14	0	0	0	0	527	510	71	0	
15	0	0	0	0	511	511	71	0	
0	0	0	0	0	497	511	71	0	
1	0	0	0	0	475	510	72	0	
2	0	0	0	0	459	512	74	0	
3	0	0	0	0	472	511	74	0	
4	0	0	0	0	516	510	74	0	
5	0	0	0	0	524	508	73	0	
6	0	0	0	0	528	505	73	0	
7	0	0	0	0	521	508	72	0	
8	0	0	0	0	512	507	74	0	
9	0	0	0	0	529	506	73	0	
10	0	0	0	0	528	505	72	0	
11	0	0	0	0	513	504	72	0	
12	0	0	0	0	529	504	72	0	
13	0	0	0	0	526	504	73	0	
14	0	0	0	0	507	506	71	0	
15	0	0	0	0	513	510	72	0	
0	0	0	0	0	533	511	73	0	
1	0	0	0	0	525	511	71	0	
2	0	0	0	0	503	515	71	0	
3	0	0	0	0	489	507	72	0	
4	0	0	0	0	486	507	72	0	
5	0	0	0	0	463	509	71	0	
6	0	0	0	0	469	508	70	0	
7	0	0	0	0	505	507	71	0	
8	0	0	0	0	519	507	70	0	
9	0	0	0	0	513	507	70	0	
10	0	0	0	0	521	503	71	0	
11	0	0	0	0	531	512	71	0	
12	0	0	0	0	535	505	72	0	
13	0	0	0	0	524	507	71	0	
14	0	0	0	0	519	507	71	0	
15	0	0	0	0	524	509	71	0	
0	0	0	0	0	536	512	71	0	
1	0	0	0	0	508	507	71	0	
2	0	0	0	0	512	509	71	0	
3	0	0	0	0	515	511	71	0	
4	0	0	0	0	504	508	71	0	
5	0	0	0	0	508	513	71	0	
6	0	0	0	0	499	510	70	0	
7	0	0	0	0	495	510	71	0	
8	0	0	0	0	502	506	72	0	
9	0	0	0	0	492	505	71	0	
10	0	0	0	0	507	504	71	0	
11	0	0	0	0	510	506	72	0	
12	0	0	0	0	509	505	71	0	
13	0	0	0	0	508	508	71	0	
14	0	0	0	0	512	510	71	0	
15	0	0	0	0	514	512	70	0	
0	0	0	0	0	526	508	71	0	
1	0	0	0	0	527	506	71	0	
2	0	0	0	0	514	508	71	0	
3	0	0	0	0	511	506	70	0	
4	0	0	0	0	508	505	69	0	
5	0	0	0	0	509	511	69	0	
6	0	0	0	0	496	517	68	0	
7	0	0	0	0	500	504	68	0	
8	0	0	0	0	527	504	69	0	
9	0	0	0	0	522	511	68	0	
10	0	0	0	0	506	510	68	0	
11	0	0	0	0	483	506	68	0	
12	0	0	0	0	503	507	68	0	
13	0	0	0	0	514	507	68	0	
14	0	0	0	0	531	510	68	0	
15	0	0	0	0	507	513	68	0	
0	0	0	0	0	513	503	67	0	
1	0	0	0	0	521	501	67	0	
2	0	0	0	0	524	504	66	0	
3	0	0	0	0	519	508	66	0	
4	0	0	0	0	518	507	66	0	
5	0	0	0	0	521	510	65	0	
6	0	0	0	0	514	514	66	0	
7	0	0	0	0	499	507	65	0	
8	0	0	0	0	488	506	67	0	
9	0	0	0	0	499	509	67	0	
10	0	0	0	0	481	512	68	0	
11	0	0	0	0	471	508	68	0	
12	0	0	0	0	486	508	69	0	
13	0	0	0	0	526	508	69	0	
14	0	0	0	0	550	509	68	0	
15	0	0	0	0	583	514	68	0	
0	0	0	0	0	539	514	68	0	
1	0	0	0	0	502	508	68	0	
2	0	0	0	0	502	504	67	0	
3	0	0	0	0	506	504	68	0	
4	0	0	0	0	509	510	68	0	
5	0	0	0	0	510	507	68	0	
6	0	0	0	0	509	505	69	0	
7	0	0	0	0	508	506	68	0	
8	0	0	0	0	515	512	70	0	
9	0	0	0	0	505	509	69	0	
10	0	0	0	0	500	502	68	0	
11	0	0	0	0	500	505	70	0	
12	0	0	0	0	506	507	71	0	
13	0	0	0	0	508	503	72	0	
14	0	0	0	0	514	506	71	0	
15	0	0	0	0	525	506	70	0	
0	0	0	0	0	531	512	69	0	
1	0	0	0	0	547	511	71	0	
2	0	0	0	0	530	512	70	0	
3	0	0	0	0	492	512	70	0	
4	0	0	0	0	470	511	69	0	
5	0	0	0	0	494	509	69	0	
6	0	0	0	0	482	510	65	0	
7	0	0	0	0	452	508	65	0	
8	0	0	0	0	493	507	67	0	
9	0	0	0	0	521	506	66	0	
10	0	0	0	0	516	506	68	0	
11	0	0	0	0	515	507	68	0	
12	0	0	0	0	524	512	69	0	
13	0	0	0	0	531	515	72	0	
14	0	0	0	0	528	510	71	0	
15	0	0	0	0	528	508	72	0	
0	0	0	0	0	527	505	71	0	
1	0	0	0	0	522	501	71	0	
2	0	0	0	0	536	506	72	0	
3	0	0	0	0	555	507	70	0	
4	0	0	0	0	540	509	73	0	
5	0	0	0	0	498	500	72	0	
6	0	0	0	0	478	501	71	0	
7	0	0	0	0	467	506	72	0	
8	0	0	0	0	502	515	72	0	
9	0	0	0	0	498	518	71	0	
10	0	0	0	0	498	505	72	0	
11	0	0	0	0	508	503	72	0	
12	0	0	0	0	510	510	72	0	
13	0	0	0	0	503	510	72	0	
14	0	0	0	0	508	507	72	0	
15	0	0	0	0	492	505	73	0	
0	0	0	0	0	488	505	72	0	
1	0	0	0	0	503	512	72	0	
2	0	0	0	0	521	511	71	0	
3	0	0	0	0	516	510	73	0	
4	0	0	0	0	540	511	72	0	
5	0	0	0	0	524	519	71	0	
6	0	0	0	0	532	506	73	0	
7	0	0	0	0	535	499	72	0	
8	0	0	0	0	548	502	74	0	
9	0	0	0	0	547	504	72	0	
10	0	0	0	0	518	510	72	0	
11	0	0	0	0	497	511	72	0	
12	0	0	0	0	465	504	73	0	
13	0	0	0	0	483	505	72	0	
14	0	0	0	0	500	508	72	0	
15	0	0	0	0	513	515	71	0	
0	0	0	0	0	524	515	71	0	
1	0	0	0	0	504	508	72	0	
2	0	0	0	0	504	502	71	0	
3	0	0	0	0	499	505	71	0	
4	0	0	0	0	492	513	70	0	
5	0	0	0	0	495	511	71	0	
6	0	0	0	0	499	508	71	0	
7	0	0	0	0	505	507	71	0	
8	0	0	0	0	512	507	70	0	
9	0	0	0	0	520	505	72	0	
10	0	0	0	0	526	503	70	0	
11	0	0	0	0	537	505	71	0	
12	0	0	0	0	523	512	71	0	
13	0	0	0	0	505	507	70	0	
14	0	0	0	0	515	509	70	0	
15	0	0	0	0	510	514	69	0	
0	0	0	0	0	520	513	69	0	
1	0	0	0	0	520	510	70	0	
2	0	0	0	0	513	510	70	0	
3	0	0	0	0	506	507	70	0	
4	0	0	0	0	515	509	71	0	
5	0	0	0	0	508	505	71	0	
6	0	0	0	0	489	503	71	0	
7	0	0	0	0	483	500	71	0	
8	0	0	0	0	512	506	71	0	
9	0	0	0	0	537	510	71	0	
10	0	0	0	0	520	508	71	0	
11	0	0	0	0	505	508	72	0	
12	0	0	0	0	495	511	71	0	
13	0	0	0	0	499	509	71	0	
14	0	0	0	0	509	510	71	0	
15	0	0	0	0	531	504	72	0	
0	0	0	0	0	513	497	73	0	
1	0	0	0	0	542	507	73	0	
2	0	0	0	0	552	518	72	0	
3	0	0	0	0	551	516	73	0	
4	0	0	0	0	522	506	72	0	
5	0	0	0	0	498	504	73	0	
6	0	0	0	0	496	510	73	0	
7	0	0	0	0	465	511	73	0	
8	0	0	0	0	460	509	73	0	
9	0	0	0	0	488	508	72	0	
10	0	0	0	0	500	512	72	0	
11	0	0	0	0	508	512	74	0	
12	0	0	0	0	499	507	73	0	
13	0	0	0	0	509	506	72	0	
14	0	0	0	0	531	506	73	0	
15	0	0	0	0	535	501	72	0	
0	0	0	0	0	526	502	72	0	
1	0	0	0	0	521	506	72	0	
2	0	0	0	0	516	510	72	0	
3	0	0	0	0	529	510	72	0	
4	0	0	0	0	529	512	72	0	
5	0	0	0	0	531	509	72	0	
6	0	0	0	0	511	505	72	0	
7	0	0	0	0	474	512	71	0	
8	0	0	0	0	480	503	72	0	
9	0	0	0	0	494	506	71	0	
10	0	0	0	0	499	507	72	0	
11	0	0	0	0	496	511	72	0	
12	0	0	0	0	492	508	73	0	
13	0	0	0	0	506	508	73	0	
14	0	0	0	0	521	510	72	0	
15	0	0	0	0	519	505	73	0	
0	0	0	0	0	532	505	73	0	
1	0	0	0	0	534	510	73	0	
2	0	0	0	0	519	508	72	0	
3	0	0	0	0	514	504	72	0	
4	0	0	0	0	503	507	73	0	
5	0	0	0	0	504	515	72	0	
6	0	0	0	0	502	515	71	0	
7	0	0	0	0	504	513	72	0	
8	0	0	0	0	512	505	72	0	
9	0	0	0	0	523	499	72	0	
10	0	0	0	0	548	505	72	0	
11	0	0	0	0	539	500	73	0	
12	0	0	0	0	515	504	73	0	
13	0	0	0	0	535	508	73	0	
14	0	0	0	0	531	513	73	0	
15	0	0	0	0	483	517	72	0	
0	0	0	0	0	478	516	73	0	
1	0	0	0	0	508	511	74	0	
2	0	0	0	0	506	508	74	0	
3	0	0	0	0	498	504	73	0	
4	0	0	0	0	500	502	73	0	
5	0	0	0	0	508	506	74	0	
6	0	0	0	0	509	510	74	0	
7	0	0	0	0	507	509	74	0	
8	0	0	0	0	512	509	72	0	
9	0	0	0	0	535	509	73	0	
10	0	0	0	0	542	506	73	0	
11	0	0	0	0	531	505	73	0	
12	0	0	0	0	511	505	73	0	
13	0	0	0	0	505	510	72	0	
14	0	0	0	0	514	510	72	0	
15	0	0	0	0	468	510	73	0	
0	0	0	0	0	444	507	72	0	
1	0	0	0	0	491	508	73	0	
2	0	0	0	0	506	508	73	0	
3	0	0	0	0	506	507	73	0	
4	0	0	0	0	513	508	73	0	
5	0	0	0	0	512	512	72	0	
6	0	0	0	0	499	507	72	0	
7	0	0	0	0	527	504	72	0	
8	0	0	0	0	560	510	73	0	
9	0	0	0	0	527	508	73	0	
10	0	0	0	0	515	506	73	0	
11	0	0	0	0	496	505	73	0	
12	0	0	0	0	511	507	72	0	
13	0	0	0	0	522	513	73	0	
14	0	0	0	0	519	512	73	0	
15	0	0	0	0	513	504	73	0	
0	0	0	0	0	512	506	73	0	
1	0	0	0	0	515	505	73	0	
2	0	0	0	0	524	508	73	0	
3	0	0	0	0	509	511	73	0	
4	0	0	0	0	509	512	72	0	
5	0	0	0	0	505	511	73	0	
6	0	0	0	0	504	498	73	0	
7	0	0	0	0	507	508	73	0	
8	0	0	0	0	501	507	75	0	
9	0	0	0	0	510	508	75	0	
10	0	0	0	0	530	512	75	0	
11	0	0	0	0	540	508	75	0	
12	0	0	0	0	519	511	75	0	
13	0	0	0	0	508	510	73	0	
14	0	0	0	0	531	508	74	0	
15	0	0	0	0	537	506	74	0	
0	0	0	0	0	508	499	75	0	
1	0	0	0	0	490	504	74	0	
2	0	0	0	0	480	508	75	0	
3	0	0	0	0	466	510	75	0	
4	0	0	0	0	462	512	74	0	
5	0	0	0	0	497	512	75	0	
6	0	0	0	0	526	512	73	0	
7	0	0	0	0	530	507	74	0	
8	0	0	0	0	542	505	74	0	
9	0	0	0	0	522	507	74	0	
10	0	0	0	0	524	511	75	0	
11	0	0	0	0	513	506	74	0	
12	0	0	0	0	522	508	74	0	
13	0	0	0	0	504	508	75	0	
14	0	0	0	0	504	508	73	0	
15	0	0	0	0	510	508	74	0	
0	0	0	0	0	511	507	75	0	
1	0	0	0	0	504	505	74	0	
2	0	0	0	0	492	506	73	0	
3	0	0	0	0	481	510	74	0	
4	0	0	0	0	491	507	74	0	
5	0	0	0	0	519	508	74	0	
6	0	0	0	0	543	510	75	0	
7	0	0	0	0	531	505	74	0	
8	0	0	0	0	511	507	74	0	
9	0	0	0	0	503	508	73	0	
10	0	0	0	0	482	510	74	0	
11	0	0	0	0	472	508	75	0	
12	0	0	0	0	481	507	74	0	
13	0	0	0	0	492	508	74	0	
14	0	0	0	0	538	507	73	0	
15	0	0	0	0	549	505	73	0	
0	0	0	0	0	563	511	74	0	
1	0	0	0	0	559	509	74	0	
2	0	0	0	0	524	508	73	0	
3	0	0	0	0	509	509	74	0	
4	0	0	0	0	503	510	74	0	
5	0	0	0	0	508	510	75	0	
6	0	0	0	0	523	509	74	0	
7	0	0	0	0	517	508	73	0	
8	0	0	0	0	503	504	74	0	
9	0	0	0	0	497	505	74	0	
10	0	0	0	0	498	506	74	0	
11	0	0	0	0	500	508	75	0	
12	0	0	0	0	503	507	73	0	
13	0	0	0	0	509	507	74	0	
14	0	0	0	0	513	509	73	0	
15	0	0	0	0	519	508	74	0	
0	0	0	0	0	514	507	73	0	
1	0	0	0	0	513	509	74	0	
2	0	0	0	0	511	511	73	0	
3	0	0	0	0	501	508	74	0	
4	0	0	0	0	495	510	74	0	
5	0	0	0	0	495	509	74	0	
6	0	0	0	0	502	509	74	0	
7	0	0	0	0	505	508	74	0	
8	0	0	0	0	506	507	75	0	
9	0	0	0	0	503	509	75	0	
10	0	0	0	0	517	508	74	0	
11	0	0	0	0	526	507	74	0	
12	0	0	0	0	518	503	74	0	
13	0	0	0	0	515	503	75	0	
14	0	0	0	0	504	505	74	0	
15	0	0	0	0	510	507	74	0	
0	0	0	0	0	514	510	74	0	
1	0	0	0	0	516	510	73	0	
2	0	0	0	0	502	510	74	0	
3	0	0	0	0	512	510	74	0	
4	0	0	0	0	524	506	74	0	
5	0	0	0	0	523	508	73	0	
6	0	0	0	0	515	507	74	0	
7	0	0	0	0	506	509	73	0	
8	0	0	0	0	505	509	74	0	
9	0	0	0	0	504	508	72	0	
10	0	0	0	0	500	507	72	0	
11	0	0	0	0	518	507	73	0	
12	0	0	0	0	526	510	73	0	
13	0	0	0	0	516	511	73	0	
14	0	0	0	0	500	508	73	0	
15	0	0	0	0	498	505	73	0	
0	0	0	0	0	512	507	73	0	
1	0	0	0	0	529	509	72	0	
2	0	0	0	0	524	507	73	0	
3	0	0	0	0	522	507	72	0	
4	0	0	0	0	526	511	72	0	
5	0	0	0	0	524	509	71	0	
6	0	0	0	0	509	507	71	0	
7	0	0	0	0	501	507	70	0	
8	0	0	0	0	490	509	71	0	
9	0	0	0	0	491	508	71	0	
10	0	0	0	0	502	510	72	0	
11	0	0	0	0	511	509	71	0	
12	0	0	0	0	518	508	71	0	
13	0	0	0	0	509	508	70	0	
14	0	0	0	0	513	511	69	0	
15	0	0	0	0	513	507	69	0	
0	0	0	0	0	510	508	69	0	
1	0	0	0	0	507	509	68	0	
2	0	0	0	0	507	507	68	0	
3	0	0	0	0	507	505	67	0	
4	0	0	0	0	508	506	69	0	
5	0	0	0	0	508	504	68	0	
6	0	0	0	0	512	508	68	0	
7	0	0	0	0	508	508	67	0	
8	0	0	0	0	509	508	69	0	
9	0	0	0	0	513	509	67	0	
10	0	0	0	0	511	511	68	0	
11	0	0	0	0	515	510	68	0	
12	0	0	0	0	516	512	64	0	
13	0	0	0	0	519	505	63	0	
14	0	0	0	0	517	503	65	0	
15	0	0	0	0	514	507	63	0	
0	0	0	0	0	510	507	63	0	
1	0	0	0	0	501	508	63	0	
2	0	0	0	0	495	510	63	0	
3	0	0	0	0	494	508	62	0	
4	0	0	0	0	497	508	63	0	
5	0	0	0	0	503	507	60	0	
6	0	0	0	0	514	504	61	0	
7	0	0	0	0	527	505	59	0	
8	0	0	0	0	549	511	59	0	
9	0	0	0	0	531	515	58	0	
10	0	0	0	0	527	509	56	0	
11	0	0	0	0	517	505	55	0	
12	0	0	0	0	519	508	55	0	
13	0	0	0	0	506	508	52	0	
14	0	0	0	0	508	510	56	0	
15	0	0	0	0	505	510	57	0	
0	0	0	0	0	505	509	55	0	
1	0	0	0	0	506	506	51	0	
2	0	0	0	0	502	508	50	0	
3	0	0	0	0	481	507	50	0	
4	0	0	0	0	489	508	49	0	
5	0	0	0	0	514	508	48	0	
6	0	0	0	0	549	507	48	0	
7	0	0	0	0	536	510	50	0	
8	0	0	0	0	525	510	49	0	
9	0	0	0	0	511	507	48	0	
10	0	0	0	0	506	508	47	0	
11	0	0	0	0	486	507	45	0	
12	0	0	0	0	485	509	45	0	
13	0	0	0	0	484	508	44	0	
14	0	0	0	0	482	507	44	0	
15	0	0	0	0	491	509	44	0	
0	0	0	0	0	518	507	42	0	
1	0	0	0	0	531	507	41	0	
2	0	0	0	0	541	508	40	0	
3	0	0	0	0	519	510	42	0	
4	0	0	0	0	497	508	41	0	
5	0	0	0	0	495	506	38	0	
6	0	0	0	0	499	506	39	0	
7	0	0	0	0	515	507	37	0	
8	0	0	0	0	549	507	38	0	
9	0	0	0	0	579	511	34	0	
10	0	0	0	0	534	512	33	0	
11	0	0	0	0	512	511	31	0	
12	0	0	0	0	503	510	33	0	
13	0	0	0	0	493	508	31	0	
14	0	0	0	0	501	509	31	0	
15	0	0	0	0	505	509	28	0	
0	0	0	0	0	507	507	26	0	
1	0	0	0	0	505	507	21	0	
2	0	0	0	0	515	509	20	0	
3	0	0	0	0	516	505	18	0	
4	0	0	0	0	507	508	6	0	
5	0	0	0	0	501	504	6	0	
6	0	0	0	0	501	508	2	0	
7	0	0	0	0	496	505	1	0	
8	0	0	0	0	491	508	3	0	
9	0	0	0	0	490	508	1	0	
10	0	0	0	0	519	508	0	0	
11	0	0	0	0	550	508	0	0	
12	0	0	0	0	538	510	0	0	
13	0	0	0	0	531	511	0	0	
14	0	0	0	0	531	510	0	0	
15	0	0	0	0	515	508	0	0	
0	0	0	0	0	501	508	0	0	
1	0	0	0	0	507	509	0	0	
2	0	0	0	0	504	507	0	0	
3	0	0	0	0	476	508	0	0	
4	0	0	0	0	460	510	0	0	
5	0	0	0	0	478	507	0	0	
6	0	0	0	0	499	506	0	0	
7	0	0	0	0	510	507	0	0	
8	0	0	0	0	518	507	0	0	
9	0	0	0	0	512	509	0	0	
10	0	0	0	0	517	507	0	0	
11	0	0	0	0	525	510	0	0	
12	0	0	0	0	534	509	0	0	
13	0	0	0	0	546	512	0	0	
14	0	0	0	0	496	506	0	0	
15	0	0	0	0	515	505	0	0	
0	0	0	0	0	528	505	0	0	
1	0	0	0	0	531	508	0	0	
2	0	0	0	0	533	509	0	0	
3	0	0	0	0	529	508	0	0	
4	0	0	0	0	531	509	0	0	
5	0	0	0	0	514	508	0	0	
6	0	0	0	0	498	508	0	0	
7	0	0	0	0	499	505	0	0	
8	0	0	0	0	496	508	0	0	
9	0	0	0	0	487	506	0	0	
10	0	0	0	0	497	506	0	0	
11	0	0	0	0	500	507	0	0	
12	0	0	0	0	496	510	0	0	
13	0	0	0	0	507	509	0	0	
14	0	0	0	0	512	508	0	0	
15	0	0	0	0	533	511	0	0	
0	0	0	0	0	517	508	0	0	
1	0	0	0	0	498	507	0	0	
2	0	0	0	0	505	508	0	0	
3	0	0	0	0	510	507	0	0	
4	0	0	0	0	501	508	0	0	
5	0	0	0	0	501	507	0	0	
6	0	0	0	0	515	508	0	0	
7	0	0	0	0	519	508	0	0	
8	0	0	0	0	513	508	0	0	
9	0	0	0	0	516	508	0	0	
10	0	0	0	0	540	508	0	0	
11	0	0	0	0	535	509	0	0	
12	0	0	0	0	521	511	0	0	
13	0	0	0	0	510	509	0	0	
14	0	0	0	0	508	507	0	0	
15	0	0	0	0	514	507	0	0	
0	0	0	0	0	493	508	0	0	
1	0	0	0	0	492	505	0	0	
2	0	0	0	0	496	507	0	0	
3	0	0	0	0	514	508	0	0	
4	0	0	0	0	514	509	0	0	
5	0	0	0	0	526	510	0	0	
6	0	0	0	0	530	507	0	0	
7	0	0	0	0	510	508	0	0	
8	0	0	0	0	505	507	0	0	
9	0	0	0	0	515	508	0	0	
10	0	0	0	0	510	507	0	0	
11	0	0	0	0	499	509	0	0	
12	0	0	0	0	482	509	0	0	
13	0	0	0	0	500	509	0	0	
14	0	0	0	0	510	509	0	0	
15	0	0	0	0	512	508	0	0	
0	0	0	0	0	511	507	0	0	
1	0	0	0	0	515	509	0	0	
2	0	0	0	0	515	507	0	0	
3	0	0	0	0	514	509	0	0	
4	0	0	0	0	515	508	0	0	
5	0	0	0	0	513	507	0	0	
6	0	0	0	0	514	506	0	0	
7	0	0	0	0	514	508	0	0	
8	0	0	0	0	516	509	0	0	
9	0	0	0	0	515	510	0	0	
10	0	0	0	0	515	512	0	0	
11	0	0	0	0	507	509	0	0	
12	0	0	0	0	511	507	0	0	
13	0	0	0	0	513	506	0	0	
14	0	0	0	0	511	508	0	0	
15	0	0	0	0	509	509	0	0	
0	0	0	0	0	510	509	0	0	
1	0	0	0	0	515	507	0	0	
2	0	0	0	0	523	507	0	0	
3	0	0	0	0	505	508	0	0	
4	0	0	0	0	499	510	0	0	
5	0	0	0	0	504	507	0	0	
6	0	0	0	0	512	508	0	0	
7	0	0	0	0	512	509	0	0	
8	0	0	0	0	507	508	0	0	
9	0	0	0	0	511	507	0	0	
10	0	0	0	0	513	507	0	0	
11	0	0	0	0	512	508	0	0	
12	0	0	0	0	514	510	0	0	
13	0	0	0	0	514	508	0	0	
14	0	0	0	0	513	510	0	0	
15	0	0	0	0	511	508	0	0	
0	0	0	0	0	514	507	0	0	
1	0	0	0	0	510	508	0	0	
2	0	0	0	0	511	506	0	0	
3	0	0	0	0	511	507	0	0	
4	0	0	0	0	510	508	0	0	
5	0	0	0	0	508	507	0	0	
6	0	0	0	0	509	508	0	0	
7	0	0	0	0	509	510	0	0	
8	0	0	0	0	511	508	0	0	
9	0	0	0	0	510	508	0	0	
10	0	0	0	0	511	509	0	0	
11	0	0	0	0	513	508	0	0	
12	0	0	0	0	511	507	0	0	
13	0	0	0	0	511	506	0	0	
14	0	0	0	0	512	510	0	0	
15	0	0	0	0	512	508	0	0	
0	0	0	0	0	513	507	0	0	
1	0	0	0	0	515	508	0	0	
2	0	0	0	0	513	509	0	0	
3	0	0	0	0	510	510	0	0	
4	0	0	0	0	511	509	0	0	
5	0	0	0	0	510	508	0	0	
6	0	0	0	0	508	505	0	0	
7	0	0	0	0	510	508	0	0	
8	0	0	0	0	511	508	0	0	
9	0	0	0	0	514	508	0	0	
10	0	0	0	0	511	510	0	0	
11	0	0	0	0	513	508	0	0	
12	0	0	0	0	507	509	0	0	
13	0	0	0	0	504	508	0	0	
14	0	0	0	0	506	508	0	0	
15	0	0	0	0	509	508	0	0	
0	0	0	0	0	510	509	0	0	
1	0	0	0	0	511	509	0	0	
2	0	0	0	0	510	507	0	0	
3	0	0	0	0	514	507	0	0	
4	0	0	0	0	515	509	0	0	
5	0	0	0	0	518	507	0	0	
6	0	0	0	0	514	508	0	0	
7	0	0	0	0	513	507	0	0	
8	0	0	0	0	511	507	0	0	
9	0	0	0	0	510	505	0	0	
10	0	0	0	0	511	510	0	0	
11	0	0	0	0	510	507	0	0	
12	0	0	0	0	509	508	0	0	
13	0	0	0	0	505	507	0	0	
14	0	0	0	0	508	507	0	0	
15	0	0	0	0	509	509	0	0	
0	0	0	0	0	508	508	0	0	
1	0	0	0	0	510	509	0	0	
2	0	0	0	0	513	507	0	0	
3	0	0	0	0	518	509	0	0	
4	0	0	0	0	516	510	0	0	
5	0	0	0	0	519	508	0	0	
6	0	0	0	0	514	507	0	0	
7	0	0	0	0	513	508	0	0	
8	0	0	0	0	511	507	0	0	
9	0	0	0	0	507	510	0	0	
10	0	0	0	0	509	508	0	0	
11	0	0	0	0	510	508	0	0	
12	0	0	0	0	509	509	0	0	
13	0	0	0	0	510	507	0	0	
14	0	0	0	0	512	509	0	0	
15	0	0	0	0	512	509	0	0	
0	0	0	0	0	508	510	0	0	
1	0	0	0	0	507	508	0	0	
2	0	0	0	0	505	506	0	0	
3	0	0	0	0	502	507	0	0	
4	0	0	0	0	501	507	0	0	
5	0	0	0	0	504	510	0	0	
6	0	0	0	0	509	508	0	0	
7	0	0	0	0	518	508	0	0	
8	0	0	0	0	530	508	0	0	
9	0	0	0	0	519	507	0	0	
10	0	0	0	0	526	506	0	0	
11	0	0	0	0	532	508	0	0	
12	0	0	0	0	512	508	0	0	
13	0	0	0	0	508	510	0	0	
14	0	0	0	0	511	512	0	0	
15	0	0	0	0	507	508	0	0	
0	0	0	0	0	508	507	0	0	
1	0	0	0	0	508	507	0	0	
2	0	0	0	0	505	508	0	0	
3	0	0	0	0	506	506	0	0	
4	0	0	0	0	507	508	0	0	
5	0	0	0	0	507	508	0	0	
6	0	0	0	0	506	507	0	0	
7	0	0	0	0	510	508	0	0	
8	0	0	0	0	511	508	0	0	
9	0	0	0	0	511	509	0	0	
10	0	0	0	0	511	509	0	0	
11	0	0	0	0	511	507	0	0	
12	0	0	0	0	511	507	0	0	
13	0	0	0	0	511	508	0	0	
14	0	0	0	0	512	506	0	0	
15	0	0	0	0	511	509	0	0	
0	0	0	0	0	511	508	0	0	
1	0	0	0	0	511	507	0	0	
2	0	0	0	0	515	508	0	0	
3	0	0	0	0	513	508	0	0	
4	0	0	0	0	510	507	0	0	
5	0	0	0	0	511	508	0	0	
6	0	0	0	0	511	508	0	0	
7	0	0	0	0	508	509	0	0	
8	0	0	0	0	510	509	0	0	
9	0	0	0	0	511	508	0	0	
10	0	0	0	0	510	506	0	0	
11	0	0	0	0	511	507	0	0	
12	0	0	0	0	510	510	0	0	
13	0	0	0	0	510	505	0	0	
14	0	0	0	0	512	507	0	0	
15	0	0	0	0	511	509	0	0	
0	0	0	0	0	513	507	0	0	
1	0	0	0	0	512	508	0	0	
2	0	0	0	0	512	508	0	0	
3	0	0	0	0	513	510	0	0	
4	0	0	0	0	515	509	0	0	
5	0	0	0	0	508	508	0	0	
6	0	0	0	0	508	507	0	0	
7	0	0	0	0	512	506	0	0	
8	0	0	0	0	513	507	0	0	
9	0	0	0	0	512	507	0	0	
10	0	0	0	0	509	509	0	0	
11	0	0	0	0	510	509	0	0	
12	0	0	0	0	509	509	0	0	
13	0	0	0	0	510	507	0	0	
14	0	0	0	0	509	506	0	0	
15	0	0	0	0	509	507	0	0	
0	0	0	0	0	510	508	0	0	
1	0	0	0	0	514	509	0	0	
2	0	0	0	0	511	509	0	0	
3	0	0	0	0	511	510	0	0	
4	0	0	0	0	513	508	0	0	
5	0	0	0	0	511	507	0	0	
6	0	0	0	0	512	507	0	0	
7	0	0	0	0	513	508	0	0	
8	0	0	0	0	512	509	0	0	
9	0	0	0	0	511	507	0	0	
10	0	0	0	0	512	507	0	0	
11	0	0	0	0	511	507	0	0	
12	0	0	0	0	510	508	0	0	
13	0	0	0	0	512	507	0	0	
14	0	0	0	0	510	508	0	0	
15	0	0	0	0	511	507	0	0	
0	0	0	0	0	509	508	0	0	
1	0	0	0	0	511	508	0	0	
2	0	0	0	0	510	508	0	0	
3	0	0	0	0	508	506	0	0	
4	0	0	0	0	509	509	0	0	
5	0	0	0	0	508	510	0	0	
6	0	0	0	0	510	511	0	0	
7	0	0	0	0	510	507	0	0	
8	0	0	0	0	512	509	0	0	
9	0	0	0	0	513	507	0	0	
10	0	0	0	0	512	506	0	0	
11	0	0	0	0	513	509	0	0	
12	0	0	0	0	512	508	0	0	
13	0	0	0	0	512	507	0	0	
14	0	0	0	0	514	506	0	0	
15	0	0	0	0	512	507	0	0	
0	0	0	0	0	513	508	0	0	
1	0	0	0	0	512	508	0	0	
2	0	0	0	0	515	508	0	0	
3	0	0	0	0	511	509	0	0	
4	0	0	0	0	510	506	0	0	
5	0	0	0	0	507	511	0	0	
6	0	0	0	0	507	508	0	0	
7	0	0	0	0	508	508	0	0	
8	0	0	0	0	508	508	0	0	
9	0	0	0	0	511	510	0	0	
10	0	0	0	0	510	509	0	0	
11	0	0	0	0	509	507	0	0	
12	0	0	0	0	511	507	0	0	
13	0	0	0	0	511	508	0	0	
14	0	0	0	0	511	508	0	0	
15	0	0	0	0	511	508	0	0	
0	0	0	0	0	514	508	0	0	
1	0	0	0	0	513	507	0	0	
2	0	0	0	0	512	508	0	0	
3	0	0	0	0	514	507	0	0	
4	0	0	0	0	515	508	0	0	
5	0	0	0	0	511	506	0	0	
6	0	0	0	0	509	508	0	0	
7	0	0	0	0	509	509	0	0	
8	0	0	0	0	508	509	0	0	
9	0	0	0	0	511	509	0	0	
10	0	0	0	0	510	505	0	0	
11	0	0	0	0	511	508	0	0	
12	0	0	0	0	509	509	0	0	
13	0	0	0	0	509	505	0	0	
14	0	0	0	0	511	510	0	0	
15	0	0	0	0	508	508	0	0	
0	0	0	0	0	512	508	0	0	
1	0	0	0	0	511	507	0	0	
2	0	0	0	0	514	508	0	0	
3	0	0	0	0	513	508	0	0	
4	0	0	0	0	512	508	0	0	
5	0	0	0	0	512	509	0	0	
6	0	0	0	0	511	507	0	0	
7	0	0	0	0	512	509	0	0	
8	0	0	0	0	513	508	0	0	
9	0	0	0	0	511	507	0	0	
10	0	0	0	0	513	509	0	0	
11	0	0	0	0	514	509	0	0	
12	0	0	0	0	511	507	0	0	
13	0	0	0	0	512	508	0	0	
14	0	0	0	0	509	508	0	0	
15	0	0	0	0	508	508	0	0	
0	0	0	0	0	502	508	0	0	
1	0	0	0	0	507	508	0	0	
2	0	0	0	0	510	508	0	0	
3	0	0	0	0	510	508	0	0	
4	0	0	0	0	512	507	0	0	
5	0	0	0	0	511	509	0	0	
6	0	0	0	0	511	510	0	0	
7	0	0	0	0	512	508	0	0	
8	0	0	0	0	513	507	0	0	
9	0	0	0	0	515	506	0	0	
10	0	0	0	0	513	509	0	0	
11	0	0	0	0	513	506	0	0	
12	0	0	0	0	514	508	0	0	
13	0	0	0	0	512	508	0	0	
14	0	0	0	0	511	508	0	0	
15	0	0	0	0	512	507	0	0	
0	0	0	0	0	509	507	0	0	
1	0	0	0	0	509	507	0	0	
2	0	0	0	0	510	507	0	0	
3	0	0	0	0	509	508	0	0	
4	0	0	0	0	508	509	0	0	
5	0	0	0	0	509	509	0	0	
6	0	0	0	0	510	510	0	0	
7	0	0	0	0	510	507	0	0	
8	0	0	0	0	513	509	0	0	
9	0	0	0	0	512	508	0	0	
10	0	0	0	0	512	509	0	0	
11	0	0	0	0	511	507	0	0	
12	0	0	0	0	513	508	0	0	
13	0	0	0	0	515	509	0	0	
14	0	0	0	0	513	507	0	0	
15	0	0	0	0	512	507	0	0	
0	0	0	0	0	512	507	0	0	
1	0	0	0	0	511	507	0	0	
2	0	0	0	0	511	508	0	0	
3	0	0	0	0	510	507	0	0	
4	0	0	0	0	510	508	0	0	
5	0	0	0	0	510	509	0	0	
6	0	0	0	0	507	507	0	0	
7	0	0	0	0	508	508	0	0	
8	0	0	0	0	508	509	0	0	
9	0	0	0	0	508	509	0	0	
10	0	0	0	0	508	509	0	0	
11	0	0	0	0	508	508	0	0	
12	0	0	0	0	511	508	0	0	
13	0	0	0	0	514	508	0	0	
14	0	0	0	0	516	507	0	0	
15	0	0	0	0	517	508	0	0	
0	0	0	0	0	514	508	0	0	
1	0	0	0	0	513	508	0	0	
2	0	0	0	0	511	506	0	0	
3	0	0	0	0	511	508	0	0	
4	0	0	0	0	511	508	0	0	
5	0	0	0	0	511	507	0	0	
6	0	0	0	0	508	507	0	0	
7	0	0	0	0	510	509	0	0	
8	0	0	0	0	510	508	0	0	
9	0	0	0	0	510	509	0	0	
10	0	0	0	0	508	510	0	0	
11	0	0	0	0	508	507	0	0	
12	0	0	0	0	507	508	0	0	
13	0	0	0	0	508	508	0	0	
14	0	0	0	0	510	507	0	0	
15	0	0	0	0	512	507	0	0	
0	0	0	0	0	514	507	0	0	
1	0	0	0	0	511	508	0	0	
2	0	0	0	0	514	510	0	0	
3	0	0	0	0	513	508	0	0	
4	0	0	0	0	513	508	0	0	
5	0	0	0	0	512	510	0	0	
6	0	0	0	0	512	505	0	0	
7	0	0	0	0	513	509	0	0	
8	0	0	0	0	511	510	0	0	
9	0	0	0	0	511	509	0	0	
10	0	0	0	0	509	507	0	0	
11	0	0	0	0	510	508	0	0	
12	0	0	0	0	510	507	0	0	
13	0	0	0	0	508	507	0	0	
14	0	0	0	0	511	508	0	0	
15	0	0	0	0	511	507	0	0	
0	0	0	0	0	508	509	0	0	
1	0	0	0	0	509	505	0	0	
2	0	0	0	0	510	507	0	0	
3	0	0	0	0	512	509	0	0	
4	0	0	0	0	511	507	0	0	
5	0	0	0	0	512	509	0	0	
6	0	0	0	0	512	510	0	0	
7	0	0	0	0	513	508	0	0	
8	0	0	0	0	514	507	0	0	
9	0	0	0	0	511	508	0	0	
10	0	0	0	0	512	509	0	0	
11	0	0	0	0	511	509	0	0	
12	0	0	0	0	511	507	0	0	
13	0	0	0	0	511	510	0	0	
14	0	0	0	0	511	508	0	0	
15	0	0	0	0	510	507	0	0	
0	0	0	0	0	510	507	0	0	
1	0	0	0	0	510	508	0	0	
2	0	0	0	0	508	505	0	0	
3	0	0	0	0	510	507	0	0	
4	0	0	0	0	511	509	0	0	
5	0	0	0	0	508	509	0	0	
6	0	0	0	0	510	510	0	0	
7	0	0	0	0	512	508	0	0	
8	0	0	0	0	511	510	0	0	
9	0	0	0	0	511	509	0	0	
10	0	0	0	0	511	508	0	0	
11	0	0	0	0	512	508	0	0	
12	0	0	0	0	512	508	0	0	
13	0	0	0	0	512	507	0	0	
14	0	0	0	0	512	508	0	0	
15	0	0	0	0	516	508	0	0	
0	0	0	0	0	516	509	0	0	
1	0	0	0	0	512	507	0	0	
2	0	0	0	0	510	507	0	0	
3	0	0	0	0	508	508	0	0	
4	0	0	0	0	508	508	0	0	
5	0	0	0	0	508	508	0	0	
6	0	0	0	0	509	507	0	0	
7	0	0	0	0	511	508	0	0	
8	0	0	0	0	509	509	0	0	
9	0	0	0	0	510	507	0	0	
10	0	0	0	0	509	508	0	0	
11	0	0	0	0	511	509	0	0	
12	0	0	0	0	512	507	0	0	
13	0	0	0	0	512	507	0	0	
14	0	0	0	0	512	508	0	0	
15	0	0	0	0	513	508	0	0	
0	0	0	0	0	514	508	0	0	
1	0	0	0	0	512	507	0	0	
2	0	0	0	0	512	507	0	0	
3	0	0	0	0	512	508	0	0	
4	0	0	0	0	513	508	0	0	
5	0	0	0	0	508	508	0	0	
6	0	0	0	0	510	510	0	0	
7	0	0	0	0	512	508	0	0	
8	0	0	0	0	510	507	0	0	
9	0	0	0	0	510	506	0	0	
10	0	0	0	0	507	510	0	0	
11	0	0	0	0	507	509	0	0	
12	0	0	0	0	507	508	0	0	
13	0	0	0	0	510	507	0	0	
14	0	0	0	0	511	509	0	0	
15	0	0	0	0	512	508	0	0	
0	0	0	0	0	511	507	0	0	
1	0	0	0	0	511	508	0	0	
2	0	0	0	0	512	507	0	0	
3	0	0	0	0	512	509	0	0	
4	0	0	0	0	513	510	0	0	
5	0	0	0	0	511	506	0	0	
6	0	0	0	0	511	505	0	0	
7	0	0	0	0	510	508	0	0	
8	0	0	0	0	512	507	0	0	
9	0	0	0	0	513	508	0	0	
10	0	0	0	0	511	508	0	0	
11	0	0	0	0	511	509	0	0	
12	0	0	0	0	511	508	0	0	
13	0	0	0	0	510	509	0	0	
14	0	0	0	0	510	508	0	0	
15	0	0	0	0	511	510	0	0	
0	0	0	0	0	511	510	0	0	
1	0	0	0	0	511	510	0	0	
2	0	0	0	0	511	506	0	0	
3	0	0	0	0	511	505	0	0	
4	0	0	0	0	511	508	0	0	
5	0	0	0	0	513	509	0	0	
6	0	0	0	0	512	508	0	0	
7	0	0	0	0	513	507	0	0	
8	0	0	0	0	513	508	0	0	
9	0	0	0	0	512	508	0	0	
10	0	0	0	0	512	507	0	0	
11	0	0	0	0	512	507	0	0	
12	0	0	0	0	511	507	0	0	
13	0	0	0	0	511	507	0	0	
14	0	0	0	0	511	507	0	0	
15	0	0	0	0	511	508	0	0	
0	0	0	0	0	508	506	0	0	
1	0	0	0	0	510	508	0	0	
2	0	0	0	0	512	508	0	0	
3	0	0	0	0	509	507	0	0	
4	0	0	0	0	509	509	0	0	
5	0	0	0	0	508	507	0	0	
6	0	0	0	0	510	509	0	0	
7	0	0	0	0	512	509	0	0	
8	0	0	0	0	513	508	0	0	
9	0	0	0	0	512	507	0	0	
10	0	0	0	0	511	509	0	0	
11	0	0	0	0	510	508	0	0	
12	0	0	0	0	511	508	0	0	
13	0	0	0	0	513	509	0	0	
14	0	0	0	0	514	506	0	0	
15	0	0	0	0	511	510	0	0	
0	0	0	0	0	513	508	0	0	
1	0	0	0	0	515	508	0	0	
2	0	0	0	0	512	508	0	0	
3	0	0	0	0	512	508	0	0	
4	0	0	0	0	510	509	0	0	
5	0	0	0	0	510	507	0	0	
6	0	0	0	0	507	508	0	0	
7	0	0	0	0	506	506	0	0	
8	0	0	0	0	508	510	0	0	
9	0	0	0	0	509	507	0	0	
10	0	0	0	0	509	508	0	0	
11	0	0	0	0	511	509	0	0	
12	0	0	0	0	511	508	0	0	
13	0	0	0	0	513	509	0	0	
14	0	0	0	0	512	509	0	0	
15	0	0	0	0	513	508	0	0	
0	0	0	0	0	511	507	0	0	
1	0	0	0	0	510	507	0	0	
2	0	0	0	0	513	506	0	0	
3	0	0	0	0	512	508	0	0	
4	0	0	0	0	511	508	0	0	
5	0	0	0	0	512	507	0	0	
6	0	0	0	0	511	508	0	0	
7	0	0	0	0	513	508	0	0	
8	0	0	0	0	509	506	0	0	
9	0	0	0	0	510	511	0	0	
10	0	0	0	0	507	508	0	0	
11	0	0	0	0	508	508	0	0	
12	0	0	0	0	511	507	0	0	
13	0	0	0	0	511	508	0	0	
14	0	0	0	0	511	508	0	0	
15	0	0	0	0	511	509	0	0	
0	0	0	0	0	512	509	0	0	
1	0	0	0	0	512	507	0	0	
2	0	0	0	0	512	507	0	0	
3	0	0	0	0	509	507	0	0	
4	0	0	0	0	511	508	0	0	
5	0	0	0	0	513	510	0	0	
6	0	0	0	0	511	508	0	0	
7	0	0	0	0	510	508	0	0	
8	0	0	0	0	511	507	0	0	
9	0	0	0	0	511	509	0	0	
10	0	0	0	0	511	507	0	0	
11	0	0	0	0	511	508	0	0	
12	0	0	0	0	510	506	0	0	
13	0	0	0	0	509	507	0	0	
14	0	0	0	0	509	508	0	0	
15	0	0	0	0	509	507	0	0	
0	0	0	0	0	510	509	0	0	
1	0	0	0	0	510	509	0	0	
2	0	0	0	0	511	508	0	0	
3	0	0	0	0	513	506	0	0	
4	0	0	0	0	510	507	0	0	
5	0	0	0	0	513	507	0	0	
6	0	0	0	0	511	508	0	0	
7	0	0	0	0	510	508	0	0	
8	0	0	0	0	512	508	0	0	
9	0	0	0	0	513	508	0	0	
10	0	0	0	0	512	507	0	0	
11	0	0	0	0	512	508	0	0	
12	0	0	0	0	511	510	0	0	
13	0	0	0	0	513	508	0	0	
14	0	0	0	0	513	506	0	0	
15	0	0	0	0	512	507	0	0	
0	0	0	0	0	510	508	0	0	
1	0	0	0	0	511	509	0	0	
2	0	0	0	0	512	508	0	0	
3	0	0	0	0	509	509	0	0	
4	0	0	0	0	507	508	0	0	
5	0	0	0	0	511	510	0	0	
6	0	0	0	0	509	508	0	0	
7	0	0	0	0	510	508	0	0	
8	0	0	0	0	512	507	0	0	
9	0	0	0	0	514	507	0	0	
10	0	0	0	0	513	509	0	0	
11	0	0	0	0	512	508	0	0	
12	0	0	0	0	514	510	0	0	
13	0	0	0	0	513	506	0	0	
14	0	0	0	0	512	511	0	0	
15	0	0	0	0	510	509	0	0	
0	0	0	0	0	511	507	0	0	
1	0	0	0	0	508	508	0	0	
2	0	0	0	0	511	507	0	0	
3	0	0	0	0	511	508	0	0	
4	0	0	0	0	509	508	0	0	
5	0	0	0	0	510	508	0	0	
6	0	0	0	0	506	508	0	0	
7	0	0	0	0	508	507	0	0	
8	0	0	0	0	510	507	0	0	
9	0	0	0	0	510	508	0	0	
10	0	0	0	0	510	508	0	0	
11	0	0	0	0	511	508	0	0	
12	0	0	0	0	511	507	0	0	
13	0	0	0	0	512	507	0	0	
14	0	0	0	0	512	508	0	0	
15	0	0	0	0	516	507	0	0	
0	0	0	0	0	515	508	0	0	
1	0	0	0	0	516	510	0	0	
2	0	0	0	0	512	509	0	0	
3	0	0	0	0	512	508	0	0	
4	0	0	0	0	513	509	0	0	
5	0	0	0	0	512	510	0	0	
6	0	0	0	0	511	508	0	0	
7	0	0	0	0	507	506	0	0	
8	0	0	0	0	507	507	0	0	
9	0	0	0	0	509	509	0	0	
10	0	0	0	0	507	508	0	0	
11	0	0	0	0	508	507	0	0	
12	0	0	0	0	512	510	0	0	
13	0	0	0	0	511	507	0	0	
14	0	0	0	0	510	509	0	0	
15	0	0	0	0	509	507	0	0	
0	0	0	0	0	510	507	0	0	
1	0	0	0	0	511	508	0	0	
2	0	0	0	0	513	509	0	0	
3	0	0	0	0	515	509	0	0	
4	0	0	0	0	513	508	0	0	
5	0	0	0	0	515	509	0	0	
6	0	0	0	0	512	506	0	0	
7	0	0	0	0	512	506	0	0	
8	0	0	0	0	511	509	0	0	
9	0	0	0	0	513	507	0	0	
10	0	0	0	0	511	509	0	0	
11	0	0	0	0	510	508	0	0	
12	0	0	0	0	511	509	0	0	
13	0	0	0	0	510	507	0	0	
14	0	0	0	0	506	508	0	0	
15	0	0	0	0	507	507	0	0	
0	0	0	0	0	510	509	0	0	
1	0	0	0	0	508	509	0	0	
2	0	0	0	0	509	509	0	0	
3	0	0	0	0	513	508	0	0	
4	0	0	0	0	514	508	0	0	
5	0	0	0	0	516	509	0	0	
6	0	0	0	0	514	508	0	0	
7	0	0	0	0	512	508	0	0	
8	0	0	0	0	511	507	0	0	
9	0	0	0	0	511	508	0	0	
10	0	0	0	0	512	509	0	0	
11	0	0	0	0	511	508	0	0	
12	0	0	0	0	511	508	0	0	
13	0	0	0	0	511	507	0	0	
14	0	0	0	0	510	508	0	0	
15	0	0	0	0	508	506	0	0	
0	0	0	0	0	508	508	0	0	
1	0	0	0	0	508	508	0	0	
2	0	0	0	0	510	507	0	0	
3	0	0	0	0	510	509	0	0	
4	0	0	0	0	510	507	0	0	
5	0	0	0	0	508	508	0	0	
6	0	0	0	0	511	508	0	0	
7	0	0	0	0	512	509	0	0	
8	0	0	0	0	510	509	0	0	
9	0	0	0	0	510	509	0	0	
10	0	0	0	0	512	507	0	0	
11	0	0	0	0	514	510	0	0	
12	0	0	0	0	512	508	0	0	
13	0	0	0	0	512	508	0	0	
14	0	0	0	0	512	508	0	0	
15	0	0	0	0	512	507	0	0	
0	0	0	0	0	514	508	0	0	
1	0	0	0	0	512	508	0	0	
2	0	0	0	0	510	508	0	0	
3	0	0	0	0	509	508	0	0	
4	0	0	0	0	512	508	0	0	
5	0	0	0	0	508	509	0	0	
6	0	0	0	0	509	507	0	0	
7	0	0	0	0	510	506	0	0	
8	0	0	0	0	509	510	0	0	
9	0	0	0	0	511	508	0	0	
10	0	0	0	0	512	510	0	0	
11	0	0	0	0	509	510	0	0	
12	0	0	0	0	512	510	0	0	
13	0	0	0	0	513	508	0	0	
14	0	0	0	0	511	508	0	0	
15	0	0	0	0	512	508	0	0	
0	0	0	0	0	513	510	0	0	
1	0	0	0	0	514	507	0	0	
2	0	0	0	0	510	508	0	0	
3	0	0	0	0	511	508	0	0	
4	0	0	0	0	513	507	0	0	
5	0	0	0	0	511	506	0	0	
6	0	0	0	0	511	508	0	0	
7	0	0	0	0	507	506	0	0	
8	0	0	0	0	508	510	0	0	
9	0	0	0	0	510	509	0	0	
10	0	0	0	0	508	506	0	0	
11	0	0	0	0	508	507	0	0	
12	0	0	0	0	509	508	0	0	
13	0	0	0	0	512	508	0	0	
14	0	0	0	0	513	509	0	0	
15	0	0	0	0	513	510	0	0	
0	0	0	0	0	511	508	0	0	
1	0	0	0	0	511	510	0	0	
2	0	0	0	0	510	510	0	0	
3	0	0	0	0	512	507	0	0	
