# OpenSignals Text File Format. Version 1
# {"20:18:06:13:21:78": {"position": 0, "device": "bitalino_rev", "device name": "20:18:06:13:21:78", "device connection": "BTH20:18:06:13:21:78", "sampling rate": 1000, "resolution": [4, 1, 1, 1, 1, 10, 10, 10, 10], "firmware version": 1281, "comments": "", "keywords": "", "mode": 0, "sync interval": 2, "date": "2023-6-5", "time": "23:41:8.790", "channels": [1, 2, 3, 4], "sensor": ["EMGBITREV", "EMGBITREV", "RAW", "RAW"], "label": ["A1", "A2", "A3", "A4"], "column": ["nSeq", "I1", "I2", "O1", "O2", "A1", "A2", "A3", "A4"], "special": [{}, {}, {}, {}], "digital IO": [0, 0, 1, 1]}}
# EndOfHeader
0	0	0	0	0	503	511	0	0	
1	0	0	0	0	507	509	0	0	
2	0	0	0	0	508	508	0	0	
3	0	0	0	0	506	509	0	0	
4	0	0	0	0	508	510	0	0	
5	0	0	0	0	507	512	0	0	
6	0	0	0	0	505	511	0	0	
7	0	0	0	0	508	511	0	0	
8	0	0	0	0	508	510	0	0	
9	0	0	0	0	511	511	0	0	
10	0	0	0	0	513	510	0	0	
11	0	0	0	0	512	509	0	0	
12	0	0	0	0	513	512	0	0	
13	0	0	0	0	514	513	0	0	
14	0	0	0	0	510	511	0	0	
15	0	0	0	0	510	510	0	0	
0	0	0	0	0	508	513	0	0	
1	0	0	0	0	509	508	0	0	
2	0	0	0	0	508	511	0	0	
3	0	0	0	0	505	508	0	0	
4	0	0	0	0	502	511	0	0	
5	0	0	0	0	505	510	0	0	
6	0	0	0	0	506	510	0	0	
7	0	0	0	0	506	509	0	0	
8	0	0	0	0	505	509	0	0	
9	0	0	0	0	506	510	0	0	
10	0	0	0	0	506	511	0	0	
11	0	0	0	0	511	511	0	0	
12	0	0	0	0	514	511	0	0	
13	0	0	0	0	512	511	0	0	
14	0	0	0	0	513	512	0	0	
15	0	0	0	0	511	508	0	0	
0	0	0	0	0	510	512	0	0	
1	0	0	0	0	511	511	0	0	
2	0	0	0	0	509	512	0	0	
3	0	0	0	0	507	512	0	0	
4	0	0	0	0	508	510	0	0	
5	0	0	0	0	509	510	0	0	
6	0	0	0	0	506	512	0	0	
7	0	0	0	0	503	511	0	0	
8	0	0	0	0	503	508	0	0	
9	0	0	0	0	504	511	0	0	
10	0	0	0	0	505	510	0	0	
11	0	0	0	0	507	509	0	0	
12	0	0	0	0	510	512	0	0	
13	0	0	0	0	509	511	0	0	
14	0	0	0	0	508	510	0	0	
15	0	0	0	0	511	511	0	0	
0	0	0	0	0	512	514	0	0	
1	0	0	0	0	512	509	0	0	
2	0	0	0	0	511	511	0	0	
3	0	0	0	0	511	511	0	0	
4	0	0	0	0	513	509	0	0	
5	0	0	0	0	513	511	0	0	
6	0	0	0	0	513	511	0	0	
7	0	0	0	0	508	511	0	0	
8	0	0	0	0	507	511	0	0	
9	0	0	0	0	508	511	0	0	
10	0	0	0	0	506	510	0	0	
11	0	0	0	0	507	508	0	0	
12	0	0	0	0	507	511	0	0	
13	0	0	0	0	506	511	0	0	
14	0	0	0	0	503	510	0	0	
15	0	0	0	0	506	511	0	0	
0	0	0	0	0	506	512	0	0	
1	0	0	0	0	505	510	0	0	
2	0	0	0	0	507	510	0	0	
3	0	0	0	0	509	509	0	0	
4	0	0	0	0	513	509	0	0	
5	0	0	0	0	512	510	0	0	
6	0	0	0	0	511	511	0	0	
7	0	0	0	0	512	512	0	0	
8	0	0	0	0	511	511	0	0	
9	0	0	0	0	512	509	0	0	
10	0	0	0	0	513	511	0	0	
11	0	0	0	0	512	510	0	0	
12	0	0	0	0	509	508	0	0	
13	0	0	0	0	506	510	0	0	
14	0	0	0	0	505	511	0	0	
15	0	0	0	0	506	509	0	0	
0	0	0	0	0	502	510	0	0	
1	0	0	0	0	503	509	0	0	
2	0	0	0	0	503	511	0	0	
3	0	0	0	0	504	509	0	0	
4	0	0	0	0	508	511	0	0	
5	0	0	0	0	508	511	0	0	
6	0	0	0	0	511	512	0	0	
7	0	0	0	0	510	511	0	0	
8	0	0	0	0	512	511	0	0	
9	0	0	0	0	511	512	0	0	
10	0	0	0	0	513	511	0	0	
11	0	0	0	0	513	511	0	0	
12	0	0	0	0	513	510	0	0	
13	0	0	0	0	513	511	0	0	
14	0	0	0	0	512	510	0	0	
15	0	0	0	0	509	510	0	0	
0	0	0	0	0	507	510	0	0	
1	0	0	0	0	507	509	0	0	
2	0	0	0	0	506	510	0	0	
3	0	0	0	0	507	511	0	0	
4	0	0	0	0	504	510	0	0	
5	0	0	0	0	503	511	0	0	
6	0	0	0	0	502	510	0	0	
7	0	0	0	0	505	509	0	0	
8	0	0	0	0	508	511	0	0	
9	0	0	0	0	507	510	0	0	
10	0	0	0	0	508	513	0	0	
11	0	0	0	0	512	509	0	0	
12	0	0	0	0	508	508	0	0	
13	0	0	0	0	509	511	0	0	
14	0	0	0	0	512	510	0	0	
15	0	0	0	0	514	511	0	0	
0	0	0	0	0	514	510	0	0	
1	0	0	0	0	512	511	0	0	
2	0	0	0	0	510	510	0	0	
3	0	0	0	0	508	511	0	0	
4	0	0	0	0	509	509	0	0	
5	0	0	0	0	508	512	0	0	
6	0	0	0	0	507	508	0	0	
7	0	0	0	0	508	509	0	0	
8	0	0	0	0	504	511	0	0	
9	0	0	0	0	505	510	0	0	
10	0	0	0	0	506	510	0	0	
11	0	0	0	0	507	511	0	0	
12	0	0	0	0	508	511	0	0	
13	0	0	0	0	507	509	0	0	
14	0	0	0	0	510	511	0	0	
15	0	0	0	0	512	510	0	0	
0	0	0	0	0	510	511	0	0	
1	0	0	0	0	510	511	0	0	
2	0	0	0	0	513	510	0	0	
3	0	0	0	0	511	511	0	0	
4	0	0	0	0	508	510	0	0	
5	0	0	0	0	508	511	0	0	
6	0	0	0	0	508	513	0	0	
7	0	0	0	0	511	513	0	0	
8	0	0	0	0	509	512	0	0	
9	0	0	0	0	507	511	0	0	
10	0	0	0	0	506	510	0	0	
11	0	0	0	0	505	509	0	0	
12	0	0	0	0	505	510	0	0	
13	0	0	0	0	505	510	0	0	
14	0	0	0	0	506	510	0	0	
15	0	0	0	0	504	508	0	0	
0	0	0	0	0	507	510	0	0	
1	0	0	0	0	509	513	0	0	
2	0	0	0	0	509	510	0	0	
3	0	0	0	0	509	511	0	0	
4	0	0	0	0	509	512	0	0	
5	0	0	0	0	512	510	0	0	
6	0	0	0	0	512	512	0	0	
7	0	0	0	0	513	512	0	0	
8	0	0	0	0	508	511	0	0	
9	0	0	0	0	508	510	0	0	
10	0	0	0	0	510	511	0	0	
11	0	0	0	0	511	511	0	0	
12	0	0	0	0	509	511	0	0	
13	0	0	0	0	507	510	0	0	
14	0	0	0	0	507	510	0	0	
15	0	0	0	0	507	510	0	0	
0	0	0	0	0	504	509	0	0	
1	0	0	0	0	502	508	0	0	
2	0	0	0	0	505	508	0	0	
3	0	0	0	0	507	509	0	0	
4	0	0	0	0	508	508	0	0	
5	0	0	0	0	508	510	0	0	
6	0	0	0	0	510	513	0	0	
7	0	0	0	0	510	510	0	0	
8	0	0	0	0	511	510	0	0	
9	0	0	0	0	513	510	0	0	
10	0	0	0	0	515	512	0	0	
11	0	0	0	0	513	510	0	0	
12	0	0	0	0	510	512	0	0	
13	0	0	0	0	513	511	0	0	
14	0	0	0	0	511	511	0	0	
15	0	0	0	0	510	512	0	0	
0	0	0	0	0	507	512	0	0	
1	0	0	0	0	503	511	0	0	
2	0	0	0	0	503	511	0	0	
3	0	0	0	0	507	512	0	0	
4	0	0	0	0	510	511	0	0	
5	0	0	0	0	508	510	0	0	
6	0	0	0	0	503	510	0	0	
7	0	0	0	0	505	510	0	0	
8	0	0	0	0	507	508	0	0	
9	0	0	0	0	509	511	0	0	
10	0	0	0	0	511	512	0	0	
11	0	0	0	0	508	511	0	0	
12	0	0	0	0	512	510	0	0	
13	0	0	0	0	511	509	0	0	
14	0	0	0	0	510	510	0	0	
15	0	0	0	0	511	511	0	0	
0	0	0	0	0	511	511	0	0	
1	0	0	0	0	511	511	0	0	
2	0	0	0	0	511	512	0	0	
3	0	0	0	0	512	511	0	0	
4	0	0	0	0	511	510	0	0	
5	0	0	0	0	505	510	0	0	
6	0	0	0	0	507	512	0	0	
7	0	0	0	0	504	511	0	0	
8	0	0	0	0	506	509	0	0	
9	0	0	0	0	505	509	0	0	
10	0	0	0	0	507	512	0	0	
11	0	0	0	0	509	509	0	0	
12	0	0	0	0	509	508	0	0	
13	0	0	0	0	508	509	0	0	
14	0	0	0	0	510	509	0	0	
15	0	0	0	0	510	509	0	0	
0	0	0	0	0	512	510	0	0	
1	0	0	0	0	508	510	0	0	
2	0	0	0	0	506	510	0	0	
3	0	0	0	0	508	511	0	0	
4	0	0	0	0	509	513	0	0	
5	0	0	0	0	513	513	0	0	
6	0	0	0	0	512	511	0	0	
7	0	0	0	0	511	509	0	0	
8	0	0	0	0	508	510	0	0	
9	0	0	0	0	508	511	0	0	
10	0	0	0	0	508	511	0	0	
11	0	0	0	0	506	512	0	0	
12	0	0	0	0	500	511	0	0	
13	0	0	0	0	505	508	0	0	
14	0	0	0	0	506	508	0	0	
15	0	0	0	0	507	509	0	0	
0	0	0	0	0	504	512	0	0	
1	0	0	0	0	507	511	0	0	
2	0	0	0	0	508	510	0	0	
3	0	0	0	0	510	509	0	0	
4	0	0	0	0	511	511	0	0	
5	0	0	0	0	513	512	0	0	
6	0	0	0	0	513	511	0	0	
7	0	0	0	0	514	511	0	0	
8	0	0	0	0	512	511	0	0	
9	0	0	0	0	511	511	0	0	
10	0	0	0	0	510	512	0	0	
11	0	0	0	0	511	511	0	0	
12	0	0	0	0	509	510	0	0	
13	0	0	0	0	507	511	0	0	
14	0	0	0	0	506	513	0	0	
15	0	0	0	0	504	510	0	0	
0	0	0	0	0	504	508	0	0	
1	0	0	0	0	505	509	0	0	
2	0	0	0	0	506	511	0	0	
3	0	0	0	0	507	511	0	0	
4	0	0	0	0	507	508	0	0	
5	0	0	0	0	507	508	0	0	
6	0	0	0	0	507	510	0	0	
7	0	0	0	0	510	511	0	0	
8	0	0	0	0	512	511	0	0	
9	0	0	0	0	514	512	0	0	
10	0	0	0	0	513	512	0	0	
11	0	0	0	0	513	512	0	0	
12	0	0	0	0	513	512	0	0	
13	0	0	0	0	513	513	0	0	
14	0	0	0	0	509	511	0	0	
15	0	0	0	0	509	511	0	0	
0	0	0	0	0	507	508	0	0	
1	0	0	0	0	502	508	0	0	
2	0	0	0	0	502	509	0	0	
3	0	0	0	0	504	511	0	0	
4	0	0	0	0	504	510	0	0	
5	0	0	0	0	504	509	0	0	
6	0	0	0	0	507	510	0	0	
7	0	0	0	0	505	509	0	0	
8	0	0	0	0	508	509	0	0	
9	0	0	0	0	508	512	0	0	
10	0	0	0	0	508	512	0	0	
11	0	0	0	0	512	511	0	0	
12	0	0	0	0	513	512	0	0	
13	0	0	0	0	513	511	0	0	
14	0	0	0	0	515	511	0	0	
15	0	0	0	0	512	509	0	0	
0	0	0	0	0	511	512	0	0	
1	0	0	0	0	511	509	0	0	
2	0	0	0	0	508	510	0	0	
3	0	0	0	0	510	511	0	0	
4	0	0	0	0	508	511	0	0	
5	0	0	0	0	508	510	0	0	
6	0	0	0	0	506	511	0	0	
7	0	0	0	0	507	509	0	0	
8	0	0	0	0	505	509	0	0	
9	0	0	0	0	505	510	0	0	
10	0	0	0	0	505	511	0	0	
11	0	0	0	0	504	509	0	0	
12	0	0	0	0	507	511	0	0	
13	0	0	0	0	508	510	0	0	
14	0	0	0	0	508	511	0	0	
15	0	0	0	0	508	512	0	0	
0	0	0	0	0	506	512	0	0	
1	0	0	0	0	513	511	0	0	
2	0	0	0	0	514	510	0	0	
3	0	0	0	0	520	511	0	0	
4	0	0	0	0	516	511	0	0	
5	0	0	0	0	513	513	0	0	
6	0	0	0	0	509	511	0	0	
7	0	0	0	0	505	510	0	0	
8	0	0	0	0	504	511	0	0	
9	0	0	0	0	506	510	0	0	
10	0	0	0	0	506	513	0	0	
11	0	0	0	0	506	508	0	0	
12	0	0	0	0	506	510	0	0	
13	0	0	0	0	505	510	0	0	
14	0	0	0	0	505	510	0	0	
15	0	0	0	0	501	511	0	0	
0	0	0	0	0	504	511	0	0	
1	0	0	0	0	511	509	0	0	
2	0	0	0	0	513	509	0	0	
3	0	0	0	0	513	509	0	0	
4	0	0	0	0	512	511	0	0	
5	0	0	0	0	511	510	0	0	
6	0	0	0	0	512	510	0	0	
7	0	0	0	0	511	511	0	0	
8	0	0	0	0	512	511	0	0	
9	0	0	0	0	509	511	0	0	
10	0	0	0	0	508	512	0	0	
11	0	0	0	0	506	509	0	0	
12	0	0	0	0	508	511	0	0	
13	0	0	0	0	508	508	0	0	
14	0	0	0	0	506	510	0	0	
15	0	0	0	0	506	512	0	0	
0	0	0	0	0	505	511	0	0	
1	0	0	0	0	504	511	0	0	
2	0	0	0	0	508	508	0	0	
3	0	0	0	0	507	511	0	0	
4	0	0	0	0	505	510	0	0	
5	0	0	0	0	506	509	0	0	
6	0	0	0	0	510	509	0	0	
7	0	0	0	0	513	510	0	0	
8	0	0	0	0	511	510	0	0	
9	0	0	0	0	511	512	0	0	
10	0	0	0	0	511	512	0	0	
11	0	0	0	0	509	508	0	0	
12	0	0	0	0	511	509	0	0	
13	0	0	0	0	513	511	0	0	
14	0	0	0	0	514	510	0	0	
15	0	0	0	0	514	512	0	0	
0	0	0	0	0	508	510	0	0	
1	0	0	0	0	507	510	0	0	
2	0	0	0	0	504	509	0	0	
3	0	0	0	0	507	511	0	0	
4	0	0	0	0	506	510	0	0	
5	0	0	0	0	502	508	0	0	
6	0	0	0	0	501	510	0	0	
7	0	0	0	0	504	509	0	0	
8	0	0	0	0	506	511	0	0	
9	0	0	0	0	508	510	0	0	
10	0	0	0	0	510	511	0	0	
11	0	0	0	0	509	508	0	0	
12	0	0	0	0	508	510	0	0	
13	0	0	0	0	510	512	0	0	
14	0	0	0	0	511	512	0	0	
15	0	0	0	0	513	511	0	0	
0	0	0	0	0	511	511	0	0	
1	0	0	0	0	515	510	0	0	
2	0	0	0	0	512	511	0	0	
3	0	0	0	0	509	511	0	0	
4	0	0	0	0	508	511	0	0	
5	0	0	0	0	506	510	0	0	
6	0	0	0	0	507	509	0	0	
7	0	0	0	0	504	509	0	0	
8	0	0	0	0	504	509	0	0	
9	0	0	0	0	504	510	0	0	
10	0	0	0	0	505	511	0	0	
11	0	0	0	0	506	511	0	0	
12	0	0	0	0	509	512	0	0	
13	0	0	0	0	510	511	0	0	
14	0	0	0	0	510	513	0	0	
15	0	0	0	0	511	513	0	0	
0	0	0	0	0	510	510	0	0	
1	0	0	0	0	513	512	0	0	
2	0	0	0	0	512	510	0	0	
3	0	0	0	0	513	511	0	0	
4	0	0	0	0	512	511	0	0	
5	0	0	0	0	512	510	0	0	
6	0	0	0	0	510	511	0	0	
7	0	0	0	0	510	512	0	0	
8	0	0	0	0	506	511	0	0	
9	0	0	0	0	509	510	0	0	
10	0	0	0	0	508	512	0	0	
11	0	0	0	0	507	510	0	0	
12	0	0	0	0	504	508	0	0	
13	0	0	0	0	503	510	0	0	
14	0	0	0	0	502	508	0	0	
15	0	0	0	0	502	511	0	0	
0	0	0	0	0	507	512	0	0	
1	0	0	0	0	508	512	0	0	
2	0	0	0	0	511	511	0	0	
3	0	0	0	0	509	510	0	0	
4	0	0	0	0	515	511	0	0	
5	0	0	0	0	510	510	0	0	
6	0	0	0	0	511	513	0	0	
7	0	0	0	0	512	511	0	0	
8	0	0	0	0	511	510	0	0	
9	0	0	0	0	512	510	0	0	
10	0	0	0	0	510	512	0	0	
11	0	0	0	0	511	508	0	0	
12	0	0	0	0	507	509	0	0	
13	0	0	0	0	509	511	0	0	
14	0	0	0	0	507	510	0	0	
15	0	0	0	0	505	510	0	0	
0	0	0	0	0	504	510	0	0	
1	0	0	0	0	507	509	0	0	
2	0	0	0	0	506	510	0	0	
3	0	0	0	0	507	510	0	0	
4	0	0	0	0	506	511	0	0	
5	0	0	0	0	509	510	0	0	
6	0	0	0	0	510	510	0	0	
7	0	0	0	0	512	511	0	0	
8	0	0	0	0	512	510	0	0	
9	0	0	0	0	511	511	0	0	
10	0	0	0	0	512	512	0	0	
11	0	0	0	0	513	511	0	0	
12	0	0	0	0	512	512	0	0	
13	0	0	0	0	508	514	0	0	
14	0	0	0	0	505	514	0	0	
15	0	0	0	0	507	511	0	0	
0	0	0	0	0	510	511	0	0	
1	0	0	0	0	509	509	0	0	
2	0	0	0	0	507	509	0	0	
3	0	0	0	0	507	509	0	0	
4	0	0	0	0	505	508	0	0	
5	0	0	0	0	506	510	0	0	
6	0	0	0	0	505	509	0	0	
7	0	0	0	0	505	508	0	0	
8	0	0	0	0	505	511	0	0	
9	0	0	0	0	507	509	0	0	
10	0	0	0	0	510	511	0	0	
11	0	0	0	0	512	509	0	0	
12	0	0	0	0	512	512	0	0	
13	0	0	0	0	511	512	0	0	
14	0	0	0	0	513	513	0	0	
15	0	0	0	0	513	510	0	0	
0	0	0	0	0	511	510	0	0	
1	0	0	0	0	511	511	0	0	
2	0	0	0	0	508	512	0	0	
3	0	0	0	0	510	512	0	0	
4	0	0	0	0	511	511	0	0	
5	0	0	0	0	507	510	0	0	
6	0	0	0	0	505	512	0	0	
7	0	0	0	0	501	512	0	0	
8	0	0	0	0	503	510	0	0	
9	0	0	0	0	505	509	0	0	
10	0	0	0	0	510	508	0	0	
11	0	0	0	0	511	511	0	0	
12	0	0	0	0	510	511	0	0	
13	0	0	0	0	506	512	0	0	
14	0	0	0	0	511	509	0	0	
15	0	0	0	0	511	511	0	0	
0	0	0	0	0	511	508	0	0	
1	0	0	0	0	512	510	0	0	
2	0	0	0	0	510	511	0	0	
3	0	0	0	0	506	509	0	0	
4	0	0	0	0	511	510	0	0	
5	0	0	0	0	513	509	0	0	
6	0	0	0	0	509	511	0	0	
7	0	0	0	0	505	510	0	0	
8	0	0	0	0	507	509	0	0	
9	0	0	0	0	507	512	0	0	
10	0	0	0	0	507	512	0	0	
11	0	0	0	0	506	513	0	0	
12	0	0	0	0	504	508	0	0	
13	0	0	0	0	502	509	0	0	
14	0	0	0	0	505	511	0	0	
15	0	0	0	0	504	508	0	0	
0	0	0	0	0	508	510	0	0	
1	0	0	0	0	509	511	0	0	
2	0	0	0	0	511	510	0	0	
3	0	0	0	0	512	510	0	0	
4	0	0	0	0	512	512	0	0	
5	0	0	0	0	513	512	0	0	
6	0	0	0	0	513	512	0	0	
7	0	0	0	0	512	511	0	0	
8	0	0	0	0	511	513	0	0	
9	0	0	0	0	512	512	0	0	
10	0	0	0	0	508	510	0	0	
11	0	0	0	0	509	509	0	0	
12	0	0	0	0	507	510	0	0	
13	0	0	0	0	507	512	0	0	
14	0	0	0	0	503	513	0	0	
15	0	0	0	0	504	511	0	0	
0	0	0	0	0	504	508	0	0	
1	0	0	0	0	505	510	0	0	
2	0	0	0	0	507	509	0	0	
3	0	0	0	0	507	508	0	0	
4	0	0	0	0	508	512	0	0	
5	0	0	0	0	507	509	0	0	
6	0	0	0	0	510	511	0	0	
7	0	0	0	0	511	509	0	0	
8	0	0	0	0	512	513	0	0	
9	0	0	0	0	511	512	0	0	
10	0	0	0	0	512	511	0	0	
11	0	0	0	0	512	509	0	0	
12	0	0	0	0	511	511	0	0	
13	0	0	0	0	511	511	0	0	
14	0	0	0	0	511	510	0	0	
15	0	0	0	0	508	511	0	0	
0	0	0	0	0	507	511	0	0	
1	0	0	0	0	506	511	0	0	
2	0	0	0	0	504	512	0	0	
3	0	0	0	0	505	511	0	0	
4	0	0	0	0	505	510	0	0	
5	0	0	0	0	509	508	0	0	
6	0	0	0	0	508	511	0	0	
7	0	0	0	0	506	511	0	0	
8	0	0	0	0	509	509	0	0	
9	0	0	0	0	507	511	0	0	
10	0	0	0	0	509	509	0	0	
11	0	0	0	0	508	509	0	0	
12	0	0	0	0	509	509	0	0	
13	0	0	0	0	511	511	0	0	
14	0	0	0	0	512	510	0	0	
15	0	0	0	0	513	511	0	0	
0	0	0	0	0	515	510	0	0	
1	0	0	0	0	513	511	0	0	
2	0	0	0	0	510	512	0	0	
3	0	0	0	0	508	512	0	0	
4	0	0	0	0	508	511	0	0	
5	0	0	0	0	505	508	0	0	
6	0	0	0	0	504	509	0	0	
7	0	0	0	0	504	508	0	0	
8	0	0	0	0	506	512	0	0	
9	0	0	0	0	504	512	0	0	
10	0	0	0	0	506	512	0	0	
11	0	0	0	0	505	511	0	0	
12	0	0	0	0	506	510	0	0	
13	0	0	0	0	511	509	0	0	
14	0	0	0	0	511	511	0	0	
15	0	0	0	0	511	511	0	0	
0	0	0	0	0	511	510	0	0	
1	0	0	0	0	515	511	0	0	
2	0	0	0	0	514	507	0	0	
3	0	0	0	0	512	510	0	0	
4	0	0	0	0	511	509	0	0	
5	0	0	0	0	509	511	0	0	
6	0	0	0	0	508	510	0	0	
7	0	0	0	0	509	511	0	0	
8	0	0	0	0	507	510	0	0	
9	0	0	0	0	508	511	0	0	
10	0	0	0	0	506	511	0	0	
11	0	0	0	0	504	510	0	0	
12	0	0	0	0	504	511	0	0	
13	0	0	0	0	504	511	0	0	
14	0	0	0	0	506	513	0	0	
15	0	0	0	0	506	511	0	0	
0	0	0	0	0	508	511	0	0	
1	0	0	0	0	507	510	0	0	
2	0	0	0	0	508	510	0	0	
3	0	0	0	0	511	512	0	0	
4	0	0	0	0	515	510	0	0	
5	0	0	0	0	517	510	0	0	
6	0	0	0	0	507	511	0	0	
7	0	0	0	0	507	511	0	0	
8	0	0	0	0	511	509	0	0	
9	0	0	0	0	511	510	0	0	
10	0	0	0	0	511	511	0	0	
11	0	0	0	0	510	511	0	0	
12	0	0	0	0	509	512	0	0	
13	0	0	0	0	507	513	0	0	
14	0	0	0	0	507	512	0	0	
15	0	0	0	0	507	511	0	0	
0	0	0	0	0	504	510	0	0	
1	0	0	0	0	507	507	0	0	
2	0	0	0	0	506	510	0	0	
3	0	0	0	0	506	510	0	0	
4	0	0	0	0	506	511	0	0	
5	0	0	0	0	510	508	0	0	
6	0	0	0	0	509	511	0	0	
7	0	0	0	0	509	510	0	0	
8	0	0	0	0	510	511	0	0	
9	0	0	0	0	512	509	0	0	
10	0	0	0	0	511	510	0	0	
11	0	0	0	0	511	511	0	0	
12	0	0	0	0	511	512	0	0	
13	0	0	0	0	508	513	0	0	
14	0	0	0	0	511	511	0	0	
15	0	0	0	0	510	511	0	0	
0	0	0	0	0	510	513	0	0	
1	0	0	0	0	508	510	0	0	
2	0	0	0	0	505	508	0	0	
3	0	0	0	0	504	510	0	0	
4	0	0	0	0	506	510	0	0	
5	0	0	0	0	507	510	0	0	
6	0	0	0	0	506	510	0	0	
7	0	0	0	0	508	511	0	0	
8	0	0	0	0	504	508	0	0	
9	0	0	0	0	503	509	0	0	
10	0	0	0	0	508	508	0	0	
11	0	0	0	0	511	510	0	0	
12	0	0	0	0	512	511	0	0	
13	0	0	0	0	513	510	0	0	
14	0	0	0	0	515	512	0	0	
15	0	0	0	0	513	512	0	0	
0	0	0	0	0	512	512	0	0	
1	0	0	0	0	509	511	0	0	
2	0	0	0	0	511	510	0	0	
3	0	0	0	0	509	511	0	0	
4	0	0	0	0	507	512	0	0	
5	0	0	0	0	504	509	0	0	
6	0	0	0	0	504	510	0	0	
7	0	0	0	0	505	511	0	0	
8	0	0	0	0	508	510	0	0	
9	0	0	0	0	507	510	0	0	
10	0	0	0	0	510	510	0	0	
11	0	0	0	0	509	509	0	0	
12	0	0	0	0	507	511	0	0	
13	0	0	0	0	506	510	0	0	
14	0	0	0	0	507	511	0	0	
15	0	0	0	0	511	513	0	0	
0	0	0	0	0	510	511	0	0	
1	0	0	0	0	508	511	0	0	
2	0	0	0	0	511	510	0	0	
3	0	0	0	0	512	510	0	0	
4	0	0	0	0	513	510	0	0	
5	0	0	0	0	512	510	0	0	
6	0	0	0	0	510	510	0	0	
7	0	0	0	0	509	510	0	0	
8	0	0	0	0	508	512	0	0	
9	0	0	0	0	506	508	0	0	
10	0	0	0	0	504	512	0	0	
11	0	0	0	0	507	510	0	0	
12	0	0	0	0	506	510	0	0	
13	0	0	0	0	506	511	0	0	
14	0	0	0	0	504	510	0	0	
15	0	0	0	0	507	509	0	0	
0	0	0	0	0	508	508	0	0	
1	0	0	0	0	510	508	0	0	
2	0	0	0	0	512	510	0	0	
3	0	0	0	0	508	511	0	0	
4	0	0	0	0	510	509	0	0	
5	0	0	0	0	512	511	0	0	
6	0	0	0	0	512	512	0	0	
7	0	0	0	0	513	513	0	0	
8	0	0	0	0	511	510	0	0	
9	0	0	0	0	510	510	0	0	
10	0	0	0	0	508	512	0	0	
11	0	0	0	0	506	508	0	0	
12	0	0	0	0	508	510	0	0	
13	0	0	0	0	508	512	0	0	
14	0	0	0	0	510	511	0	0	
15	0	0	0	0	507	510	0	0	
0	0	0	0	0	504	509	0	0	
1	0	0	0	0	504	512	0	0	
2	0	0	0	0	505	510	0	0	
3	0	0	0	0	508	512	0	0	
4	0	0	0	0	506	511	0	0	
5	0	0	0	0	504	511	0	0	
6	0	0	0	0	506	510	0	0	
7	0	0	0	0	512	513	0	0	
8	0	0	0	0	515	511	0	0	
9	0	0	0	0	512	511	0	0	
10	0	0	0	0	513	510	0	0	
11	0	0	0	0	512	512	0	0	
12	0	0	0	0	512	510	0	0	
13	0	0	0	0	513	512	0	0	
14	0	0	0	0	507	510	0	0	
15	0	0	0	0	510	511	0	0	
0	0	0	0	0	508	512	0	0	
1	0	0	0	0	506	510	0	0	
2	0	0	0	0	505	510	0	0	
3	0	0	0	0	506	509	0	0	
4	0	0	0	0	507	511	0	0	
5	0	0	0	0	505	511	0	0	
6	0	0	0	0	505	510	0	0	
7	0	0	0	0	507	511	0	0	
8	0	0	0	0	506	511	0	0	
9	0	0	0	0	507	511	0	0	
10	0	0	0	0	511	510	0	0	
11	0	0	0	0	509	510	0	0	
12	0	0	0	0	508	508	0	0	
13	0	0	0	0	510	510	0	0	
14	0	0	0	0	512	509	0	0	
15	0	0	0	0	515	511	0	0	
0	0	0	0	0	514	511	0	0	
1	0	0	0	0	509	511	0	0	
2	0	0	0	0	510	513	0	0	
3	0	0	0	0	510	513	0	0	
4	0	0	0	0	509	512	0	0	
5	0	0	0	0	505	511	0	0	
6	0	0	0	0	508	509	0	0	
7	0	0	0	0	507	508	0	0	
8	0	0	0	0	504	510	0	0	
9	0	0	0	0	505	509	0	0	
10	0	0	0	0	505	511	0	0	
11	0	0	0	0	506	508	0	0	
12	0	0	0	0	508	512	0	0	
13	0	0	0	0	507	510	0	0	
14	0	0	0	0	510	508	0	0	
15	0	0	0	0	508	511	0	0	
0	0	0	0	0	510	508	0	0	
1	0	0	0	0	511	510	0	0	
2	0	0	0	0	513	512	0	0	
3	0	0	0	0	513	511	0	0	
4	0	0	0	0	510	511	0	0	
5	0	0	0	0	512	511	0	0	
6	0	0	0	0	511	511	0	0	
7	0	0	0	0	513	511	0	0	
8	0	0	0	0	511	511	0	0	
9	0	0	0	0	506	511	0	0	
10	0	0	0	0	504	510	0	0	
11	0	0	0	0	505	510	0	0	
12	0	0	0	0	508	509	0	0	
13	0	0	0	0	506	509	0	0	
14	0	0	0	0	506	511	0	0	
15	0	0	0	0	506	509	0	0	
0	0	0	0	0	506	511	0	0	
1	0	0	0	0	509	511	0	0	
2	0	0	0	0	509	509	0	0	
3	0	0	0	0	512	508	0	0	
4	0	0	0	0	511	511	0	0	
5	0	0	0	0	508	512	0	0	
6	0	0	0	0	511	511	0	0	
7	0	0	0	0	513	512	0	0	
8	0	0	0	0	511	509	0	0	
9	0	0	0	0	511	511	0	0	
10	0	0	0	0	508	511	0	0	
11	0	0	0	0	505	510	0	0	
12	0	0	0	0	505	511	0	0	
13	0	0	0	0	507	513	0	0	
14	0	0	0	0	507	509	0	0	
15	0	0	0	0	507	509	0	0	
0	0	0	0	0	507	509	0	0	
1	0	0	0	0	505	508	0	0	
2	0	0	0	0	506	509	0	0	
3	0	0	0	0	504	509	0	0	
4	0	0	0	0	507	512	0	0	
5	0	0	0	0	510	509	0	0	
6	0	0	0	0	510	511	0	0	
7	0	0	0	0	509	512	0	0	
8	0	0	0	0	512	513	0	0	
9	0	0	0	0	513	511	0	0	
10	0	0	0	0	513	512	0	0	
11	0	0	0	0	511	514	0	0	
12	0	0	0	0	511	511	0	0	
13	0	0	0	0	511	511	0	0	
14	0	0	0	0	509	510	0	0	
15	0	0	0	0	508	510	0	0	
0	0	0	0	0	507	511	0	0	
1	0	0	0	0	507	508	0	0	
2	0	0	0	0	506	508	0	0	
3	0	0	0	0	504	510	0	0	
4	0	0	0	0	504	508	0	0	
5	0	0	0	0	504	510	0	0	
6	0	0	0	0	507	510	0	0	
7	0	0	0	0	505	509	0	0	
8	0	0	0	0	505	510	0	0	
9	0	0	0	0	505	511	0	0	
10	0	0	0	0	511	510	0	0	
11	0	0	0	0	513	510	0	0	
12	0	0	0	0	512	511	0	0	
13	0	0	0	0	515	510	0	0	
14	0	0	0	0	510	510	0	0	
15	0	0	0	0	514	511	0	0	
0	0	0	0	0	510	513	0	0	
1	0	0	0	0	511	510	0	0	
2	0	0	0	0	510	509	0	0	
3	0	0	0	0	507	509	0	0	
4	0	0	0	0	507	511	0	0	
5	0	0	0	0	504	512	0	0	
6	0	0	0	0	500	509	0	0	
7	0	0	0	0	501	511	0	0	
8	0	0	0	0	502	511	0	0	
9	0	0	0	0	505	510	0	0	
10	0	0	0	0	508	510	0	0	
11	0	0	0	0	509	511	0	0	
12	0	0	0	0	511	511	0	0	
13	0	0	0	0	512	509	0	0	
14	0	0	0	0	509	511	0	0	
15	0	0	0	0	511	510	0	0	
0	0	0	0	0	510	510	0	0	
1	0	0	0	0	508	510	0	0	
2	0	0	0	0	511	510	0	0	
3	0	0	0	0	515	513	0	0	
4	0	0	0	0	514	512	0	0	
5	0	0	0	0	513	511	0	0	
6	0	0	0	0	512	510	0	0	
7	0	0	0	0	509	512	0	0	
8	0	0	0	0	506	510	0	0	
9	0	0	0	0	503	511	0	0	
10	0	0	0	0	504	510	0	0	
11	0	0	0	0	506	512	0	0	
12	0	0	0	0	505	508	0	0	
13	0	0	0	0	507	511	0	0	
14	0	0	0	0	508	510	0	0	
15	0	0	0	0	506	510	0	0	
0	0	0	0	0	510	510	0	0	
1	0	0	0	0	510	510	0	0	
2	0	0	0	0	509	511	0	0	
3	0	0	0	0	510	509	0	0	
4	0	0	0	0	508	511	0	0	
5	0	0	0	0	510	511	0	0	
6	0	0	0	0	511	511	0	0	
7	0	0	0	0	514	510	0	0	
8	0	0	0	0	511	511	0	0	
9	0	0	0	0	507	511	0	0	
10	0	0	0	0	507	511	0	0	
11	0	0	0	0	504	510	0	0	
12	0	0	0	0	508	511	0	0	
13	0	0	0	0	508	511	0	0	
14	0	0	0	0	508	511	0	0	
15	0	0	0	0	509	511	0	0	
0	0	0	0	0	506	511	0	0	
1	0	0	0	0	506	513	0	0	
2	0	0	0	0	504	509	0	0	
3	0	0	0	0	505	508	0	0	
4	0	0	0	0	507	509	0	0	
5	0	0	0	0	508	510	0	0	
6	0	0	0	0	512	510	0	0	
7	0	0	0	0	514	513	0	0	
8	0	0	0	0	511	512	0	0	
9	0	0	0	0	511	509	0	0	
10	0	0	0	0	511	513	0	0	
11	0	0	0	0	511	511	0	0	
12	0	0	0	0	511	510	0	0	
13	0	0	0	0	512	511	0	0	
14	0	0	0	0	512	511	0	0	
15	0	0	0	0	508	511	0	0	
0	0	0	0	0	508	511	0	0	
1	0	0	0	0	505	508	0	0	
2	0	0	0	0	505	512	0	0	
3	0	0	0	0	507	511	0	0	
4	0	0	0	0	505	511	0	0	
5	0	0	0	0	504	509	0	0	
6	0	0	0	0	505	509	0	0	
7	0	0	0	0	507	509	0	0	
8	0	0	0	0	507	511	0	0	
9	0	0	0	0	510	512	0	0	
10	0	0	0	0	509	511	0	0	
11	0	0	0	0	511	512	0	0	
12	0	0	0	0	511	512	0	0	
13	0	0	0	0	511	511	0	0	
14	0	0	0	0	511	511	0	0	
15	0	0	0	0	513	511	0	0	
0	0	0	0	0	512	510	0	0	
1	0	0	0	0	511	508	0	0	
2	0	0	0	0	509	510	0	0	
3	0	0	0	0	508	510	0	0	
4	0	0	0	0	508	511	0	0	
5	0	0	0	0	506	511	0	0	
6	0	0	0	0	504	511	0	0	
7	0	0	0	0	506	509	0	0	
8	0	0	0	0	503	512	0	0	
9	0	0	0	0	503	511	0	0	
10	0	0	0	0	506	510	0	0	
11	0	0	0	0	506	511	0	0	
12	0	0	0	0	508	509	0	0	
13	0	0	0	0	510	510	0	0	
14	0	0	0	0	511	509	0	0	
15	0	0	0	0	511	508	0	0	
0	0	0	0	0	512	512	0	0	
1	0	0	0	0	512	511	0	0	
2	0	0	0	0	513	513	0	0	
3	0	0	0	0	513	511	0	0	
4	0	0	0	0	512	511	0	0	
5	0	0	0	0	510	509	0	0	
6	0	0	0	0	508	509	0	0	
7	0	0	0	0	504	510	0	0	
8	0	0	0	0	506	511	0	0	
9	0	0	0	0	502	511	0	0	
10	0	0	0	0	501	511	0	0	
11	0	0	0	0	502	511	0	0	
12	0	0	0	0	505	508	0	0	
13	0	0	0	0	507	512	0	0	
14	0	0	0	0	508	512	0	0	
15	0	0	0	0	507	511	0	0	
0	0	0	0	0	508	510	0	0	
1	0	0	0	0	506	510	0	0	
2	0	0	0	0	508	510	0	0	
3	0	0	0	0	511	510	0	0	
4	0	0	0	0	512	511	0	0	
5	0	0	0	0	513	512	0	0	
6	0	0	0	0	513	511	0	0	
7	0	0	0	0	513	511	0	0	
8	0	0	0	0	510	511	0	0	
9	0	0	0	0	511	511	0	0	
10	0	0	0	0	508	512	0	0	
11	0	0	0	0	508	511	0	0	
12	0	0	0	0	509	511	0	0	
13	0	0	0	0	509	512	0	0	
14	0	0	0	0	511	510	0	0	
15	0	0	0	0	509	510	0	0	
0	0	0	0	0	506	510	0	0	
1	0	0	0	0	502	512	0	0	
2	0	0	0	0	502	509	0	0	
3	0	0	0	0	504	508	0	0	
4	0	0	0	0	506	510	0	0	
5	0	0	0	0	509	510	0	0	
6	0	0	0	0	511	509	0	0	
7	0	0	0	0	512	511	0	0	
8	0	0	0	0	509	511	0	0	
9	0	0	0	0	512	511	0	0	
10	0	0	0	0	513	511	0	0	
11	0	0	0	0	513	510	0	0	
12	0	0	0	0	511	510	0	0	
13	0	0	0	0	510	511	0	0	
14	0	0	0	0	511	512	0	0	
15	0	0	0	0	507	513	0	0	
0	0	0	0	0	507	511	0	0	
1	0	0	0	0	504	511	0	0	
2	0	0	0	0	506	511	0	0	
3	0	0	0	0	505	510	0	0	
4	0	0	0	0	507	512	0	0	
5	0	0	0	0	507	511	0	0	
6	0	0	0	0	508	512	0	0	
7	0	0	0	0	509	509	0	0	
8	0	0	0	0	504	509	0	0	
9	0	0	0	0	505	509	0	0	
10	0	0	0	0	507	511	0	0	
11	0	0	0	0	510	509	0	0	
12	0	0	0	0	509	508	0	0	
13	0	0	0	0	510	511	0	0	
14	0	0	0	0	512	510	0	0	
15	0	0	0	0	511	512	0	0	
0	0	0	0	0	513	512	0	0	
1	0	0	0	0	513	511	0	0	
2	0	0	0	0	511	511	0	0	
3	0	0	0	0	508	512	0	0	
4	0	0	0	0	508	511	0	0	
5	0	0	0	0	507	511	0	0	
6	0	0	0	0	508	511	0	0	
7	0	0	0	0	506	512	0	0	
8	0	0	0	0	507	511	0	0	
9	0	0	0	0	505	511	0	0	
10	0	0	0	0	506	509	0	0	
11	0	0	0	0	505	508	0	0	
12	0	0	0	0	509	508	0	0	
13	0	0	0	0	509	510	0	0	
14	0	0	0	0	509	509	0	0	
15	0	0	0	0	509	511	0	0	
0	0	0	0	0	511	511	0	0	
1	0	0	0	0	514	509	0	0	
2	0	0	0	0	511	511	0	0	
3	0	0	0	0	509	511	0	0	
4	0	0	0	0	511	510	0	0	
5	0	0	0	0	513	513	0	0	
6	0	0	0	0	511	513	0	0	
7	0	0	0	0	508	510	0	0	
8	0	0	0	0	507	509	0	0	
9	0	0	0	0	505	510	0	0	
10	0	0	0	0	506	511	0	0	
11	0	0	0	0	507	512	0	0	
12	0	0	0	0	507	512	0	0	
13	0	0	0	0	504	510	0	0	
14	0	0	0	0	503	509	0	0	
15	0	0	0	0	505	511	0	0	
0	0	0	0	0	507	510	0	0	
1	0	0	0	0	508	511	0	0	
2	0	0	0	0	507	512	0	0	
3	0	0	0	0	510	510	0	0	
4	0	0	0	0	512	509	0	0	
5	0	0	0	0	516	510	0	0	
6	0	0	0	0	518	510	0	0	
7	0	0	0	0	513	510	0	0	
8	0	0	0	0	515	511	0	0	
9	0	0	0	0	511	510	0	0	
10	0	0	0	0	506	510	0	0	
11	0	0	0	0	503	510	0	0	
12	0	0	0	0	504	513	0	0	
13	0	0	0	0	505	511	0	0	
14	0	0	0	0	504	510	0	0	
15	0	0	0	0	506	511	0	0	
0	0	0	0	0	504	511	0	0	
1	0	0	0	0	507	509	0	0	
2	0	0	0	0	508	512	0	0	
3	0	0	0	0	507	510	0	0	
4	0	0	0	0	507	509	0	0	
5	0	0	0	0	509	511	0	0	
6	0	0	0	0	511	511	0	0	
7	0	0	0	0	511	511	0	0	
8	0	0	0	0	513	510	0	0	
9	0	0	0	0	513	510	0	0	
10	0	0	0	0	515	511	0	0	
11	0	0	0	0	513	509	0	0	
12	0	0	0	0	511	511	0	0	
13	0	0	0	0	511	511	0	0	
14	0	0	0	0	512	512	0	0	
15	0	0	0	0	510	512	0	0	
0	0	0	0	0	506	512	0	0	
1	0	0	0	0	504	512	0	0	
2	0	0	0	0	500	508	0	0	
3	0	0	0	0	505	510	0	0	
4	0	0	0	0	506	510	0	0	
5	0	0	0	0	505	509	0	0	
6	0	0	0	0	500	509	0	0	
7	0	0	0	0	503	511	0	0	
8	0	0	0	0	507	512	0	0	
9	0	0	0	0	509	509	0	0	
10	0	0	0	0	512	511	0	0	
11	0	0	0	0	513	511	0	0	
12	0	0	0	0	512	512	0	0	
13	0	0	0	0	511	511	0	0	
14	0	0	0	0	513	511	0	0	
15	0	0	0	0	517	512	0	0	
0	0	0	0	0	512	512	0	0	
1	0	0	0	0	511	513	0	0	
2	0	0	0	0	509	512	0	0	
3	0	0	0	0	508	509	0	0	
4	0	0	0	0	509	509	0	0	
5	0	0	0	0	506	511	0	0	
6	0	0	0	0	507	510	0	0	
7	0	0	0	0	506	510	0	0	
8	0	0	0	0	506	509	0	0	
9	0	0	0	0	506	511	0	0	
10	0	0	0	0	503	510	0	0	
11	0	0	0	0	505	513	0	0	
12	0	0	0	0	509	509	0	0	
13	0	0	0	0	510	512	0	0	
14	0	0	0	0	511	512	0	0	
15	0	0	0	0	508	511	0	0	
0	0	0	0	0	510	514	0	0	
1	0	0	0	0	513	511	0	0	
2	0	0	0	0	513	513	0	0	
3	0	0	0	0	513	511	0	0	
4	0	0	0	0	515	509	0	0	
5	0	0	0	0	511	508	0	0	
6	0	0	0	0	507	513	0	0	
7	0	0	0	0	506	509	0	0	
8	0	0	0	0	507	511	0	0	
9	0	0	0	0	506	511	0	0	
10	0	0	0	0	504	510	0	0	
11	0	0	0	0	505	509	0	0	
12	0	0	0	0	505	508	0	0	
13	0	0	0	0	504	509	0	0	
14	0	0	0	0	506	511	0	0	
15	0	0	0	0	506	510	0	0	
0	0	0	0	0	508	509	0	0	
1	0	0	0	0	507	508	0	0	
2	0	0	0	0	509	510	0	0	
3	0	0	0	0	510	510	0	0	
4	0	0	0	0	509	511	0	0	
5	0	0	0	0	510	511	0	0	
6	0	0	0	0	513	512	0	0	
7	0	0	0	0	513	511	0	0	
8	0	0	0	0	512	511	0	0	
9	0	0	0	0	512	512	0	0	
10	0	0	0	0	512	511	0	0	
11	0	0	0	0	509	512	0	0	
12	0	0	0	0	508	511	0	0	
13	0	0	0	0	505	509	0	0	
14	0	0	0	0	505	510	0	0	
15	0	0	0	0	505	510	0	0	
0	0	0	0	0	504	511	0	0	
1	0	0	0	0	506	511	0	0	
2	0	0	0	0	501	511	0	0	
3	0	0	0	0	501	510	0	0	
4	0	0	0	0	506	509	0	0	
5	0	0	0	0	512	509	0	0	
6	0	0	0	0	513	512	0	0	
7	0	0	0	0	510	510	0	0	
8	0	0	0	0	509	512	0	0	
9	0	0	0	0	515	511	0	0	
10	0	0	0	0	512	511	0	0	
11	0	0	0	0	515	510	0	0	
12	0	0	0	0	515	510	0	0	
13	0	0	0	0	512	513	0	0	
14	0	0	0	0	511	511	0	0	
15	0	0	0	0	508	513	0	0	
0	0	0	0	0	507	512	0	0	
1	0	0	0	0	505	509	0	0	
2	0	0	0	0	506	509	0	0	
3	0	0	0	0	505	512	0	0	
4	0	0	0	0	502	511	0	0	
5	0	0	0	0	505	509	0	0	
6	0	0	0	0	505	509	0	0	
7	0	0	0	0	508	508	0	0	
8	0	0	0	0	508	508	0	0	
9	0	0	0	0	507	510	0	0	
10	0	0	0	0	508	511	0	0	
11	0	0	0	0	510	510	0	0	
12	0	0	0	0	513	514	0	0	
13	0	0	0	0	512	511	0	0	
14	0	0	0	0	513	511	0	0	
15	0	0	0	0	510	509	0	0	
0	0	0	0	0	511	510	0	0	
1	0	0	0	0	509	512	0	0	
2	0	0	0	0	510	512	0	0	
3	0	0	0	0	509	512	0	0	
4	0	0	0	0	509	510	0	0	
5	0	0	0	0	507	510	0	0	
6	0	0	0	0	507	510	0	0	
7	0	0	0	0	506	509	0	0	
8	0	0	0	0	504	510	0	0	
9	0	0	0	0	504	509	0	0	
10	0	0	0	0	505	511	0	0	
11	0	0	0	0	506	509	0	0	
12	0	0	0	0	508	510	0	0	
13	0	0	0	0	509	508	0	0	
14	0	0	0	0	508	508	0	0	
15	0	0	0	0	507	510	0	0	
0	0	0	0	0	508	510	0	0	
1	0	0	0	0	508	511	0	0	
2	0	0	0	0	514	510	0	0	
3	0	0	0	0	511	512	0	0	
4	0	0	0	0	513	513	0	0	
5	0	0	0	0	512	513	0	0	
6	0	0	0	0	510	512	0	0	
7	0	0	0	0	511	510	0	0	
8	0	0	0	0	510	511	0	0	
9	0	0	0	0	507	510	0	0	
10	0	0	0	0	505	510	0	0	
11	0	0	0	0	504	511	0	0	
12	0	0	0	0	505	509	0	0	
13	0	0	0	0	505	510	0	0	
14	0	0	0	0	506	508	0	0	
15	0	0	0	0	505	510	0	0	
0	0	0	0	0	506	511	0	0	
1	0	0	0	0	506	511	0	0	
2	0	0	0	0	506	511	0	0	
3	0	0	0	0	511	510	0	0	
4	0	0	0	0	512	509	0	0	
5	0	0	0	0	513	510	0	0	
6	0	0	0	0	512	511	0	0	
7	0	0	0	0	510	510	0	0	
8	0	0	0	0	511	509	0	0	
9	0	0	0	0	511	511	0	0	
10	0	0	0	0	514	510	0	0	
11	0	0	0	0	512	510	0	0	
12	0	0	0	0	508	510	0	0	
13	0	0	0	0	508	509	0	0	
14	0	0	0	0	507	511	0	0	
15	0	0	0	0	505	513	0	0	
0	0	0	0	0	503	512	0	0	
1	0	0	0	0	503	511	0	0	
2	0	0	0	0	502	512	0	0	
3	0	0	0	0	505	512	0	0	
4	0	0	0	0	508	512	0	0	
5	0	0	0	0	509	510	0	0	
6	0	0	0	0	511	512	0	0	
7	0	0	0	0	512	514	0	0	
8	0	0	0	0	511	510	0	0	
9	0	0	0	0	511	511	0	0	
10	0	0	0	0	510	510	0	0	
11	0	0	0	0	515	510	0	0	
12	0	0	0	0	510	509	0	0	
13	0	0	0	0	508	509	0	0	
14	0	0	0	0	507	510	0	0	
15	0	0	0	0	506	509	0	0	
0	0	0	0	0	509	510	0	0	
1	0	0	0	0	508	510	0	0	
2	0	0	0	0	507	512	0	0	
3	0	0	0	0	508	511	0	0	
4	0	0	0	0	505	508	0	0	
5	0	0	0	0	503	510	0	0	
6	0	0	0	0	505	510	0	0	
7	0	0	0	0	505	511	0	0	
8	0	0	0	0	508	512	0	0	
9	0	0	0	0	510	511	0	0	
10	0	0	0	0	511	510	0	0	
11	0	0	0	0	513	510	0	0	
12	0	0	0	0	511	509	0	0	
13	0	0	0	0	513	509	0	0	
14	0	0	0	0	513	510	0	0	
15	0	0	0	0	511	511	0	0	
0	0	0	0	0	510	512	0	0	
1	0	0	0	0	512	511	0	0	
2	0	0	0	0	509	512	0	0	
3	0	0	0	0	508	511	0	0	
4	0	0	0	0	508	509	0	0	
5	0	0	0	0	508	510	0	0	
6	0	0	0	0	507	512	0	0	
7	0	0	0	0	506	510	0	0	
8	0	0	0	0	508	511	0	0	
9	0	0	0	0	505	511	0	0	
10	0	0	0	0	504	510	0	0	
11	0	0	0	0	505	511	0	0	
12	0	0	0	0	505	510	0	0	
13	0	0	0	0	507	512	0	0	
14	0	0	0	0	506	511	0	0	
15	0	0	0	0	510	511	0	0	
0	0	0	0	0	511	510	0	0	
1	0	0	0	0	512	509	0	0	
2	0	0	0	0	513	509	0	0	
3	0	0	0	0	513	511	0	0	
4	0	0	0	0	514	512	0	0	
5	0	0	0	0	511	512	0	0	
6	0	0	0	0	511	509	0	0	
7	0	0	0	0	511	510	0	0	
8	0	0	0	0	509	511	0	0	
9	0	0	0	0	506	511	0	0	
10	0	0	0	0	504	509	0	0	
11	0	0	0	0	506	510	0	0	
12	0	0	0	0	507	510	0	0	
13	0	0	0	0	503	511	0	0	
14	0	0	0	0	505	511	0	0	
15	0	0	0	0	505	510	0	0	
0	0	0	0	0	508	509	0	0	
1	0	0	0	0	509	511	0	0	
2	0	0	0	0	511	510	0	0	
3	0	0	0	0	511	510	0	0	
4	0	0	0	0	509	509	0	0	
5	0	0	0	0	511	511	0	0	
6	0	0	0	0	511	511	0	0	
7	0	0	0	0	514	513	0	0	
8	0	0	0	0	511	511	0	0	
9	0	0	0	0	508	509	0	0	
10	0	0	0	0	507	511	0	0	
11	0	0	0	0	506	512	0	0	
12	0	0	0	0	507	509	0	0	
13	0	0	0	0	507	511	0	0	
14	0	0	0	0	512	507	0	0	
15	0	0	0	0	510	509	0	0	
0	0	0	0	0	505	509	0	0	
1	0	0	0	0	504	510	0	0	
2	0	0	0	0	501	511	0	0	
3	0	0	0	0	504	510	0	0	
4	0	0	0	0	504	510	0	0	
5	0	0	0	0	507	511	0	0	
6	0	0	0	0	510	512	0	0	
7	0	0	0	0	509	512	0	0	
8	0	0	0	0	513	511	0	0	
9	0	0	0	0	512	511	0	0	
10	0	0	0	0	511	511	0	0	
11	0	0	0	0	513	509	0	0	
12	0	0	0	0	515	512	0	0	
13	0	0	0	0	513	510	0	0	
14	0	0	0	0	512	511	0	0	
15	0	0	0	0	505	510	0	0	
0	0	0	0	0	505	510	0	0	
1	0	0	0	0	508	509	0	0	
2	0	0	0	0	506	510	0	0	
3	0	0	0	0	502	508	0	0	
4	0	0	0	0	504	508	0	0	
5	0	0	0	0	504	512	0	0	
6	0	0	0	0	507	511	0	0	
7	0	0	0	0	508	513	0	0	
8	0	0	0	0	506	512	0	0	
9	0	0	0	0	506	512	0	0	
10	0	0	0	0	509	510	0	0	
11	0	0	0	0	512	511	0	0	
12	0	0	0	0	507	511	0	0	
13	0	0	0	0	505	511	0	0	
14	0	0	0	0	510	511	0	0	
15	0	0	0	0	513	512	0	0	
0	0	0	0	0	513	507	0	0	
1	0	0	0	0	511	510	0	0	
2	0	0	0	0	512	511	0	0	
3	0	0	0	0	510	511	0	0	
4	0	0	0	0	508	510	0	0	
5	0	0	0	0	506	510	0	0	
6	0	0	0	0	506	511	0	0	
7	0	0	0	0	506	510	0	0	
8	0	0	0	0	505	511	0	0	
9	0	0	0	0	507	511	0	0	
10	0	0	0	0	505	510	0	0	
11	0	0	0	0	507	510	0	0	
12	0	0	0	0	509	508	0	0	
13	0	0	0	0	508	512	0	0	
14	0	0	0	0	507	511	0	0	
15	0	0	0	0	510	512	0	0	
0	0	0	0	0	511	510	0	0	
1	0	0	0	0	511	512	0	0	
2	0	0	0	0	509	509	0	0	
3	0	0	0	0	511	510	0	0	
4	0	0	0	0	511	511	0	0	
5	0	0	0	0	511	512	0	0	
6	0	0	0	0	512	511	0	0	
7	0	0	0	0	508	511	0	0	
8	0	0	0	0	508	510	0	0	
9	0	0	0	0	505	511	0	0	
10	0	0	0	0	507	508	0	0	
11	0	0	0	0	505	510	0	0	
12	0	0	0	0	504	510	0	0	
13	0	0	0	0	504	509	0	0	
14	0	0	0	0	506	510	0	0	
15	0	0	0	0	507	512	0	0	
0	0	0	0	0	510	510	0	0	
1	0	0	0	0	508	510	0	0	
2	0	0	0	0	511	510	0	0	
3	0	0	0	0	511	512	0	0	
4	0	0	0	0	511	510	0	0	
5	0	0	0	0	513	512	0	0	
6	0	0	0	0	513	510	0	0	
7	0	0	0	0	514	510	0	0	
8	0	0	0	0	512	511	0	0	
9	0	0	0	0	507	509	0	0	
10	0	0	0	0	508	509	0	0	
11	0	0	0	0	510	510	0	0	
12	0	0	0	0	508	510	0	0	
13	0	0	0	0	506	511	0	0	
14	0	0	0	0	504	507	0	0	
15	0	0	0	0	506	509	0	0	
0	0	0	0	0	504	510	0	0	
1	0	0	0	0	504	511	0	0	
2	0	0	0	0	505	511	0	0	
3	0	0	0	0	508	510	0	0	
4	0	0	0	0	508	510	0	0	
5	0	0	0	0	508	510	0	0	
6	0	0	0	0	508	511	0	0	
7	0	0	0	0	507	511	0	0	
8	0	0	0	0	508	511	0	0	
9	0	0	0	0	512	512	0	0	
10	0	0	0	0	515	513	0	0	
11	0	0	0	0	515	510	0	0	
12	0	0	0	0	513	510	0	0	
13	0	0	0	0	512	510	0	0	
14	0	0	0	0	510	512	0	0	
15	0	0	0	0	508	509	0	0	
0	0	0	0	0	507	510	0	0	
1	0	0	0	0	507	511	0	0	
2	0	0	0	0	508	511	0	0	
3	0	0	0	0	504	510	0	0	
4	0	0	0	0	504	512	0	0	
5	0	0	0	0	504	511	0	0	
6	0	0	0	0	503	510	0	0	
7	0	0	0	0	503	508	0	0	
8	0	0	0	0	503	508	0	0	
9	0	0	0	0	509	509	0	0	
10	0	0	0	0	513	510	0	0	
11	0	0	0	0	512	511	0	0	
12	0	0	0	0	513	511	0	0	
13	0	0	0	0	512	512	0	0	
14	0	0	0	0	514	510	0	0	
15	0	0	0	0	512	511	0	0	
0	0	0	0	0	510	513	0	0	
1	0	0	0	0	508	511	0	0	
2	0	0	0	0	511	511	0	0	
3	0	0	0	0	508	511	0	0	
4	0	0	0	0	509	511	0	0	
5	0	0	0	0	507	509	0	0	
6	0	0	0	0	506	511	0	0	
7	0	0	0	0	508	511	0	0	
8	0	0	0	0	505	509	0	0	
9	0	0	0	0	504	509	0	0	
10	0	0	0	0	505	510	0	0	
11	0	0	0	0	506	511	0	0	
12	0	0	0	0	508	512	0	0	
13	0	0	0	0	507	509	0	0	
14	0	0	0	0	507	510	0	0	
15	0	0	0	0	512	511	0	0	
0	0	0	0	0	511	509	0	0	
1	0	0	0	0	513	511	0	0	
2	0	0	0	0	511	511	0	0	
3	0	0	0	0	512	512	0	0	
4	0	0	0	0	513	509	0	0	
5	0	0	0	0	511	510	0	0	
6	0	0	0	0	509	509	0	0	
7	0	0	0	0	510	512	0	0	
8	0	0	0	0	510	511	0	0	
9	0	0	0	0	505	509	0	0	
10	0	0	0	0	506	511	0	0	
11	0	0	0	0	505	509	0	0	
12	0	0	0	0	504	512	0	0	
13	0	0	0	0	502	508	0	0	
14	0	0	0	0	505	509	0	0	
15	0	0	0	0	506	509	0	0	
0	0	0	0	0	506	512	0	0	
1	0	0	0	0	508	510	0	0	
2	0	0	0	0	512	512	0	0	
3	0	0	0	0	511	512	0	0	
4	0	0	0	0	511	510	0	0	
5	0	0	0	0	509	509	0	0	
6	0	0	0	0	511	512	0	0	
7	0	0	0	0	512	512	0	0	
8	0	0	0	0	511	511	0	0	
9	0	0	0	0	511	512	0	0	
10	0	0	0	0	508	510	0	0	
11	0	0	0	0	511	511	0	0	
12	0	0	0	0	510	511	0	0	
13	0	0	0	0	508	510	0	0	
14	0	0	0	0	506	511	0	0	
15	0	0	0	0	505	511	0	0	
0	0	0	0	0	504	512	0	0	
1	0	0	0	0	503	509	0	0	
2	0	0	0	0	504	509	0	0	
3	0	0	0	0	507	508	0	0	
4	0	0	0	0	508	512	0	0	
5	0	0	0	0	509	510	0	0	
6	0	0	0	0	511	510	0	0	
7	0	0	0	0	509	510	0	0	
8	0	0	0	0	512	513	0	0	
9	0	0	0	0	512	512	0	0	
10	0	0	0	0	513	512	0	0	
11	0	0	0	0	513	510	0	0	
12	0	0	0	0	511	511	0	0	
13	0	0	0	0	508	512	0	0	
14	0	0	0	0	509	511	0	0	
15	0	0	0	0	509	510	0	0	
0	0	0	0	0	509	508	0	0	
1	0	0	0	0	504	508	0	0	
2	0	0	0	0	504	510	0	0	
3	0	0	0	0	505	512	0	0	
4	0	0	0	0	504	510	0	0	
5	0	0	0	0	505	510	0	0	
6	0	0	0	0	507	510	0	0	
7	0	0	0	0	508	508	0	0	
8	0	0	0	0	509	509	0	0	
9	0	0	0	0	508	509	0	0	
10	0	0	0	0	508	510	0	0	
11	0	0	0	0	513	508	0	0	
12	0	0	0	0	512	511	0	0	
13	0	0	0	0	512	513	0	0	
14	0	0	0	0	514	508	0	0	
15	0	0	0	0	511	511	0	0	
0	0	0	0	0	510	512	0	0	
1	0	0	0	0	513	512	0	0	
2	0	0	0	0	507	509	0	0	
3	0	0	0	0	511	512	0	0	
4	0	0	0	0	508	512	0	0	
5	0	0	0	0	505	509	0	0	
6	0	0	0	0	506	510	0	0	
7	0	0	0	0	507	512	0	0	
8	0	0	0	0	507	511	0	0	
9	0	0	0	0	504	512	0	0	
10	0	0	0	0	508	512	0	0	
11	0	0	0	0	508	510	0	0	
12	0	0	0	0	507	513	0	0	
13	0	0	0	0	506	510	0	0	
14	0	0	0	0	508	510	0	0	
15	0	0	0	0	510	510	0	0	
0	0	0	0	0	509	510	0	0	
1	0	0	0	0	510	511	0	0	
2	0	0	0	0	512	511	0	0	
3	0	0	0	0	513	512	0	0	
4	0	0	0	0	513	511	0	0	
5	0	0	0	0	511	513	0	0	
6	0	0	0	0	510	511	0	0	
7	0	0	0	0	510	510	0	0	
8	0	0	0	0	508	511	0	0	
9	0	0	0	0	505	510	0	0	
10	0	0	0	0	508	511	0	0	
11	0	0	0	0	509	511	0	0	
12	0	0	0	0	504	508	0	0	
13	0	0	0	0	502	511	0	0	
14	0	0	0	0	505	513	0	0	
15	0	0	0	0	507	511	0	0	
0	0	0	0	0	509	510	0	0	
1	0	0	0	0	511	508	0	0	
2	0	0	0	0	510	510	0	0	
3	0	0	0	0	512	510	0	0	
4	0	0	0	0	510	511	0	0	
5	0	0	0	0	509	511	0	0	
6	0	0	0	0	510	509	0	0	
7	0	0	0	0	509	512	0	0	
8	0	0	0	0	511	511	0	0	
9	0	0	0	0	514	512	0	0	
10	0	0	0	0	510	512	0	0	
11	0	0	0	0	506	512	0	0	
12	0	0	0	0	509	510	0	0	
13	0	0	0	0	508	511	0	0	
14	0	0	0	0	507	512	0	0	
15	0	0	0	0	505	510	0	0	
0	0	0	0	0	505	510	0	0	
1	0	0	0	0	504	511	0	0	
2	0	0	0	0	506	510	0	0	
3	0	0	0	0	507	508	0	0	
4	0	0	0	0	506	510	0	0	
5	0	0	0	0	507	509	0	0	
6	0	0	0	0	511	512	0	0	
7	0	0	0	0	514	509	0	0	
8	0	0	0	0	514	509	0	0	
9	0	0	0	0	511	511	0	0	
10	0	0	0	0	511	511	0	0	
11	0	0	0	0	510	511	0	0	
12	0	0	0	0	512	509	0	0	
13	0	0	0	0	510	512	0	0	
14	0	0	0	0	505	511	0	0	
15	0	0	0	0	508	513	0	0	
0	0	0	0	0	507	510	0	0	
1	0	0	0	0	507	511	0	0	
2	0	0	0	0	509	509	0	0	
3	0	0	0	0	509	512	0	0	
4	0	0	0	0	508	511	0	0	
5	0	0	0	0	506	510	0	0	
6	0	0	0	0	505	509	0	0	
7	0	0	0	0	506	509	0	0	
8	0	0	0	0	506	511	0	0	
9	0	0	0	0	507	510	0	0	
10	0	0	0	0	510	512	0	0	
11	0	0	0	0	510	510	0	0	
12	0	0	0	0	510	510	0	0	
13	0	0	0	0	512	511	0	0	
14	0	0	0	0	513	511	0	0	
15	0	0	0	0	513	511	0	0	
0	0	0	0	0	514	511	0	0	
1	0	0	0	0	512	511	0	0	
2	0	0	0	0	509	512	0	0	
3	0	0	0	0	506	510	0	0	
4	0	0	0	0	507	511	0	0	
5	0	0	0	0	506	510	0	0	
6	0	0	0	0	503	512	0	0	
7	0	0	0	0	505	512	0	0	
8	0	0	0	0	507	511	0	0	
9	0	0	0	0	506	510	0	0	
10	0	0	0	0	504	510	0	0	
11	0	0	0	0	506	511	0	0	
12	0	0	0	0	508	509	0	0	
13	0	0	0	0	505	507	0	0	
14	0	0	0	0	511	510	0	0	
15	0	0	0	0	509	509	0	0	
0	0	0	0	0	511	509	0	0	
1	0	0	0	0	512	510	0	0	
2	0	0	0	0	514	509	0	0	
3	0	0	0	0	515	511	0	0	
4	0	0	0	0	513	512	0	0	
5	0	0	0	0	513	511	0	0	
6	0	0	0	0	509	512	0	0	
7	0	0	0	0	507	509	0	0	
8	0	0	0	0	504	509	0	0	
9	0	0	0	0	504	510	0	0	
10	0	0	0	0	505	510	0	0	
11	0	0	0	0	504	512	0	0	
12	0	0	0	0	502	511	0	0	
13	0	0	0	0	504	511	0	0	
14	0	0	0	0	504	511	0	0	
15	0	0	0	0	505	510	0	0	
0	0	0	0	0	509	509	0	0	
1	0	0	0	0	510	511	0	0	
2	0	0	0	0	513	509	0	0	
3	0	0	0	0	511	509	0	0	
4	0	0	0	0	515	511	0	0	
5	0	0	0	0	512	511	0	0	
6	0	0	0	0	514	512	0	0	
7	0	0	0	0	512	510	0	0	
8	0	0	0	0	510	510	0	0	
9	0	0	0	0	511	511	0	0	
10	0	0	0	0	508	513	0	0	
11	0	0	0	0	505	510	0	0	
12	0	0	0	0	505	512	0	0	
13	0	0	0	0	504	513	0	0	
14	0	0	0	0	504	512	0	0	
15	0	0	0	0	506	509	0	0	
0	0	0	0	0	506	510	0	0	
1	0	0	0	0	505	509	0	0	
2	0	0	0	0	506	511	0	0	
3	0	0	0	0	507	510	0	0	
4	0	0	0	0	508	511	0	0	
5	0	0	0	0	505	510	0	0	
6	0	0	0	0	509	510	0	0	
7	0	0	0	0	512	509	0	0	
8	0	0	0	0	512	510	0	0	
9	0	0	0	0	512	510	0	0	
10	0	0	0	0	512	509	0	0	
11	0	0	0	0	513	510	0	0	
12	0	0	0	0	512	511	0	0	
13	0	0	0	0	511	510	0	0	
14	0	0	0	0	509	510	0	0	
15	0	0	0	0	507	510	0	0	
0	0	0	0	0	505	512	0	0	
1	0	0	0	0	504	510	0	0	
2	0	0	0	0	508	511	0	0	
3	0	0	0	0	508	512	0	0	
4	0	0	0	0	507	511	0	0	
5	0	0	0	0	504	509	0	0	
6	0	0	0	0	505	509	0	0	
7	0	0	0	0	506	512	0	0	
8	0	0	0	0	504	512	0	0	
9	0	0	0	0	505	510	0	0	
10	0	0	0	0	508	509	0	0	
11	0	0	0	0	512	510	0	0	
12	0	0	0	0	513	511	0	0	
13	0	0	0	0	511	511	0	0	
14	0	0	0	0	513	510	0	0	
15	0	0	0	0	515	510	0	0	
0	0	0	0	0	511	511	0	0	
1	0	0	0	0	509	510	0	0	
2	0	0	0	0	510	510	0	0	
3	0	0	0	0	508	510	0	0	
4	0	0	0	0	509	510	0	0	
5	0	0	0	0	504	510	0	0	
6	0	0	0	0	508	512	0	0	
7	0	0	0	0	506	509	0	0	
8	0	0	0	0	506	510	0	0	
9	0	0	0	0	505	511	0	0	
10	0	0	0	0	504	510	0	0	
11	0	0	0	0	505	510	0	0	
12	0	0	0	0	507	508	0	0	
13	0	0	0	0	507	509	0	0	
14	0	0	0	0	510	510	0	0	
15	0	0	0	0	513	511	0	0	
0	0	0	0	0	512	511	0	0	
1	0	0	0	0	511	512	0	0	
2	0	0	0	0	510	510	0	0	
3	0	0	0	0	511	511	0	0	
4	0	0	0	0	512	511	0	0	
5	0	0	0	0	510	512	0	0	
6	0	0	0	0	511	511	0	0	
7	0	0	0	0	509	512	0	0	
8	0	0	0	0	505	513	0	0	
9	0	0	0	0	505	513	0	0	
10	0	0	0	0	507	512	0	0	
11	0	0	0	0	506	510	0	0	
12	0	0	0	0	506	508	0	0	
13	0	0	0	0	504	510	0	0	
14	0	0	0	0	505	511	0	0	
15	0	0	0	0	503	509	0	0	
0	0	0	0	0	504	508	0	0	
1	0	0	0	0	508	508	0	0	
2	0	0	0	0	509	510	0	0	
3	0	0	0	0	513	511	0	0	
4	0	0	0	0	513	510	0	0	
5	0	0	0	0	514	510	0	0	
6	0	0	0	0	513	512	0	0	
7	0	0	0	0	514	512	0	0	
8	0	0	0	0	512	510	0	0	
9	0	0	0	0	511	513	0	0	
10	0	0	0	0	510	512	0	0	
11	0	0	0	0	507	514	0	0	
12	0	0	0	0	506	511	0	0	
13	0	0	0	0	508	510	0	0	
14	0	0	0	0	508	511	0	0	
15	0	0	0	0	507	511	0	0	
0	0	0	0	0	506	510	0	0	
1	0	0	0	0	508	508	0	0	
2	0	0	0	0	508	510	0	0	
3	0	0	0	0	507	509	0	0	
4	0	0	0	0	507	509	0	0	
5	0	0	0	0	508	510	0	0	
6	0	0	0	0	508	509	0	0	
7	0	0	0	0	510	508	0	0	
8	0	0	0	0	510	509	0	0	
9	0	0	0	0	508	510	0	0	
10	0	0	0	0	512	509	0	0	
11	0	0	0	0	511	511	0	0	
12	0	0	0	0	513	511	0	0	
13	0	0	0	0	512	512	0	0	
14	0	0	0	0	510	512	0	0	
15	0	0	0	0	507	512	0	0	
0	0	0	0	0	508	512	0	0	
1	0	0	0	0	508	511	0	0	
2	0	0	0	0	507	511	0	0	
3	0	0	0	0	504	512	0	0	
4	0	0	0	0	504	511	0	0	
5	0	0	0	0	503	512	0	0	
6	0	0	0	0	503	509	0	0	
7	0	0	0	0	505	509	0	0	
8	0	0	0	0	506	509	0	0	
9	0	0	0	0	505	510	0	0	
10	0	0	0	0	510	510	0	0	
11	0	0	0	0	513	512	0	0	
12	0	0	0	0	515	511	0	0	
13	0	0	0	0	515	511	0	0	
14	0	0	0	0	512	510	0	0	
15	0	0	0	0	511	509	0	0	
0	0	0	0	0	509	510	0	0	
1	0	0	0	0	508	510	0	0	
2	0	0	0	0	511	511	0	0	
3	0	0	0	0	510	510	0	0	
4	0	0	0	0	510	508	0	0	
5	0	0	0	0	510	509	0	0	
6	0	0	0	0	507	511	0	0	
7	0	0	0	0	505	512	0	0	
8	0	0	0	0	503	509	0	0	
9	0	0	0	0	502	509	0	0	
10	0	0	0	0	504	509	0	0	
11	0	0	0	0	506	509	0	0	
12	0	0	0	0	509	510	0	0	
13	0	0	0	0	506	510	0	0	
14	0	0	0	0	508	511	0	0	
15	0	0	0	0	509	512	0	0	
0	0	0	0	0	509	510	0	0	
1	0	0	0	0	513	510	0	0	
2	0	0	0	0	514	512	0	0	
3	0	0	0	0	515	511	0	0	
4	0	0	0	0	513	511	0	0	
5	0	0	0	0	511	511	0	0	
6	0	0	0	0	510	511	0	0	
7	0	0	0	0	511	511	0	0	
8	0	0	0	0	507	509	0	0	
9	0	0	0	0	507	509	0	0	
10	0	0	0	0	507	511	0	0	
11	0	0	0	0	504	512	0	0	
12	0	0	0	0	505	509	0	0	
13	0	0	0	0	506	510	0	0	
14	0	0	0	0	507	511	0	0	
15	0	0	0	0	507	510	0	0	
0	0	0	0	0	507	510	0	0	
1	0	0	0	0	505	509	0	0	
2	0	0	0	0	507	510	0	0	
3	0	0	0	0	509	513	0	0	
4	0	0	0	0	512	510	0	0	
5	0	0	0	0	511	508	0	0	
6	0	0	0	0	512	508	0	0	
7	0	0	0	0	512	512	0	0	
8	0	0	0	0	516	512	0	0	
9	0	0	0	0	514	512	0	0	
10	0	0	0	0	510	510	0	0	
11	0	0	0	0	505	511	0	0	
12	0	0	0	0	506	511	0	0	
13	0	0	0	0	506	508	0	0	
14	0	0	0	0	504	513	0	0	
15	0	0	0	0	507	512	0	0	
0	0	0	0	0	504	510	0	0	
1	0	0	0	0	505	512	0	0	
2	0	0	0	0	507	511	0	0	
3	0	0	0	0	508	509	0	0	
4	0	0	0	0	507	510	0	0	
5	0	0	0	0	507	511	0	0	
6	0	0	0	0	505	512	0	0	
7	0	0	0	0	509	511	0	0	
8	0	0	0	0	511	512	0	0	
9	0	0	0	0	512	509	0	0	
10	0	0	0	0	513	508	0	0	
11	0	0	0	0	512	511	0	0	
12	0	0	0	0	511	513	0	0	
13	0	0	0	0	511	511	0	0	
14	0	0	0	0	510	510	0	0	
15	0	0	0	0	508	512	0	0	
0	0	0	0	0	508	512	0	0	
1	0	0	0	0	504	512	0	0	
2	0	0	0	0	505	511	0	0	
3	0	0	0	0	509	510	0	0	
4	0	0	0	0	508	510	0	0	
5	0	0	0	0	511	510	0	0	
6	0	0	0	0	505	508	0	0	
7	0	0	0	0	505	508	0	0	
8	0	0	0	0	506	508	0	0	
9	0	0	0	0	508	508	0	0	
10	0	0	0	0	508	508	0	0	
11	0	0	0	0	511	510	0	0	
12	0	0	0	0	511	511	0	0	
13	0	0	0	0	510	510	0	0	
14	0	0	0	0	512	510	0	0	
15	0	0	0	0	511	511	0	0	
0	0	0	0	0	508	511	0	0	
1	0	0	0	0	512	509	0	0	
2	0	0	0	0	512	512	0	0	
3	0	0	0	0	510	512	0	0	
4	0	0	0	0	509	512	0	0	
5	0	0	0	0	505	511	0	0	
6	0	0	0	0	505	512	0	0	
7	0	0	0	0	504	513	0	0	
8	0	0	0	0	500	511	0	0	
9	0	0	0	0	502	512	0	0	
10	0	0	0	0	503	511	0	0	
11	0	0	0	0	507	511	0	0	
12	0	0	0	0	508	511	0	0	
13	0	0	0	0	510	510	0	0	
14	0	0	0	0	511	511	0	0	
15	0	0	0	0	513	510	0	0	
0	0	0	0	0	511	509	0	0	
1	0	0	0	0	511	511	0	0	
2	0	0	0	0	512	512	0	0	
3	0	0	0	0	516	511	0	0	
4	0	0	0	0	512	513	0	0	
5	0	0	0	0	510	512	0	0	
6	0	0	0	0	509	513	0	0	
7	0	0	0	0	507	511	0	0	
8	0	0	0	0	507	511	0	0	
9	0	0	0	0	505	508	0	0	
10	0	0	0	0	504	508	0	0	
11	0	0	0	0	505	509	0	0	
12	0	0	0	0	504	510	0	0	
13	0	0	0	0	504	510	0	0	
14	0	0	0	0	507	511	0	0	
15	0	0	0	0	506	508	0	0	
0	0	0	0	0	506	510	0	0	
1	0	0	0	0	506	510	0	0	
2	0	0	0	0	508	511	0	0	
3	0	0	0	0	511	508	0	0	
4	0	0	0	0	512	510	0	0	
5	0	0	0	0	512	509	0	0	
6	0	0	0	0	513	511	0	0	
7	0	0	0	0	513	511	0	0	
8	0	0	0	0	513	512	0	0	
9	0	0	0	0	513	510	0	0	
10	0	0	0	0	508	510	0	0	
11	0	0	0	0	507	511	0	0	
12	0	0	0	0	507	512	0	0	
13	0	0	0	0	506	511	0	0	
14	0	0	0	0	510	511	0	0	
15	0	0	0	0	507	511	0	0	
0	0	0	0	0	501	511	0	0	
1	0	0	0	0	502	512	0	0	
2	0	0	0	0	504	511	0	0	
3	0	0	0	0	505	511	0	0	
4	0	0	0	0	508	510	0	0	
5	0	0	0	0	509	510	0	0	
6	0	0	0	0	508	510	0	0	
7	0	0	0	0	511	511	0	0	
8	0	0	0	0	512	509	0	0	
9	0	0	0	0	511	512	0	0	
10	0	0	0	0	514	511	0	0	
11	0	0	0	0	514	511	0	0	
12	0	0	0	0	511	512	0	0	
13	0	0	0	0	512	513	0	0	
14	0	0	0	0	510	511	0	0	
15	0	0	0	0	510	513	0	0	
0	0	0	0	0	508	512	0	0	
1	0	0	0	0	505	511	0	0	
2	0	0	0	0	506	510	0	0	
3	0	0	0	0	505	509	0	0	
4	0	0	0	0	508	508	0	0	
5	0	0	0	0	506	507	0	0	
6	0	0	0	0	507	509	0	0	
7	0	0	0	0	507	510	0	0	
8	0	0	0	0	507	509	0	0	
9	0	0	0	0	505	509	0	0	
10	0	0	0	0	511	512	0	0	
11	0	0	0	0	513	510	0	0	
12	0	0	0	0	510	510	0	0	
13	0	0	0	0	508	513	0	0	
14	0	0	0	0	509	511	0	0	
15	0	0	0	0	512	512	0	0	
0	0	0	0	0	512	509	0	0	
1	0	0	0	0	513	511	0	0	
2	0	0	0	0	507	511	0	0	
3	0	0	0	0	504	512	0	0	
4	0	0	0	0	507	512	0	0	
5	0	0	0	0	506	510	0	0	
6	0	0	0	0	508	511	0	0	
7	0	0	0	0	506	510	0	0	
8	0	0	0	0	504	510	0	0	
9	0	0	0	0	505	510	0	0	
10	0	0	0	0	507	511	0	0	
11	0	0	0	0	505	510	0	0	
12	0	0	0	0	508	512	0	0	
13	0	0	0	0	511	507	0	0	
14	0	0	0	0	510	509	0	0	
15	0	0	0	0	511	509	0	0	
0	0	0	0	0	512	510	0	0	
1	0	0	0	0	513	513	0	0	
2	0	0	0	0	511	511	0	0	
3	0	0	0	0	512	510	0	0	
4	0	0	0	0	511	510	0	0	
5	0	0	0	0	511	512	0	0	
6	0	0	0	0	511	510	0	0	
7	0	0	0	0	506	510	0	0	
8	0	0	0	0	509	510	0	0	
9	0	0	0	0	505	511	0	0	
10	0	0	0	0	503	510	0	0	
11	0	0	0	0	507	511	0	0	
12	0	0	0	0	507	510	0	0	
13	0	0	0	0	507	512	0	0	
14	0	0	0	0	504	510	0	0	
15	0	0	0	0	506	508	0	0	
0	0	0	0	0	508	511	0	0	
1	0	0	0	0	506	510	0	0	
2	0	0	0	0	506	510	0	0	
3	0	0	0	0	511	511	0	0	
4	0	0	0	0	512	508	0	0	
5	0	0	0	0	510	511	0	0	
6	0	0	0	0	512	510	0	0	
7	0	0	0	0	513	511	0	0	
8	0	0	0	0	513	512	0	0	
9	0	0	0	0	513	509	0	0	
10	0	0	0	0	510	511	0	0	
11	0	0	0	0	510	512	0	0	
12	0	0	0	0	512	512	0	0	
13	0	0	0	0	506	511	0	0	
14	0	0	0	0	504	510	0	0	
15	0	0	0	0	503	508	0	0	
0	0	0	0	0	503	508	0	0	
1	0	0	0	0	504	512	0	0	
2	0	0	0	0	505	510	0	0	
3	0	0	0	0	507	510	0	0	
4	0	0	0	0	507	511	0	0	
5	0	0	0	0	509	511	0	0	
6	0	0	0	0	511	512	0	0	
7	0	0	0	0	511	509	0	0	
8	0	0	0	0	510	511	0	0	
9	0	0	0	0	512	510	0	0	
10	0	0	0	0	513	512	0	0	
11	0	0	0	0	510	510	0	0	
12	0	0	0	0	513	509	0	0	
13	0	0	0	0	514	510	0	0	
14	0	0	0	0	510	508	0	0	
15	0	0	0	0	510	507	0	0	
0	0	0	0	0	509	511	0	0	
1	0	0	0	0	506	511	0	0	
2	0	0	0	0	505	511	0	0	
3	0	0	0	0	503	511	0	0	
4	0	0	0	0	502	510	0	0	
5	0	0	0	0	504	509	0	0	
6	0	0	0	0	507	508	0	0	
7	0	0	0	0	504	511	0	0	
8	0	0	0	0	506	513	0	0	
9	0	0	0	0	510	511	0	0	
10	0	0	0	0	510	510	0	0	
11	0	0	0	0	511	511	0	0	
12	0	0	0	0	512	511	0	0	
13	0	0	0	0	511	512	0	0	
14	0	0	0	0	514	511	0	0	
15	0	0	0	0	513	512	0	0	
0	0	0	0	0	511	510	0	0	
1	0	0	0	0	512	510	0	0	
2	0	0	0	0	509	511	0	0	
3	0	0	0	0	507	510	0	0	
4	0	0	0	0	506	510	0	0	
5	0	0	0	0	505	511	0	0	
6	0	0	0	0	505	510	0	0	
7	0	0	0	0	503	509	0	0	
8	0	0	0	0	503	509	0	0	
9	0	0	0	0	505	510	0	0	
10	0	0	0	0	510	510	0	0	
11	0	0	0	0	508	509	0	0	
12	0	0	0	0	510	508	0	0	
13	0	0	0	0	510	512	0	0	
14	0	0	0	0	509	512	0	0	
15	0	0	0	0	510	509	0	0	
0	0	0	0	0	510	511	0	0	
1	0	0	0	0	509	511	0	0	
2	0	0	0	0	509	510	0	0	
3	0	0	0	0	509	511	0	0	
4	0	0	0	0	512	511	0	0	
5	0	0	0	0	513	512	0	0	
6	0	0	0	0	510	512	0	0	
7	0	0	0	0	508	511	0	0	
8	0	0	0	0	509	511	0	0	
9	0	0	0	0	505	513	0	0	
10	0	0	0	0	506	509	0	0	
11	0	0	0	0	507	508	0	0	
12	0	0	0	0	505	511	0	0	
13	0	0	0	0	504	507	0	0	
14	0	0	0	0	507	511	0	0	
15	0	0	0	0	507	509	0	0	
0	0	0	0	0	507	511	0	0	
1	0	0	0	0	510	510	0	0	
2	0	0	0	0	510	510	0	0	
3	0	0	0	0	510	509	0	0	
4	0	0	0	0	510	513	0	0	
5	0	0	0	0	510	511	0	0	
6	0	0	0	0	512	512	0	0	
7	0	0	0	0	510	511	0	0	
8	0	0	0	0	511	510	0	0	
9	0	0	0	0	512	510	0	0	
10	0	0	0	0	510	512	0	0	
11	0	0	0	0	507	511	0	0	
12	0	0	0	0	510	510	0	0	
13	0	0	0	0	507	509	0	0	
14	0	0	0	0	507	510	0	0	
15	0	0	0	0	507	511	0	0	
0	0	0	0	0	506	511	0	0	
1	0	0	0	0	504	512	0	0	
2	0	0	0	0	504	511	0	0	
3	0	0	0	0	504	512	0	0	
4	0	0	0	0	506	511	0	0	
5	0	0	0	0	506	510	0	0	
6	0	0	0	0	507	508	0	0	
7	0	0	0	0	510	511	0	0	
8	0	0	0	0	513	512	0	0	
9	0	0	0	0	513	511	0	0	
10	0	0	0	0	513	510	0	0	
11	0	0	0	0	513	512	0	0	
12	0	0	0	0	512	511	0	0	
13	0	0	0	0	514	511	0	0	
14	0	0	0	0	511	512	0	0	
15	0	0	0	0	508	512	0	0	
0	0	0	0	0	507	510	0	0	
1	0	0	0	0	506	511	0	0	
2	0	0	0	0	506	509	0	0	
3	0	0	0	0	506	511	0	0	
4	0	0	0	0	504	510	0	0	
5	0	0	0	0	505	509	0	0	
6	0	0	0	0	504	511	0	0	
7	0	0	0	0	504	509	0	0	
8	0	0	0	0	508	510	0	0	
9	0	0	0	0	508	513	0	0	
10	0	0	0	0	509	510	0	0	
11	0	0	0	0	512	512	0	0	
12	0	0	0	0	512	509	0	0	
13	0	0	0	0	512	509	0	0	
14	0	0	0	0	512	511	0	0	
15	0	0	0	0	513	511	0	0	
0	0	0	0	0	512	511	0	0	
1	0	0	0	0	510	511	0	0	
2	0	0	0	0	508	510	0	0	
3	0	0	0	0	508	508	0	0	
4	0	0	0	0	509	508	0	0	
5	0	0	0	0	508	511	0	0	
6	0	0	0	0	503	511	0	0	
7	0	0	0	0	504	511	0	0	
8	0	0	0	0	502	510	0	0	
9	0	0	0	0	505	510	0	0	
10	0	0	0	0	506	510	0	0	
11	0	0	0	0	504	512	0	0	
12	0	0	0	0	508	510	0	0	
13	0	0	0	0	508	511	0	0	
14	0	0	0	0	509	510	0	0	
15	0	0	0	0	513	511	0	0	
0	0	0	0	0	511	510	0	0	
1	0	0	0	0	510	511	0	0	
2	0	0	0	0	512	510	0	0	
3	0	0	0	0	512	512	0	0	
4	0	0	0	0	514	512	0	0	
5	0	0	0	0	510	511	0	0	
6	0	0	0	0	510	511	0	0	
7	0	0	0	0	505	511	0	0	
8	0	0	0	0	504	510	0	0	
9	0	0	0	0	504	510	0	0	
10	0	0	0	0	505	510	0	0	
11	0	0	0	0	508	510	0	0	
12	0	0	0	0	507	511	0	0	
13	0	0	0	0	509	510	0	0	
14	0	0	0	0	505	509	0	0	
15	0	0	0	0	505	507	0	0	
0	0	0	0	0	504	509	0	0	
1	0	0	0	0	508	508	0	0	
2	0	0	0	0	508	510	0	0	
3	0	0	0	0	509	511	0	0	
4	0	0	0	0	511	513	0	0	
5	0	0	0	0	512	513	0	0	
6	0	0	0	0	513	512	0	0	
7	0	0	0	0	513	512	0	0	
8	0	0	0	0	510	511	0	0	
9	0	0	0	0	511	510	0	0	
10	0	0	0	0	511	511	0	0	
11	0	0	0	0	510	508	0	0	
12	0	0	0	0	509	509	0	0	
13	0	0	0	0	505	509	0	0	
14	0	0	0	0	505	511	0	0	
15	0	0	0	0	505	508	0	0	
0	0	0	0	0	505	510	0	0	
1	0	0	0	0	505	511	0	0	
2	0	0	0	0	505	511	0	0	
3	0	0	0	0	504	510	0	0	
4	0	0	0	0	508	511	0	0	
5	0	0	0	0	508	513	0	0	
6	0	0	0	0	511	511	0	0	
7	0	0	0	0	511	510	0	0	
8	0	0	0	0	511	510	0	0	
9	0	0	0	0	510	508	0	0	
10	0	0	0	0	512	511	0	0	
11	0	0	0	0	511	508	0	0	
12	0	0	0	0	510	510	0	0	
13	0	0	0	0	514	508	0	0	
14	0	0	0	0	512	509	0	0	
15	0	0	0	0	511	510	0	0	
0	0	0	0	0	505	510	0	0	
1	0	0	0	0	505	510	0	0	
2	0	0	0	0	505	513	0	0	
3	0	0	0	0	505	511	0	0	
4	0	0	0	0	506	512	0	0	
5	0	0	0	0	506	511	0	0	
6	0	0	0	0	502	508	0	0	
7	0	0	0	0	503	511	0	0	
8	0	0	0	0	507	512	0	0	
9	0	0	0	0	509	512	0	0	
10	0	0	0	0	510	511	0	0	
11	0	0	0	0	512	511	0	0	
12	0	0	0	0	515	508	0	0	
13	0	0	0	0	512	508	0	0	
14	0	0	0	0	511	509	0	0	
15	0	0	0	0	511	510	0	0	
0	0	0	0	0	512	513	0	0	
1	0	0	0	0	510	512	0	0	
2	0	0	0	0	508	512	0	0	
3	0	0	0	0	508	511	0	0	
4	0	0	0	0	508	510	0	0	
5	0	0	0	0	505	511	0	0	
6	0	0	0	0	508	510	0	0	
7	0	0	0	0	505	510	0	0	
8	0	0	0	0	503	510	0	0	
9	0	0	0	0	505	506	0	0	
10	0	0	0	0	507	508	0	0	
11	0	0	0	0	505	510	0	0	
12	0	0	0	0	507	509	0	0	
13	0	0	0	0	509	512	0	0	
14	0	0	0	0	510	510	0	0	
15	0	0	0	0	510	513	0	0	
0	0	0	0	0	510	513	0	0	
1	0	0	0	0	511	512	0	0	
2	0	0	0	0	514	511	0	0	
3	0	0	0	0	514	511	0	0	
4	0	0	0	0	514	512	0	0	
5	0	0	0	0	512	512	0	0	
6	0	0	0	0	511	511	0	0	
7	0	0	0	0	510	510	0	0	
8	0	0	0	0	509	510	0	0	
9	0	0	0	0	507	510	0	0	
10	0	0	0	0	504	511	0	0	
11	0	0	0	0	504	511	0	0	
12	0	0	0	0	499	509	0	0	
13	0	0	0	0	500	508	0	0	
14	0	0	0	0	504	510	0	0	
15	0	0	0	0	509	511	0	0	
0	0	0	0	0	510	510	0	0	
1	0	0	0	0	508	510	0	0	
2	0	0	0	0	508	509	0	0	
3	0	0	0	0	510	508	0	0	
4	0	0	0	0	512	509	0	0	
5	0	0	0	0	511	510	0	0	
6	0	0	0	0	513	512	0	0	
7	0	0	0	0	512	513	0	0	
8	0	0	0	0	510	511	0	0	
9	0	0	0	0	511	510	0	0	
10	0	0	0	0	512	511	0	0	
11	0	0	0	0	512	512	0	0	
12	0	0	0	0	508	511	0	0	
13	0	0	0	0	506	511	0	0	
14	0	0	0	0	505	512	0	0	
15	0	0	0	0	505	510	0	0	
0	0	0	0	0	504	509	0	0	
1	0	0	0	0	505	510	0	0	
2	0	0	0	0	504	510	0	0	
3	0	0	0	0	506	508	0	0	
4	0	0	0	0	508	511	0	0	
5	0	0	0	0	507	511	0	0	
6	0	0	0	0	508	510	0	0	
7	0	0	0	0	511	511	0	0	
8	0	0	0	0	511	511	0	0	
9	0	0	0	0	513	511	0	0	
10	0	0	0	0	512	508	0	0	
11	0	0	0	0	512	511	0	0	
12	0	0	0	0	514	512	0	0	
13	0	0	0	0	512	511	0	0	
14	0	0	0	0	511	514	0	0	
15	0	0	0	0	506	511	0	0	
0	0	0	0	0	507	512	0	0	
1	0	0	0	0	502	509	0	0	
2	0	0	0	0	501	511	0	0	
3	0	0	0	0	506	513	0	0	
4	0	0	0	0	508	511	0	0	
5	0	0	0	0	509	508	0	0	
6	0	0	0	0	510	509	0	0	
7	0	0	0	0	508	510	0	0	
8	0	0	0	0	508	511	0	0	
9	0	0	0	0	508	510	0	0	
10	0	0	0	0	507	509	0	0	
11	0	0	0	0	511	511	0	0	
12	0	0	0	0	514	511	0	0	
13	0	0	0	0	509	510	0	0	
14	0	0	0	0	513	512	0	0	
15	0	0	0	0	515	510	0	0	
0	0	0	0	0	510	512	0	0	
1	0	0	0	0	510	509	0	0	
2	0	0	0	0	507	512	0	0	
3	0	0	0	0	507	511	0	0	
4	0	0	0	0	508	511	0	0	
5	0	0	0	0	504	510	0	0	
6	0	0	0	0	504	510	0	0	
7	0	0	0	0	505	511	0	0	
8	0	0	0	0	505	510	0	0	
9	0	0	0	0	504	512	0	0	
10	0	0	0	0	506	511	0	0	
11	0	0	0	0	508	511	0	0	
12	0	0	0	0	507	509	0	0	
13	0	0	0	0	507	510	0	0	
14	0	0	0	0	507	510	0	0	
15	0	0	0	0	513	510	0	0	
0	0	0	0	0	511	511	0	0	
1	0	0	0	0	512	510	0	0	
2	0	0	0	0	511	509	0	0	
3	0	0	0	0	511	511	0	0	
4	0	0	0	0	512	510	0	0	
5	0	0	0	0	510	509	0	0	
6	0	0	0	0	513	510	0	0	
7	0	0	0	0	511	513	0	0	
8	0	0	0	0	509	510	0	0	
9	0	0	0	0	508	511	0	0	
10	0	0	0	0	508	510	0	0	
11	0	0	0	0	504	512	0	0	
12	0	0	0	0	500	510	0	0	
13	0	0	0	0	502	510	0	0	
14	0	0	0	0	505	509	0	0	
15	0	0	0	0	506	510	0	0	
0	0	0	0	0	509	511	0	0	
1	0	0	0	0	508	511	0	0	
2	0	0	0	0	507	509	0	0	
3	0	0	0	0	511	510	0	0	
4	0	0	0	0	511	510	0	0	
5	0	0	0	0	512	510	0	0	
6	0	0	0	0	513	511	0	0	
7	0	0	0	0	514	511	0	0	
8	0	0	0	0	513	512	0	0	
9	0	0	0	0	512	511	0	0	
10	0	0	0	0	509	512	0	0	
11	0	0	0	0	508	512	0	0	
12	0	0	0	0	508	511	0	0	
13	0	0	0	0	507	514	0	0	
14	0	0	0	0	504	512	0	0	
15	0	0	0	0	502	510	0	0	
0	0	0	0	0	501	508	0	0	
1	0	0	0	0	503	509	0	0	
2	0	0	0	0	505	508	0	0	
3	0	0	0	0	508	509	0	0	
4	0	0	0	0	509	511	0	0	
5	0	0	0	0	510	510	0	0	
6	0	0	0	0	510	511	0	0	
7	0	0	0	0	512	511	0	0	
8	0	0	0	0	509	511	0	0	
9	0	0	0	0	511	511	0	0	
10	0	0	0	0	515	508	0	0	
11	0	0	0	0	513	507	0	0	
12	0	0	0	0	511	511	0	0	
13	0	0	0	0	512	511	0	0	
14	0	0	0	0	511	510	0	0	
15	0	0	0	0	510	511	0	0	
0	0	0	0	0	508	510	0	0	
1	0	0	0	0	504	510	0	0	
2	0	0	0	0	505	510	0	0	
3	0	0	0	0	505	511	0	0	
4	0	0	0	0	505	509	0	0	
5	0	0	0	0	508	510	0	0	
6	0	0	0	0	508	511	0	0	
7	0	0	0	0	504	508	0	0	
8	0	0	0	0	505	511	0	0	
9	0	0	0	0	508	512	0	0	
10	0	0	0	0	506	510	0	0	
11	0	0	0	0	510	512	0	0	
12	0	0	0	0	511	511	0	0	
13	0	0	0	0	513	511	0	0	
14	0	0	0	0	513	511	0	0	
15	0	0	0	0	512	512	0	0	
0	0	0	0	0	509	512	0	0	
1	0	0	0	0	507	511	0	0	
2	0	0	0	0	508	510	0	0	
3	0	0	0	0	511	510	0	0	
4	0	0	0	0	509	510	0	0	
5	0	0	0	0	507	510	0	0	
6	0	0	0	0	504	511	0	0	
7	0	0	0	0	504	510	0	0	
8	0	0	0	0	505	510	0	0	
9	0	0	0	0	505	507	0	0	
10	0	0	0	0	505	510	0	0	
11	0	0	0	0	505	510	0	0	
12	0	0	0	0	512	510	0	0	
13	0	0	0	0	511	509	0	0	
14	0	0	0	0	513	508	0	0	
15	0	0	0	0	512	512	0	0	
0	0	0	0	0	511	511	0	0	
1	0	0	0	0	510	513	0	0	
2	0	0	0	0	510	511	0	0	
3	0	0	0	0	511	511	0	0	
4	0	0	0	0	512	510	0	0	
5	0	0	0	0	511	511	0	0	
6	0	0	0	0	506	512	0	0	
7	0	0	0	0	509	511	0	0	
8	0	0	0	0	511	510	0	0	
9	0	0	0	0	507	507	0	0	
10	0	0	0	0	507	508	0	0	
11	0	0	0	0	505	509	0	0	
12	0	0	0	0	503	510	0	0	
13	0	0	0	0	503	510	0	0	
14	0	0	0	0	504	511	0	0	
15	0	0	0	0	503	511	0	0	
0	0	0	0	0	504	511	0	0	
1	0	0	0	0	505	511	0	0	
2	0	0	0	0	511	510	0	0	
3	0	0	0	0	510	511	0	0	
4	0	0	0	0	511	510	0	0	
5	0	0	0	0	514	510	0	0	
6	0	0	0	0	514	510	0	0	
7	0	0	0	0	516	509	0	0	
8	0	0	0	0	516	510	0	0	
9	0	0	0	0	514	510	0	0	
10	0	0	0	0	508	511	0	0	
11	0	0	0	0	509	513	0	0	
12	0	0	0	0	508	512	0	0	
13	0	0	0	0	505	511	0	0	
14	0	0	0	0	505	511	0	0	
15	0	0	0	0	505	510	0	0	
0	0	0	0	0	504	509	0	0	
1	0	0	0	0	501	510	0	0	
2	0	0	0	0	504	510	0	0	
3	0	0	0	0	504	511	0	0	
4	0	0	0	0	508	511	0	0	
5	0	0	0	0	509	511	0	0	
6	0	0	0	0	510	510	0	0	
7	0	0	0	0	512	509	0	0	
8	0	0	0	0	513	512	0	0	
9	0	0	0	0	513	511	0	0	
10	0	0	0	0	512	511	0	0	
11	0	0	0	0	513	510	0	0	
12	0	0	0	0	514	511	0	0	
13	0	0	0	0	510	509	0	0	
14	0	0	0	0	510	510	0	0	
15	0	0	0	0	509	511	0	0	
0	0	0	0	0	508	512	0	0	
1	0	0	0	0	504	511	0	0	
2	0	0	0	0	505	507	0	0	
3	0	0	0	0	504	510	0	0	
4	0	0	0	0	503	511	0	0	
5	0	0	0	0	506	508	0	0	
6	0	0	0	0	505	509	0	0	
7	0	0	0	0	507	508	0	0	
8	0	0	0	0	506	512	0	0	
9	0	0	0	0	510	513	0	0	
10	0	0	0	0	508	512	0	0	
11	0	0	0	0	511	512	0	0	
12	0	0	0	0	510	512	0	0	
13	0	0	0	0	511	510	0	0	
14	0	0	0	0	512	510	0	0	
15	0	0	0	0	513	511	0	0	
0	0	0	0	0	511	510	0	0	
1	0	0	0	0	512	510	0	0	
2	0	0	0	0	508	510	0	0	
3	0	0	0	0	509	510	0	0	
4	0	0	0	0	508	511	0	0	
5	0	0	0	0	510	512	0	0	
6	0	0	0	0	507	513	0	0	
7	0	0	0	0	504	511	0	0	
8	0	0	0	0	504	510	0	0	
9	0	0	0	0	506	509	0	0	
10	0	0	0	0	507	507	0	0	
11	0	0	0	0	505	510	0	0	
12	0	0	0	0	506	510	0	0	
13	0	0	0	0	506	510	0	0	
14	0	0	0	0	508	509	0	0	
15	0	0	0	0	511	508	0	0	
0	0	0	0	0	510	510	0	0	
1	0	0	0	0	513	512	0	0	
2	0	0	0	0	511	513	0	0	
3	0	0	0	0	512	512	0	0	
4	0	0	0	0	511	512	0	0	
5	0	0	0	0	510	511	0	0	
6	0	0	0	0	510	510	0	0	
7	0	0	0	0	509	510	0	0	
8	0	0	0	0	510	512	0	0	
9	0	0	0	0	508	511	0	0	
10	0	0	0	0	506	511	0	0	
11	0	0	0	0	507	510	0	0	
12	0	0	0	0	503	509	0	0	
13	0	0	0	0	503	510	0	0	
14	0	0	0	0	504	508	0	0	
15	0	0	0	0	506	511	0	0	
0	0	0	0	0	508	509	0	0	
1	0	0	0	0	509	509	0	0	
2	0	0	0	0	508	512	0	0	
3	0	0	0	0	510	511	0	0	
4	0	0	0	0	511	511	0	0	
5	0	0	0	0	512	509	0	0	
6	0	0	0	0	512	510	0	0	
7	0	0	0	0	514	510	0	0	
8	0	0	0	0	512	511	0	0	
9	0	0	0	0	512	512	0	0	
10	0	0	0	0	509	512	0	0	
11	0	0	0	0	508	510	0	0	
12	0	0	0	0	509	511	0	0	
13	0	0	0	0	507	510	0	0	
14	0	0	0	0	505	512	0	0	
15	0	0	0	0	506	510	0	0	
0	0	0	0	0	503	508	0	0	
1	0	0	0	0	503	509	0	0	
2	0	0	0	0	504	509	0	0	
3	0	0	0	0	507	511	0	0	
4	0	0	0	0	510	509	0	0	
5	0	0	0	0	509	511	0	0	
6	0	0	0	0	510	510	0	0	
7	0	0	0	0	512	512	0	0	
8	0	0	0	0	509	511	0	0	
9	0	0	0	0	509	510	0	0	
10	0	0	0	0	511	510	0	0	
11	0	0	0	0	511	512	0	0	
12	0	0	0	0	513	512	0	0	
13	0	0	0	0	515	510	0	0	
14	0	0	0	0	508	511	0	0	
15	0	0	0	0	508	511	0	0	
0	0	0	0	0	507	510	0	0	
1	0	0	0	0	509	512	0	0	
2	0	0	0	0	508	510	0	0	
3	0	0	0	0	504	510	0	0	
4	0	0	0	0	502	512	0	0	
5	0	0	0	0	505	512	0	0	
6	0	0	0	0	504	510	0	0	
7	0	0	0	0	505	511	0	0	
8	0	0	0	0	506	512	0	0	
9	0	0	0	0	508	509	0	0	
10	0	0	0	0	510	510	0	0	
11	0	0	0	0	514	511	0	0	
12	0	0	0	0	513	508	0	0	
13	0	0	0	0	515	512	0	0	
14	0	0	0	0	513	511	0	0	
15	0	0	0	0	510	511	0	0	
0	0	0	0	0	511	510	0	0	
1	0	0	0	0	509	510	0	0	
2	0	0	0	0	508	510	0	0	
3	0	0	0	0	509	511	0	0	
4	0	0	0	0	508	510	0	0	
5	0	0	0	0	508	511	0	0	
6	0	0	0	0	504	513	0	0	
7	0	0	0	0	506	510	0	0	
8	0	0	0	0	506	510	0	0	
9	0	0	0	0	504	508	0	0	
10	0	0	0	0	505	509	0	0	
11	0	0	0	0	504	510	0	0	
12	0	0	0	0	508	509	0	0	
13	0	0	0	0	507	510	0	0	
14	0	0	0	0	511	510	0	0	
15	0	0	0	0	516	512	0	0	
0	0	0	0	0	512	510	0	0	
1	0	0	0	0	516	511	0	0	
2	0	0	0	0	515	511	0	0	
3	0	0	0	0	511	512	0	0	
4	0	0	0	0	512	511	0	0	
5	0	0	0	0	509	510	0	0	
6	0	0	0	0	508	512	0	0	
7	0	0	0	0	508	512	0	0	
8	0	0	0	0	508	512	0	0	
9	0	0	0	0	507	510	0	0	
10	0	0	0	0	505	510	0	0	
11	0	0	0	0	505	511	0	0	
12	0	0	0	0	503	509	0	0	
13	0	0	0	0	506	507	0	0	
14	0	0	0	0	504	510	0	0	
15	0	0	0	0	504	510	0	0	
0	0	0	0	0	507	511	0	0	
1	0	0	0	0	508	511	0	0	
2	0	0	0	0	510	511	0	0	
3	0	0	0	0	512	510	0	0	
4	0	0	0	0	511	512	0	0	
5	0	0	0	0	511	510	0	0	
6	0	0	0	0	513	512	0	0	
7	0	0	0	0	514	510	0	0	
8	0	0	0	0	514	510	0	0	
9	0	0	0	0	513	509	0	0	
10	0	0	0	0	511	512	0	0	
11	0	0	0	0	508	509	0	0	
12	0	0	0	0	507	510	0	0	
13	0	0	0	0	505	511	0	0	
14	0	0	0	0	506	511	0	0	
15	0	0	0	0	503	511	0	0	
0	0	0	0	0	503	509	0	0	
1	0	0	0	0	504	510	0	0	
2	0	0	0	0	504	510	0	0	
3	0	0	0	0	508	512	0	0	
4	0	0	0	0	509	511	0	0	
5	0	0	0	0	510	513	0	0	
6	0	0	0	0	511	508	0	0	
7	0	0	0	0	511	511	0	0	
8	0	0	0	0	509	510	0	0	
9	0	0	0	0	513	509	0	0	
10	0	0	0	0	511	511	0	0	
11	0	0	0	0	512	508	0	0	
12	0	0	0	0	512	509	0	0	
13	0	0	0	0	510	511	0	0	
14	0	0	0	0	509	512	0	0	
15	0	0	0	0	508	513	0	0	
0	0	0	0	0	508	511	0	0	
1	0	0	0	0	507	510	0	0	
2	0	0	0	0	505	508	0	0	
3	0	0	0	0	506	511	0	0	
4	0	0	0	0	505	509	0	0	
5	0	0	0	0	505	509	0	0	
6	0	0	0	0	505	509	0	0	
7	0	0	0	0	505	511	0	0	
8	0	0	0	0	504	512	0	0	
9	0	0	0	0	504	511	0	0	
10	0	0	0	0	508	510	0	0	
11	0	0	0	0	512	512	0	0	
12	0	0	0	0	513	511	0	0	
13	0	0	0	0	515	512	0	0	
14	0	0	0	0	514	513	0	0	
15	0	0	0	0	513	513	0	0	
0	0	0	0	0	512	509	0	0	
1	0	0	0	0	508	509	0	0	
2	0	0	0	0	508	513	0	0	
3	0	0	0	0	510	508	0	0	
4	0	0	0	0	506	512	0	0	
5	0	0	0	0	506	511	0	0	
6	0	0	0	0	506	509	0	0	
7	0	0	0	0	505	509	0	0	
8	0	0	0	0	503	509	0	0	
9	0	0	0	0	505	509	0	0	
10	0	0	0	0	508	513	0	0	
11	0	0	0	0	505	509	0	0	
12	0	0	0	0	509	510	0	0	
13	0	0	0	0	508	510	0	0	
14	0	0	0	0	510	509	0	0	
15	0	0	0	0	510	511	0	0	
0	0	0	0	0	513	510	0	0	
1	0	0	0	0	514	512	0	0	
2	0	0	0	0	512	510	0	0	
3	0	0	0	0	513	510	0	0	
4	0	0	0	0	512	511	0	0	
5	0	0	0	0	509	511	0	0	
6	0	0	0	0	508	513	0	0	
7	0	0	0	0	508	511	0	0	
8	0	0	0	0	505	509	0	0	
9	0	0	0	0	506	510	0	0	
10	0	0	0	0	503	509	0	0	
11	0	0	0	0	503	511	0	0	
12	0	0	0	0	505	510	0	0	
13	0	0	0	0	508	511	0	0	
14	0	0	0	0	505	511	0	0	
15	0	0	0	0	506	509	0	0	
0	0	0	0	0	508	510	0	0	
1	0	0	0	0	509	510	0	0	
2	0	0	0	0	508	510	0	0	
3	0	0	0	0	508	510	0	0	
4	0	0	0	0	511	508	0	0	
5	0	0	0	0	513	512	0	0	
6	0	0	0	0	514	510	0	0	
7	0	0	0	0	511	511	0	0	
8	0	0	0	0	514	511	0	0	
9	0	0	0	0	511	511	0	0	
10	0	0	0	0	511	513	0	0	
11	0	0	0	0	511	510	0	0	
12	0	0	0	0	508	509	0	0	
13	0	0	0	0	505	510	0	0	
14	0	0	0	0	505	512	0	0	
15	0	0	0	0	505	510	0	0	
0	0	0	0	0	504	510	0	0	
1	0	0	0	0	504	511	0	0	
2	0	0	0	0	505	509	0	0	
3	0	0	0	0	506	511	0	0	
4	0	0	0	0	506	508	0	0	
5	0	0	0	0	508	512	0	0	
6	0	0	0	0	510	512	0	0	
7	0	0	0	0	509	512	0	0	
8	0	0	0	0	509	511	0	0	
9	0	0	0	0	514	512	0	0	
10	0	0	0	0	513	511	0	0	
11	0	0	0	0	513	512	0	0	
12	0	0	0	0	514	512	0	0	
13	0	0	0	0	512	511	0	0	
14	0	0	0	0	510	512	0	0	
15	0	0	0	0	506	510	0	0	
0	0	0	0	0	508	512	0	0	
1	0	0	0	0	507	512	0	0	
2	0	0	0	0	505	510	0	0	
3	0	0	0	0	505	509	0	0	
4	0	0	0	0	505	509	0	0	
5	0	0	0	0	505	511	0	0	
6	0	0	0	0	503	509	0	0	
7	0	0	0	0	507	510	0	0	
8	0	0	0	0	507	510	0	0	
9	0	0	0	0	510	512	0	0	
10	0	0	0	0	511	511	0	0	
11	0	0	0	0	512	510	0	0	
12	0	0	0	0	512	512	0	0	
13	0	0	0	0	512	511	0	0	
14	0	0	0	0	512	511	0	0	
15	0	0	0	0	512	509	0	0	
0	0	0	0	0	511	511	0	0	
1	0	0	0	0	511	510	0	0	
2	0	0	0	0	507	508	0	0	
3	0	0	0	0	508	510	0	0	
4	0	0	0	0	506	512	0	0	
5	0	0	0	0	504	508	0	0	
6	0	0	0	0	506	505	0	0	
7	0	0	0	0	508	509	0	0	
8	0	0	0	0	505	510	0	0	
9	0	0	0	0	504	510	0	0	
10	0	0	0	0	506	511	0	0	
11	0	0	0	0	506	510	0	0	
12	0	0	0	0	508	508	0	0	
13	0	0	0	0	508	508	0	0	
14	0	0	0	0	508	511	0	0	
15	0	0	0	0	508	512	0	0	
0	0	0	0	0	514	509	0	0	
1	0	0	0	0	512	510	0	0	
2	0	0	0	0	515	511	0	0	
3	0	0	0	0	514	510	0	0	
4	0	0	0	0	511	509	0	0	
5	0	0	0	0	510	512	0	0	
6	0	0	0	0	509	511	0	0	
7	0	0	0	0	508	513	0	0	
8	0	0	0	0	504	510	0	0	
9	0	0	0	0	503	509	0	0	
10	0	0	0	0	508	512	0	0	
11	0	0	0	0	508	510	0	0	
12	0	0	0	0	504	510	0	0	
13	0	0	0	0	504	508	0	0	
14	0	0	0	0	507	511	0	0	
15	0	0	0	0	505	509	0	0	
0	0	0	0	0	506	510	0	0	
1	0	0	0	0	508	511	0	0	
2	0	0	0	0	510	511	0	0	
3	0	0	0	0	513	511	0	0	
4	0	0	0	0	512	512	0	0	
5	0	0	0	0	511	510	0	0	
6	0	0	0	0	511	510	0	0	
7	0	0	0	0	512	511	0	0	
8	0	0	0	0	511	509	0	0	
9	0	0	0	0	512	511	0	0	
10	0	0	0	0	511	512	0	0	
11	0	0	0	0	509	513	0	0	
12	0	0	0	0	508	510	0	0	
13	0	0	0	0	505	511	0	0	
14	0	0	0	0	506	509	0	0	
15	0	0	0	0	507	509	0	0	
0	0	0	0	0	504	510	0	0	
1	0	0	0	0	505	508	0	0	
2	0	0	0	0	504	510	0	0	
3	0	0	0	0	507	509	0	0	
4	0	0	0	0	510	510	0	0	
5	0	0	0	0	509	509	0	0	
6	0	0	0	0	507	511	0	0	
7	0	0	0	0	511	508	0	0	
8	0	0	0	0	510	509	0	0	
9	0	0	0	0	508	511	0	0	
10	0	0	0	0	513	512	0	0	
11	0	0	0	0	513	513	0	0	
12	0	0	0	0	511	512	0	0	
13	0	0	0	0	511	512	0	0	
14	0	0	0	0	511	511	0	0	
15	0	0	0	0	507	509	0	0	
0	0	0	0	0	507	507	0	0	
1	0	0	0	0	508	509	0	0	
2	0	0	0	0	507	509	0	0	
3	0	0	0	0	506	509	0	0	
4	0	0	0	0	503	511	0	0	
5	0	0	0	0	505	510	0	0	
6	0	0	0	0	508	512	0	0	
7	0	0	0	0	508	512	0	0	
8	0	0	0	0	509	509	0	0	
9	0	0	0	0	506	512	0	0	
10	0	0	0	0	507	511	0	0	
11	0	0	0	0	508	510	0	0	
12	0	0	0	0	508	511	0	0	
13	0	0	0	0	511	510	0	0	
14	0	0	0	0	515	510	0	0	
15	0	0	0	0	514	512	0	0	
0	0	0	0	0	514	511	0	0	
1	0	0	0	0	510	512	0	0	
2	0	0	0	0	509	512	0	0	
3	0	0	0	0	507	509	0	0	
4	0	0	0	0	510	511	0	0	
5	0	0	0	0	506	510	0	0	
6	0	0	0	0	504	509	0	0	
7	0	0	0	0	507	510	0	0	
8	0	0	0	0	506	510	0	0	
9	0	0	0	0	503	511	0	0	
10	0	0	0	0	504	510	0	0	
11	0	0	0	0	505	512	0	0	
12	0	0	0	0	508	511	0	0	
13	0	0	0	0	511	509	0	0	
14	0	0	0	0	508	509	0	0	
15	0	0	0	0	511	509	0	0	
0	0	0	0	0	510	511	0	0	
1	0	0	0	0	510	511	0	0	
2	0	0	0	0	512	512	0	0	
3	0	0	0	0	511	511	0	0	
4	0	0	0	0	512	511	0	0	
5	0	0	0	0	512	513	0	0	
6	0	0	0	0	509	510	0	0	
7	0	0	0	0	508	511	0	0	
8	0	0	0	0	507	512	0	0	
9	0	0	0	0	504	510	0	0	
10	0	0	0	0	506	510	0	0	
11	0	0	0	0	505	510	0	0	
12	0	0	0	0	504	509	0	0	
13	0	0	0	0	505	510	0	0	
14	0	0	0	0	506	507	0	0	
15	0	0	0	0	509	509	0	0	
0	0	0	0	0	510	511	0	0	
1	0	0	0	0	511	512	0	0	
2	0	0	0	0	511	510	0	0	
3	0	0	0	0	511	510	0	0	
4	0	0	0	0	511	511	0	0	
5	0	0	0	0	509	512	0	0	
6	0	0	0	0	509	510	0	0	
7	0	0	0	0	508	509	0	0	
8	0	0	0	0	511	509	0	0	
9	0	0	0	0	512	510	0	0	
10	0	0	0	0	509	510	0	0	
11	0	0	0	0	511	511	0	0	
12	0	0	0	0	510	511	0	0	
13	0	0	0	0	511	511	0	0	
14	0	0	0	0	506	510	0	0	
15	0	0	0	0	505	512	0	0	
0	0	0	0	0	504	509	0	0	
1	0	0	0	0	505	510	0	0	
2	0	0	0	0	505	508	0	0	
3	0	0	0	0	506	509	0	0	
4	0	0	0	0	506	513	0	0	
5	0	0	0	0	508	509	0	0	
6	0	0	0	0	510	510	0	0	
7	0	0	0	0	511	513	0	0	
8	0	0	0	0	511	511	0	0	
9	0	0	0	0	512	512	0	0	
10	0	0	0	0	514	510	0	0	
11	0	0	0	0	511	512	0	0	
12	0	0	0	0	510	513	0	0	
13	0	0	0	0	513	511	0	0	
14	0	0	0	0	508	511	0	0	
15	0	0	0	0	506	510	0	0	
0	0	0	0	0	508	510	0	0	
1	0	0	0	0	504	511	0	0	
2	0	0	0	0	505	511	0	0	
3	0	0	0	0	507	510	0	0	
4	0	0	0	0	504	510	0	0	
5	0	0	0	0	507	511	0	0	
6	0	0	0	0	507	511	0	0	
7	0	0	0	0	511	508	0	0	
8	0	0	0	0	509	510	0	0	
9	0	0	0	0	506	510	0	0	
10	0	0	0	0	506	509	0	0	
11	0	0	0	0	509	510	0	0	
12	0	0	0	0	508	512	0	0	
13	0	0	0	0	509	513	0	0	
14	0	0	0	0	512	510	0	0	
15	0	0	0	0	513	511	0	0	
0	0	0	0	0	516	510	0	0	
1	0	0	0	0	511	512	0	0	
2	0	0	0	0	512	511	0	0	
3	0	0	0	0	509	509	0	0	
4	0	0	0	0	504	511	0	0	
5	0	0	0	0	502	509	0	0	
6	0	0	0	0	503	511	0	0	
7	0	0	0	0	505	512	0	0	
8	0	0	0	0	504	510	0	0	
9	0	0	0	0	505	510	0	0	
10	0	0	0	0	507	509	0	0	
11	0	0	0	0	507	510	0	0	
12	0	0	0	0	508	509	0	0	
13	0	0	0	0	508	510	0	0	
14	0	0	0	0	510	509	0	0	
15	0	0	0	0	509	510	0	0	
0	0	0	0	0	511	510	0	0	
1	0	0	0	0	512	510	0	0	
2	0	0	0	0	515	512	0	0	
3	0	0	0	0	512	511	0	0	
4	0	0	0	0	511	510	0	0	
5	0	0	0	0	510	510	0	0	
6	0	0	0	0	509	510	0	0	
7	0	0	0	0	508	509	0	0	
8	0	0	0	0	509	511	0	0	
9	0	0	0	0	506	511	0	0	
10	0	0	0	0	505	513	0	0	
11	0	0	0	0	505	510	0	0	
12	0	0	0	0	506	510	0	0	
13	0	0	0	0	507	509	0	0	
14	0	0	0	0	504	509	0	0	
15	0	0	0	0	504	510	0	0	
0	0	0	0	0	507	512	0	0	
1	0	0	0	0	507	510	0	0	
2	0	0	0	0	509	511	0	0	
3	0	0	0	0	512	508	0	0	
4	0	0	0	0	511	511	0	0	
5	0	0	0	0	514	510	0	0	
6	0	0	0	0	516	508	0	0	
7	0	0	0	0	514	511	0	0	
8	0	0	0	0	511	512	0	0	
9	0	0	0	0	510	511	0	0	
10	0	0	0	0	508	510	0	0	
11	0	0	0	0	506	509	0	0	
12	0	0	0	0	504	510	0	0	
13	0	0	0	0	502	511	0	0	
14	0	0	0	0	504	512	0	0	
15	0	0	0	0	504	511	0	0	
0	0	0	0	0	508	511	0	0	
1	0	0	0	0	508	509	0	0	
2	0	0	0	0	508	511	0	0	
3	0	0	0	0	507	510	0	0	
4	0	0	0	0	504	511	0	0	
5	0	0	0	0	506	511	0	0	
6	0	0	0	0	510	511	0	0	
7	0	0	0	0	513	511	0	0	
8	0	0	0	0	512	509	0	0	
9	0	0	0	0	512	512	0	0	
10	0	0	0	0	512	508	0	0	
11	0	0	0	0	513	513	0	0	
12	0	0	0	0	512	509	0	0	
13	0	0	0	0	510	510	0	0	
14	0	0	0	0	511	510	0	0	
15	0	0	0	0	507	511	0	0	
0	0	0	0	0	503	512	0	0	
1	0	0	0	0	505	509	0	0	
2	0	0	0	0	507	511	0	0	
3	0	0	0	0	504	511	0	0	
4	0	0	0	0	502	510	0	0	
5	0	0	0	0	503	510	0	0	
6	0	0	0	0	506	510	0	0	
7	0	0	0	0	509	510	0	0	
8	0	0	0	0	510	510	0	0	
9	0	0	0	0	508	512	0	0	
10	0	0	0	0	510	512	0	0	
11	0	0	0	0	514	510	0	0	
12	0	0	0	0	515	510	0	0	
13	0	0	0	0	515	510	0	0	
14	0	0	0	0	512	509	0	0	
15	0	0	0	0	514	511	0	0	
0	0	0	0	0	511	511	0	0	
1	0	0	0	0	512	513	0	0	
2	0	0	0	0	508	511	0	0	
3	0	0	0	0	506	510	0	0	
4	0	0	0	0	500	508	0	0	
5	0	0	0	0	501	512	0	0	
6	0	0	0	0	505	510	0	0	
7	0	0	0	0	505	510	0	0	
8	0	0	0	0	507	510	0	0	
9	0	0	0	0	506	511	0	0	
10	0	0	0	0	507	511	0	0	
11	0	0	0	0	507	512	0	0	
12	0	0	0	0	508	509	0	0	
13	0	0	0	0	508	510	0	0	
14	0	0	0	0	512	510	0	0	
15	0	0	0	0	516	510	0	0	
0	0	0	0	0	512	511	0	0	
1	0	0	0	0	511	511	0	0	
2	0	0	0	0	511	510	0	0	
3	0	0	0	0	511	510	0	0	
4	0	0	0	0	509	512	0	0	
5	0	0	0	0	510	511	0	0	
6	0	0	0	0	509	512	0	0	
7	0	0	0	0	510	510	0	0	
8	0	0	0	0	511	511	0	0	
9	0	0	0	0	507	510	0	0	
10	0	0	0	0	506	510	0	0	
11	0	0	0	0	506	511	0	0	
12	0	0	0	0	502	510	0	0	
13	0	0	0	0	506	510	0	0	
14	0	0	0	0	504	510	0	0	
15	0	0	0	0	508	510	0	0	
0	0	0	0	0	505	510	0	0	
1	0	0	0	0	506	508	0	0	
2	0	0	0	0	511	509	0	0	
3	0	0	0	0	512	511	0	0	
4	0	0	0	0	511	509	0	0	
5	0	0	0	0	512	513	0	0	
6	0	0	0	0	512	511	0	0	
7	0	0	0	0	514	511	0	0	
8	0	0	0	0	512	509	0	0	
9	0	0	0	0	512	511	0	0	
10	0	0	0	0	510	510	0	0	
11	0	0	0	0	506	511	0	0	
12	0	0	0	0	504	509	0	0	
13	0	0	0	0	505	510	0	0	
14	0	0	0	0	507	511	0	0	
15	0	0	0	0	506	510	0	0	
0	0	0	0	0	505	511	0	0	
1	0	0	0	0	507	511	0	0	
2	0	0	0	0	505	509	0	0	
3	0	0	0	0	505	511	0	0	
4	0	0	0	0	507	512	0	0	
5	0	0	0	0	507	508	0	0	
6	0	0	0	0	512	511	0	0	
7	0	0	0	0	512	512	0	0	
8	0	0	0	0	511	512	0	0	
9	0	0	0	0	514	512	0	0	
10	0	0	0	0	513	511	0	0	
11	0	0	0	0	510	511	0	0	
12	0	0	0	0	511	510	0	0	
13	0	0	0	0	509	512	0	0	
14	0	0	0	0	510	510	0	0	
15	0	0	0	0	510	510	0	0	
0	0	0	0	0	510	510	0	0	
1	0	0	0	0	508	510	0	0	
2	0	0	0	0	506	510	0	0	
3	0	0	0	0	504	510	0	0	
4	0	0	0	0	504	510	0	0	
5	0	0	0	0	503	510	0	0	
6	0	0	0	0	505	509	0	0	
7	0	0	0	0	505	510	0	0	
8	0	0	0	0	505	508	0	0	
9	0	0	0	0	505	512	0	0	
10	0	0	0	0	513	511	0	0	
11	0	0	0	0	514	509	0	0	
12	0	0	0	0	513	510	0	0	
13	0	0	0	0	509	511	0	0	
14	0	0	0	0	512	512	0	0	
15	0	0	0	0	509	513	0	0	
0	0	0	0	0	511	513	0	0	
1	0	0	0	0	511	512	0	0	
2	0	0	0	0	511	513	0	0	
3	0	0	0	0	507	513	0	0	
4	0	0	0	0	505	509	0	0	
5	0	0	0	0	504	510	0	0	
6	0	0	0	0	508	508	0	0	
7	0	0	0	0	505	510	0	0	
8	0	0	0	0	506	510	0	0	
9	0	0	0	0	505	510	0	0	
10	0	0	0	0	507	511	0	0	
11	0	0	0	0	505	511	0	0	
12	0	0	0	0	509	509	0	0	
13	0	0	0	0	511	511	0	0	
14	0	0	0	0	510	510	0	0	
15	0	0	0	0	508	512	0	0	
0	0	0	0	0	513	510	0	0	
1	0	0	0	0	511	512	0	0	
2	0	0	0	0	512	511	0	0	
3	0	0	0	0	508	513	0	0	
4	0	0	0	0	508	509	0	0	
5	0	0	0	0	510	510	0	0	
6	0	0	0	0	511	513	0	0	
7	0	0	0	0	511	510	0	0	
8	0	0	0	0	508	512	0	0	
9	0	0	0	0	508	509	0	0	
10	0	0	0	0	505	510	0	0	
11	0	0	0	0	505	512	0	0	
12	0	0	0	0	506	508	0	0	
13	0	0	0	0	506	511	0	0	
14	0	0	0	0	507	511	0	0	
15	0	0	0	0	504	510	0	0	
0	0	0	0	0	504	508	0	0	
1	0	0	0	0	509	510	0	0	
2	0	0	0	0	514	511	0	0	
3	0	0	0	0	514	511	0	0	
4	0	0	0	0	512	510	0	0	
5	0	0	0	0	512	511	0	0	
6	0	0	0	0	512	510	0	0	
7	0	0	0	0	511	510	0	0	
8	0	0	0	0	510	509	0	0	
9	0	0	0	0	509	510	0	0	
10	0	0	0	0	509	511	0	0	
11	0	0	0	0	509	510	0	0	
12	0	0	0	0	505	511	0	0	
13	0	0	0	0	506	511	0	0	
14	0	0	0	0	506	510	0	0	
15	0	0	0	0	507	511	0	0	
0	0	0	0	0	507	509	0	0	
1	0	0	0	0	506	509	0	0	
2	0	0	0	0	505	511	0	0	
3	0	0	0	0	507	512	0	0	
4	0	0	0	0	508	510	0	0	
5	0	0	0	0	511	510	0	0	
6	0	0	0	0	510	510	0	0	
7	0	0	0	0	508	511	0	0	
8	0	0	0	0	510	511	0	0	
9	0	0	0	0	511	512	0	0	
10	0	0	0	0	515	511	0	0	
11	0	0	0	0	513	513	0	0	
12	0	0	0	0	510	512	0	0	
13	0	0	0	0	510	511	0	0	
14	0	0	0	0	510	512	0	0	
15	0	0	0	0	509	510	0	0	
0	0	0	0	0	507	508	0	0	
1	0	0	0	0	506	511	0	0	
2	0	0	0	0	505	510	0	0	
3	0	0	0	0	505	511	0	0	
4	0	0	0	0	504	509	0	0	
5	0	0	0	0	505	510	0	0	
6	0	0	0	0	507	508	0	0	
7	0	0	0	0	508	511	0	0	
8	0	0	0	0	506	511	0	0	
9	0	0	0	0	508	509	0	0	
10	0	0	0	0	510	512	0	0	
11	0	0	0	0	510	509	0	0	
12	0	0	0	0	513	511	0	0	
13	0	0	0	0	511	511	0	0	
14	0	0	0	0	512	510	0	0	
15	0	0	0	0	511	510	0	0	
0	0	0	0	0	510	511	0	0	
1	0	0	0	0	512	512	0	0	
2	0	0	0	0	508	509	0	0	
3	0	0	0	0	506	511	0	0	
4	0	0	0	0	505	511	0	0	
5	0	0	0	0	505	512	0	0	
6	0	0	0	0	507	509	0	0	
7	0	0	0	0	506	510	0	0	
8	0	0	0	0	505	510	0	0	
9	0	0	0	0	507	509	0	0	
10	0	0	0	0	505	512	0	0	
11	0	0	0	0	504	510	0	0	
12	0	0	0	0	506	511	0	0	
13	0	0	0	0	510	510	0	0	
14	0	0	0	0	511	509	0	0	
15	0	0	0	0	513	511	0	0	
0	0	0	0	0	512	510	0	0	
1	0	0	0	0	511	511	0	0	
2	0	0	0	0	511	511	0	0	
3	0	0	0	0	511	513	0	0	
4	0	0	0	0	512	512	0	0	
5	0	0	0	0	509	511	0	0	
6	0	0	0	0	508	510	0	0	
7	0	0	0	0	506	509	0	0	
8	0	0	0	0	507	512	0	0	
9	0	0	0	0	505	511	0	0	
10	0	0	0	0	505	510	0	0	
11	0	0	0	0	505	511	0	0	
12	0	0	0	0	507	510	0	0	
13	0	0	0	0	505	511	0	0	
14	0	0	0	0	507	508	0	0	
15	0	0	0	0	510	509	0	0	
0	0	0	0	0	509	512	0	0	
1	0	0	0	0	509	512	0	0	
2	0	0	0	0	510	511	0	0	
3	0	0	0	0	508	511	0	0	
4	0	0	0	0	511	510	0	0	
5	0	0	0	0	513	510	0	0	
6	0	0	0	0	511	510	0	0	
7	0	0	0	0	505	507	0	0	
8	0	0	0	0	508	512	0	0	
9	0	0	0	0	511	509	0	0	
10	0	0	0	0	511	511	0	0	
11	0	0	0	0	514	512	0	0	
12	0	0	0	0	513	510	0	0	
13	0	0	0	0	511	511	0	0	
14	0	0	0	0	508	511	0	0	
15	0	0	0	0	504	509	0	0	
0	0	0	0	0	503	508	0	0	
1	0	0	0	0	501	513	0	0	
2	0	0	0	0	506	512	0	0	
3	0	0	0	0	504	511	0	0	
4	0	0	0	0	504	509	0	0	
5	0	0	0	0	506	507	0	0	
6	0	0	0	0	509	510	0	0	
7	0	0	0	0	510	511	0	0	
8	0	0	0	0	513	513	0	0	
9	0	0	0	0	512	512	0	0	
10	0	0	0	0	513	512	0	0	
11	0	0	0	0	513	510	0	0	
12	0	0	0	0	511	511	0	0	
13	0	0	0	0	511	513	0	0	
14	0	0	0	0	511	511	0	0	
15	0	0	0	0	509	512	0	0	
0	0	0	0	0	506	509	0	0	
1	0	0	0	0	504	510	0	0	
2	0	0	0	0	504	511	0	0	
3	0	0	0	0	505	510	0	0	
4	0	0	0	0	505	509	0	0	
5	0	0	0	0	504	509	0	0	
6	0	0	0	0	506	508	0	0	
7	0	0	0	0	507	511	0	0	
8	0	0	0	0	509	512	0	0	
9	0	0	0	0	512	511	0	0	
10	0	0	0	0	513	509	0	0	
11	0	0	0	0	513	512	0	0	
12	0	0	0	0	512	512	0	0	
13	0	0	0	0	512	511	0	0	
14	0	0	0	0	510	512	0	0	
15	0	0	0	0	511	512	0	0	
0	0	0	0	0	512	512	0	0	
1	0	0	0	0	505	512	0	0	
2	0	0	0	0	502	510	0	0	
3	0	0	0	0	508	509	0	0	
4	0	0	0	0	510	510	0	0	
5	0	0	0	0	506	511	0	0	
6	0	0	0	0	508	510	0	0	
7	0	0	0	0	508	510	0	0	
8	0	0	0	0	506	510	0	0	
9	0	0	0	0	505	511	0	0	
10	0	0	0	0	505	511	0	0	
11	0	0	0	0	507	510	0	0	
12	0	0	0	0	509	511	0	0	
13	0	0	0	0	509	510	0	0	
14	0	0	0	0	509	511	0	0	
15	0	0	0	0	511	512	0	0	
0	0	0	0	0	511	509	0	0	
1	0	0	0	0	513	510	0	0	
2	0	0	0	0	512	510	0	0	
3	0	0	0	0	514	511	0	0	
4	0	0	0	0	509	509	0	0	
5	0	0	0	0	510	511	0	0	
6	0	0	0	0	511	508	0	0	
7	0	0	0	0	511	512	0	0	
8	0	0	0	0	510	510	0	0	
9	0	0	0	0	504	510	0	0	
10	0	0	0	0	505	512	0	0	
11	0	0	0	0	506	510	0	0	
12	0	0	0	0	504	510	0	0	
13	0	0	0	0	503	510	0	0	
14	0	0	0	0	504	510	0	0	
15	0	0	0	0	503	510	0	0	
0	0	0	0	0	507	509	0	0	
1	0	0	0	0	509	509	0	0	
2	0	0	0	0	508	511	0	0	
3	0	0	0	0	512	510	0	0	
4	0	0	0	0	513	509	0	0	
5	0	0	0	0	512	511	0	0	
6	0	0	0	0	515	512	0	0	
7	0	0	0	0	513	511	0	0	
8	0	0	0	0	513	510	0	0	
9	0	0	0	0	510	513	0	0	
10	0	0	0	0	509	510	0	0	
11	0	0	0	0	507	510	0	0	
12	0	0	0	0	504	510	0	0	
13	0	0	0	0	507	513	0	0	
14	0	0	0	0	507	510	0	0	
15	0	0	0	0	507	509	0	0	
0	0	0	0	0	504	510	0	0	
1	0	0	0	0	504	509	0	0	
2	0	0	0	0	504	509	0	0	
3	0	0	0	0	507	510	0	0	
4	0	0	0	0	508	509	0	0	
5	0	0	0	0	508	511	0	0	
6	0	0	0	0	511	509	0	0	
7	0	0	0	0	511	510	0	0	
8	0	0	0	0	513	510	0	0	
9	0	0	0	0	515	513	0	0	
10	0	0	0	0	515	509	0	0	
11	0	0	0	0	512	511	0	0	
12	0	0	0	0	508	511	0	0	
13	0	0	0	0	508	513	0	0	
14	0	0	0	0	511	510	0	0	
15	0	0	0	0	508	511	0	0	
0	0	0	0	0	502	511	0	0	
1	0	0	0	0	504	512	0	0	
2	0	0	0	0	503	510	0	0	
3	0	0	0	0	506	510	0	0	
4	0	0	0	0	509	509	0	0	
5	0	0	0	0	511	509	0	0	
6	0	0	0	0	509	510	0	0	
7	0	0	0	0	511	509	0	0	
8	0	0	0	0	509	510	0	0	
9	0	0	0	0	506	511	0	0	
10	0	0	0	0	507	511	0	0	
11	0	0	0	0	505	511	0	0	
12	0	0	0	0	507	509	0	0	
13	0	0	0	0	508	510	0	0	
14	0	0	0	0	511	511	0	0	
15	0	0	0	0	514	511	0	0	
0	0	0	0	0	515	511	0	0	
1	0	0	0	0	512	512	0	0	
2	0	0	0	0	507	511	0	0	
3	0	0	0	0	508	511	0	0	
4	0	0	0	0	505	510	0	0	
5	0	0	0	0	507	510	0	0	
6	0	0	0	0	510	513	0	0	
7	0	0	0	0	508	511	0	0	
8	0	0	0	0	505	512	0	0	
9	0	0	0	0	506	507	0	0	
10	0	0	0	0	510	508	0	0	
11	0	0	0	0	508	508	0	0	
12	0	0	0	0	505	508	0	0	
13	0	0	0	0	507	510	0	0	
14	0	0	0	0	509	509	0	0	
15	0	0	0	0	511	508	0	0	
0	0	0	0	0	510	510	0	0	
1	0	0	0	0	509	511	0	0	
2	0	0	0	0	512	513	0	0	
3	0	0	0	0	513	513	0	0	
4	0	0	0	0	511	513	0	0	
5	0	0	0	0	514	512	0	0	
6	0	0	0	0	509	511	0	0	
7	0	0	0	0	510	508	0	0	
8	0	0	0	0	508	511	0	0	
9	0	0	0	0	504	510	0	0	
10	0	0	0	0	504	511	0	0	
11	0	0	0	0	505	510	0	0	
12	0	0	0	0	505	511	0	0	
13	0	0	0	0	509	509	0	0	
14	0	0	0	0	510	509	0	0	
15	0	0	0	0	509	510	0	0	
0	0	0	0	0	507	510	0	0	
1	0	0	0	0	508	511	0	0	
2	0	0	0	0	507	509	0	0	
3	0	0	0	0	508	508	0	0	
4	0	0	0	0	504	510	0	0	
5	0	0	0	0	508	510	0	0	
6	0	0	0	0	512	509	0	0	
7	0	0	0	0	512	511	0	0	
8	0	0	0	0	511	511	0	0	
9	0	0	0	0	511	511	0	0	
10	0	0	0	0	512	510	0	0	
11	0	0	0	0	510	511	0	0	
12	0	0	0	0	511	512	0	0	
13	0	0	0	0	508	511	0	0	
14	0	0	0	0	505	511	0	0	
15	0	0	0	0	500	509	0	0	
0	0	0	0	0	505	508	0	0	
1	0	0	0	0	507	510	0	0	
2	0	0	0	0	506	511	0	0	
3	0	0	0	0	508	508	0	0	
4	0	0	0	0	508	508	0	0	
5	0	0	0	0	508	510	0	0	
6	0	0	0	0	509	511	0	0	
7	0	0	0	0	511	510	0	0	
8	0	0	0	0	508	512	0	0	
9	0	0	0	0	508	512	0	0	
10	0	0	0	0	512	512	0	0	
11	0	0	0	0	513	512	0	0	
12	0	0	0	0	513	512	0	0	
13	0	0	0	0	512	510	0	0	
14	0	0	0	0	509	511	0	0	
15	0	0	0	0	507	511	0	0	
0	0	0	0	0	508	511	0	0	
1	0	0	0	0	504	510	0	0	
2	0	0	0	0	505	508	0	0	
3	0	0	0	0	506	512	0	0	
4	0	0	0	0	508	509	0	0	
5	0	0	0	0	509	508	0	0	
6	0	0	0	0	510	510	0	0	
7	0	0	0	0	509	510	0	0	
8	0	0	0	0	509	511	0	0	
9	0	0	0	0	511	512	0	0	
10	0	0	0	0	507	509	0	0	
11	0	0	0	0	509	511	0	0	
12	0	0	0	0	510	510	0	0	
13	0	0	0	0	511	509	0	0	
14	0	0	0	0	512	510	0	0	
15	0	0	0	0	512	510	0	0	
0	0	0	0	0	512	510	0	0	
1	0	0	0	0	512	511	0	0	
2	0	0	0	0	508	511	0	0	
3	0	0	0	0	507	510	0	0	
4	0	0	0	0	506	512	0	0	
5	0	0	0	0	503	510	0	0	
6	0	0	0	0	506	509	0	0	
7	0	0	0	0	503	511	0	0	
8	0	0	0	0	503	511	0	0	
9	0	0	0	0	507	515	0	0	
10	0	0	0	0	507	511	0	0	
11	0	0	0	0	508	510	0	0	
12	0	0	0	0	509	510	0	0	
13	0	0	0	0	509	509	0	0	
14	0	0	0	0	510	510	0	0	
15	0	0	0	0	512	510	0	0	
0	0	0	0	0	511	511	0	0	
1	0	0	0	0	512	510	0	0	
2	0	0	0	0	513	510	0	0	
3	0	0	0	0	512	510	0	0	
4	0	0	0	0	511	511	0	0	
5	0	0	0	0	506	510	0	0	
6	0	0	0	0	509	511	0	0	
7	0	0	0	0	510	510	0	0	
8	0	0	0	0	506	510	0	0	
9	0	0	0	0	505	511	0	0	
10	0	0	0	0	506	511	0	0	
11	0	0	0	0	505	510	0	0	
12	0	0	0	0	507	509	0	0	
13	0	0	0	0	506	509	0	0	
14	0	0	0	0	505	511	0	0	
15	0	0	0	0	507	510	0	0	
0	0	0	0	0	506	511	0	0	
1	0	0	0	0	507	512	0	0	
2	0	0	0	0	508	511	0	0	
3	0	0	0	0	512	509	0	0	
4	0	0	0	0	511	510	0	0	
5	0	0	0	0	512	509	0	0	
6	0	0	0	0	513	511	0	0	
7	0	0	0	0	512	511	0	0	
8	0	0	0	0	513	512	0	0	
9	0	0	0	0	513	512	0	0	
10	0	0	0	0	507	511	0	0	
11	0	0	0	0	505	512	0	0	
12	0	0	0	0	505	511	0	0	
13	0	0	0	0	509	510	0	0	
14	0	0	0	0	508	510	0	0	
15	0	0	0	0	509	511	0	0	
0	0	0	0	0	508	510	0	0	
1	0	0	0	0	503	511	0	0	
2	0	0	0	0	502	511	0	0	
3	0	0	0	0	505	511	0	0	
4	0	0	0	0	509	512	0	0	
5	0	0	0	0	508	507	0	0	
6	0	0	0	0	510	509	0	0	
7	0	0	0	0	512	510	0	0	
8	0	0	0	0	512	512	0	0	
9	0	0	0	0	512	511	0	0	
10	0	0	0	0	511	510	0	0	
11	0	0	0	0	511	511	0	0	
12	0	0	0	0	511	512	0	0	
13	0	0	0	0	511	511	0	0	
14	0	0	0	0	506	509	0	0	
15	0	0	0	0	504	511	0	0	
0	0	0	0	0	504	511	0	0	
1	0	0	0	0	508	509	0	0	
2	0	0	0	0	507	508	0	0	
3	0	0	0	0	507	510	0	0	
4	0	0	0	0	505	510	0	0	
5	0	0	0	0	508	510	0	0	
6	0	0	0	0	508	511	0	0	
7	0	0	0	0	508	509	0	0	
8	0	0	0	0	508	511	0	0	
9	0	0	0	0	508	511	0	0	
10	0	0	0	0	510	513	0	0	
11	0	0	0	0	511	512	0	0	
12	0	0	0	0	512	509	0	0	
13	0	0	0	0	512	512	0	0	
14	0	0	0	0	514	512	0	0	
15	0	0	0	0	510	511	0	0	
0	0	0	0	0	511	511	0	0	
1	0	0	0	0	510	511	0	0	
2	0	0	0	0	510	511	0	0	
3	0	0	0	0	509	509	0	0	
4	0	0	0	0	506	510	0	0	
5	0	0	0	0	506	511	0	0	
6	0	0	0	0	507	511	0	0	
7	0	0	0	0	508	511	0	0	
8	0	0	0	0	508	511	0	0	
9	0	0	0	0	505	510	0	0	
10	0	0	0	0	505	509	0	0	
11	0	0	0	0	506	507	0	0	
12	0	0	0	0	507	510	0	0	
13	0	0	0	0	508	511	0	0	
14	0	0	0	0	509	510	0	0	
15	0	0	0	0	511	509	0	0	
0	0	0	0	0	512	511	0	0	
1	0	0	0	0	514	511	0	0	
2	0	0	0	0	517	510	0	0	
3	0	0	0	0	511	508	0	0	
4	0	0	0	0	507	511	0	0	
5	0	0	0	0	508	509	0	0	
6	0	0	0	0	506	512	0	0	
7	0	0	0	0	511	511	0	0	
8	0	0	0	0	508	511	0	0	
9	0	0	0	0	503	510	0	0	
10	0	0	0	0	503	513	0	0	
11	0	0	0	0	501	510	0	0	
12	0	0	0	0	504	508	0	0	
13	0	0	0	0	507	509	0	0	
14	0	0	0	0	507	511	0	0	
15	0	0	0	0	509	513	0	0	
0	0	0	0	0	508	511	0	0	
1	0	0	0	0	510	510	0	0	
2	0	0	0	0	511	511	0	0	
3	0	0	0	0	508	511	0	0	
4	0	0	0	0	509	509	0	0	
5	0	0	0	0	513	510	0	0	
6	0	0	0	0	512	509	0	0	
7	0	0	0	0	512	511	0	0	
8	0	0	0	0	515	510	0	0	
9	0	0	0	0	506	510	0	0	
10	0	0	0	0	505	511	0	0	
11	0	0	0	0	504	511	0	0	
12	0	0	0	0	507	511	0	0	
13	0	0	0	0	508	509	0	0	
14	0	0	0	0	508	510	0	0	
15	0	0	0	0	505	509	0	0	
0	0	0	0	0	503	511	0	0	
1	0	0	0	0	504	512	0	0	
2	0	0	0	0	507	509	0	0	
3	0	0	0	0	511	511	0	0	
4	0	0	0	0	510	509	0	0	
5	0	0	0	0	508	509	0	0	
6	0	0	0	0	512	511	0	0	
7	0	0	0	0	513	509	0	0	
8	0	0	0	0	512	510	0	0	
9	0	0	0	0	512	511	0	0	
10	0	0	0	0	510	513	0	0	
11	0	0	0	0	511	511	0	0	
12	0	0	0	0	510	512	0	0	
13	0	0	0	0	510	513	0	0	
14	0	0	0	0	509	511	0	0	
15	0	0	0	0	509	510	0	0	
0	0	0	0	0	507	511	0	0	
1	0	0	0	0	506	510	0	0	
2	0	0	0	0	505	508	0	0	
3	0	0	0	0	505	511	0	0	
4	0	0	0	0	505	511	0	0	
5	0	0	0	0	504	510	0	0	
6	0	0	0	0	503	509	0	0	
7	0	0	0	0	506	511	0	0	
8	0	0	0	0	508	511	0	0	
9	0	0	0	0	513	511	0	0	
10	0	0	0	0	509	508	0	0	
11	0	0	0	0	510	509	0	0	
12	0	0	0	0	509	509	0	0	
13	0	0	0	0	511	508	0	0	
14	0	0	0	0	515	511	0	0	
15	0	0	0	0	513	511	0	0	
0	0	0	0	0	513	512	0	0	
1	0	0	0	0	511	512	0	0	
2	0	0	0	0	509	510	0	0	
3	0	0	0	0	507	510	0	0	
4	0	0	0	0	510	509	0	0	
5	0	0	0	0	508	513	0	0	
6	0	0	0	0	506	509	0	0	
7	0	0	0	0	505	510	0	0	
8	0	0	0	0	505	508	0	0	
9	0	0	0	0	505	508	0	0	
10	0	0	0	0	507	512	0	0	
11	0	0	0	0	510	511	0	0	
12	0	0	0	0	510	512	0	0	
13	0	0	0	0	506	510	0	0	
14	0	0	0	0	511	510	0	0	
15	0	0	0	0	511	510	0	0	
0	0	0	0	0	510	510	0	0	
1	0	0	0	0	509	510	0	0	
2	0	0	0	0	513	511	0	0	
3	0	0	0	0	508	510	0	0	
4	0	0	0	0	510	513	0	0	
5	0	0	0	0	508	512	0	0	
6	0	0	0	0	507	512	0	0	
7	0	0	0	0	507	510	0	0	
8	0	0	0	0	509	512	0	0	
9	0	0	0	0	506	510	0	0	
10	0	0	0	0	507	512	0	0	
11	0	0	0	0	507	510	0	0	
12	0	0	0	0	508	511	0	0	
13	0	0	0	0	506	511	0	0	
14	0	0	0	0	506	510	0	0	
15	0	0	0	0	507	512	0	0	
0	0	0	0	0	507	512	0	0	
1	0	0	0	0	510	509	0	0	
2	0	0	0	0	512	510	0	0	
3	0	0	0	0	510	511	0	0	
4	0	0	0	0	509	510	0	0	
5	0	0	0	0	512	511	0	0	
6	0	0	0	0	513	512	0	0	
7	0	0	0	0	513	511	0	0	
8	0	0	0	0	513	511	0	0	
9	0	0	0	0	511	511	0	0	
10	0	0	0	0	508	512	0	0	
11	0	0	0	0	511	510	0	0	
12	0	0	0	0	508	509	0	0	
13	0	0	0	0	501	508	0	0	
14	0	0	0	0	502	511	0	0	
15	0	0	0	0	501	508	0	0	
0	0	0	0	0	504	509	0	0	
1	0	0	0	0	508	511	0	0	
2	0	0	0	0	507	510	0	0	
3	0	0	0	0	504	511	0	0	
4	0	0	0	0	504	511	0	0	
5	0	0	0	0	508	511	0	0	
6	0	0	0	0	512	511	0	0	
7	0	0	0	0	514	512	0	0	
8	0	0	0	0	513	512	0	0	
9	0	0	0	0	514	512	0	0	
10	0	0	0	0	515	510	0	0	
11	0	0	0	0	513	511	0	0	
12	0	0	0	0	514	510	0	0	
13	0	0	0	0	511	510	0	0	
14	0	0	0	0	508	510	0	0	
15	0	0	0	0	507	510	0	0	
0	0	0	0	0	505	509	0	0	
1	0	0	0	0	503	512	0	0	
2	0	0	0	0	505	512	0	0	
3	0	0	0	0	507	510	0	0	
4	0	0	0	0	506	511	0	0	
5	0	0	0	0	507	511	0	0	
6	0	0	0	0	506	510	0	0	
7	0	0	0	0	507	510	0	0	
8	0	0	0	0	507	509	0	0	
9	0	0	0	0	510	510	0	0	
10	0	0	0	0	511	511	0	0	
11	0	0	0	0	508	507	0	0	
12	0	0	0	0	509	512	0	0	
13	0	0	0	0	513	513	0	0	
14	0	0	0	0	514	510	0	0	
15	0	0	0	0	510	512	0	0	
0	0	0	0	0	512	510	0	0	
1	0	0	0	0	509	509	0	0	
2	0	0	0	0	507	510	0	0	
3	0	0	0	0	505	510	0	0	
4	0	0	0	0	503	511	0	0	
5	0	0	0	0	506	509	0	0	
6	0	0	0	0	512	509	0	0	
7	0	0	0	0	508	509	0	0	
8	0	0	0	0	505	510	0	0	
9	0	0	0	0	505	512	0	0	
10	0	0	0	0	505	510	0	0	
11	0	0	0	0	504	511	0	0	
12	0	0	0	0	506	513	0	0	
13	0	0	0	0	507	510	0	0	
14	0	0	0	0	509	511	0	0	
15	0	0	0	0	512	510	0	0	
0	0	0	0	0	511	511	0	0	
1	0	0	0	0	513	512	0	0	
2	0	0	0	0	512	510	0	0	
3	0	0	0	0	510	513	0	0	
4	0	0	0	0	511	513	0	0	
5	0	0	0	0	509	512	0	0	
6	0	0	0	0	510	510	0	0	
7	0	0	0	0	510	510	0	0	
8	0	0	0	0	512	510	0	0	
9	0	0	0	0	506	511	0	0	
10	0	0	0	0	508	513	0	0	
11	0	0	0	0	506	510	0	0	
12	0	0	0	0	504	510	0	0	
13	0	0	0	0	504	509	0	0	
14	0	0	0	0	505	510	0	0	
15	0	0	0	0	508	511	0	0	
0	0	0	0	0	508	510	0	0	
1	0	0	0	0	510	511	0	0	
2	0	0	0	0	511	512	0	0	
3	0	0	0	0	511	512	0	0	
4	0	0	0	0	511	511	0	0	
5	0	0	0	0	511	511	0	0	
6	0	0	0	0	512	511	0	0	
7	0	0	0	0	511	510	0	0	
8	0	0	0	0	511	511	0	0	
9	0	0	0	0	509	510	0	0	
10	0	0	0	0	508	513	0	0	
11	0	0	0	0	509	512	0	0	
12	0	0	0	0	506	511	0	0	
13	0	0	0	0	505	511	0	0	
14	0	0	0	0	507	510	0	0	
15	0	0	0	0	505	510	0	0	
0	0	0	0	0	505	511	0	0	
1	0	0	0	0	505	510	0	0	
2	0	0	0	0	503	510	0	0	
3	0	0	0	0	505	507	0	0	
4	0	0	0	0	506	508	0	0	
5	0	0	0	0	510	508	0	0	
6	0	0	0	0	511	511	0	0	
7	0	0	0	0	514	510	0	0	
8	0	0	0	0	513	511	0	0	
9	0	0	0	0	511	510	0	0	
10	0	0	0	0	513	512	0	0	
11	0	0	0	0	508	512	0	0	
12	0	0	0	0	509	509	0	0	
13	0	0	0	0	512	512	0	0	
14	0	0	0	0	511	512	0	0	
15	0	0	0	0	510	510	0	0	
0	0	0	0	0	507	511	0	0	
1	0	0	0	0	506	510	0	0	
2	0	0	0	0	504	511	0	0	
3	0	0	0	0	504	510	0	0	
4	0	0	0	0	504	510	0	0	
5	0	0	0	0	506	510	0	0	
6	0	0	0	0	509	511	0	0	
7	0	0	0	0	510	509	0	0	
8	0	0	0	0	510	510	0	0	
9	0	0	0	0	511	510	0	0	
10	0	0	0	0	508	512	0	0	
11	0	0	0	0	510	510	0	0	
12	0	0	0	0	509	512	0	0	
13	0	0	0	0	512	512	0	0	
14	0	0	0	0	512	510	0	0	
15	0	0	0	0	511	508	0	0	
0	0	0	0	0	512	510	0	0	
1	0	0	0	0	512	511	0	0	
2	0	0	0	0	510	512	0	0	
3	0	0	0	0	510	511	0	0	
4	0	0	0	0	505	509	0	0	
5	0	0	0	0	504	509	0	0	
6	0	0	0	0	505	511	0	0	
7	0	0	0	0	504	510	0	0	
8	0	0	0	0	506	511	0	0	
9	0	0	0	0	506	510	0	0	
10	0	0	0	0	505	510	0	0	
11	0	0	0	0	507	513	0	0	
12	0	0	0	0	508	510	0	0	
13	0	0	0	0	508	511	0	0	
14	0	0	0	0	511	511	0	0	
15	0	0	0	0	513	511	0	0	
0	0	0	0	0	513	509	0	0	
1	0	0	0	0	512	511	0	0	
2	0	0	0	0	511	511	0	0	
3	0	0	0	0	509	512	0	0	
4	0	0	0	0	511	512	0	0	
5	0	0	0	0	509	510	0	0	
6	0	0	0	0	507	511	0	0	
7	0	0	0	0	510	510	0	0	
8	0	0	0	0	509	509	0	0	
9	0	0	0	0	509	510	0	0	
10	0	0	0	0	507	512	0	0	
11	0	0	0	0	499	511	0	0	
12	0	0	0	0	504	510	0	0	
13	0	0	0	0	502	509	0	0	
14	0	0	0	0	504	509	0	0	
15	0	0	0	0	507	512	0	0	
0	0	0	0	0	509	510	0	0	
1	0	0	0	0	510	511	0	0	
2	0	0	0	0	511	510	0	0	
3	0	0	0	0	512	510	0	0	
4	0	0	0	0	511	511	0	0	
5	0	0	0	0	514	511	0	0	
6	0	0	0	0	511	510	0	0	
7	0	0	0	0	511	511	0	0	
8	0	0	0	0	514	514	0	0	
9	0	0	0	0	512	512	0	0	
10	0	0	0	0	509	510	0	0	
11	0	0	0	0	509	510	0	0	
12	0	0	0	0	506	509	0	0	
13	0	0	0	0	507	511	0	0	
14	0	0	0	0	506	509	0	0	
15	0	0	0	0	504	508	0	0	
0	0	0	0	0	504	509	0	0	
1	0	0	0	0	507	510	0	0	
2	0	0	0	0	508	510	0	0	
3	0	0	0	0	507	508	0	0	
4	0	0	0	0	508	510	0	0	
5	0	0	0	0	511	510	0	0	
6	0	0	0	0	510	511	0	0	
7	0	0	0	0	509	511	0	0	
8	0	0	0	0	506	510	0	0	
9	0	0	0	0	506	512	0	0	
10	0	0	0	0	512	510	0	0	
11	0	0	0	0	513	510	0	0	
12	0	0	0	0	514	510	0	0	
13	0	0	0	0	513	509	0	0	
14	0	0	0	0	508	509	0	0	
15	0	0	0	0	506	511	0	0	
0	0	0	0	0	504	515	0	0	
1	0	0	0	0	507	509	0	0	
2	0	0	0	0	508	510	0	0	
3	0	0	0	0	508	508	0	0	
4	0	0	0	0	507	508	0	0	
5	0	0	0	0	504	511	0	0	
6	0	0	0	0	503	511	0	0	
7	0	0	0	0	506	513	0	0	
8	0	0	0	0	508	512	0	0	
9	0	0	0	0	509	511	0	0	
10	0	0	0	0	507	512	0	0	
11	0	0	0	0	511	509	0	0	
12	0	0	0	0	511	509	0	0	
13	0	0	0	0	511	510	0	0	
14	0	0	0	0	510	509	0	0	
15	0	0	0	0	509	510	0	0	
0	0	0	0	0	509	510	0	0	
1	0	0	0	0	510	512	0	0	
2	0	0	0	0	513	511	0	0	
3	0	0	0	0	509	511	0	0	
4	0	0	0	0	506	510	0	0	
5	0	0	0	0	505	509	0	0	
6	0	0	0	0	507	511	0	0	
7	0	0	0	0	505	511	0	0	
8	0	0	0	0	506	509	0	0	
9	0	0	0	0	506	511	0	0	
10	0	0	0	0	505	509	0	0	
11	0	0	0	0	506	511	0	0	
12	0	0	0	0	509	512	0	0	
13	0	0	0	0	508	512	0	0	
14	0	0	0	0	511	513	0	0	
15	0	0	0	0	513	512	0	0	
0	0	0	0	0	511	509	0	0	
1	0	0	0	0	511	511	0	0	
2	0	0	0	0	510	508	0	0	
3	0	0	0	0	508	510	0	0	
4	0	0	0	0	511	512	0	0	
5	0	0	0	0	510	513	0	0	
6	0	0	0	0	511	511	0	0	
7	0	0	0	0	509	511	0	0	
8	0	0	0	0	511	511	0	0	
9	0	0	0	0	509	508	0	0	
10	0	0	0	0	509	511	0	0	
11	0	0	0	0	507	510	0	0	
12	0	0	0	0	503	508	0	0	
13	0	0	0	0	504	510	0	0	
14	0	0	0	0	503	509	0	0	
15	0	0	0	0	503	510	0	0	
0	0	0	0	0	507	510	0	0	
1	0	0	0	0	507	511	0	0	
2	0	0	0	0	509	512	0	0	
3	0	0	0	0	513	512	0	0	
4	0	0	0	0	514	511	0	0	
5	0	0	0	0	512	511	0	0	
6	0	0	0	0	512	511	0	0	
7	0	0	0	0	511	510	0	0	
8	0	0	0	0	509	510	0	0	
9	0	0	0	0	511	511	0	0	
10	0	0	0	0	511	511	0	0	
11	0	0	0	0	510	509	0	0	
12	0	0	0	0	507	512	0	0	
13	0	0	0	0	507	513	0	0	
14	0	0	0	0	507	511	0	0	
15	0	0	0	0	505	509	0	0	
0	0	0	0	0	507	511	0	0	
1	0	0	0	0	508	508	0	0	
2	0	0	0	0	504	509	0	0	
3	0	0	0	0	505	508	0	0	
4	0	0	0	0	503	510	0	0	
5	0	0	0	0	504	510	0	0	
6	0	0	0	0	509	511	0	0	
7	0	0	0	0	508	509	0	0	
8	0	0	0	0	510	511	0	0	
9	0	0	0	0	513	512	0	0	
10	0	0	0	0	514	513	0	0	
11	0	0	0	0	515	511	0	0	
12	0	0	0	0	513	510	0	0	
13	0	0	0	0	511	511	0	0	
14	0	0	0	0	511	508	0	0	
15	0	0	0	0	510	508	0	0	
0	0	0	0	0	505	510	0	0	
1	0	0	0	0	506	511	0	0	
2	0	0	0	0	504	510	0	0	
3	0	0	0	0	505	509	0	0	
4	0	0	0	0	504	511	0	0	
5	0	0	0	0	504	512	0	0	
6	0	0	0	0	503	510	0	0	
7	0	0	0	0	508	511	0	0	
8	0	0	0	0	508	511	0	0	
9	0	0	0	0	509	511	0	0	
10	0	0	0	0	510	510	0	0	
11	0	0	0	0	511	510	0	0	
12	0	0	0	0	512	511	0	0	
13	0	0	0	0	512	512	0	0	
14	0	0	0	0	514	512	0	0	
15	0	0	0	0	511	512	0	0	
0	0	0	0	0	510	511	0	0	
1	0	0	0	0	508	512	0	0	
2	0	0	0	0	508	510	0	0	
3	0	0	0	0	511	510	0	0	
4	0	0	0	0	510	511	0	0	
5	0	0	0	0	509	510	0	0	
6	0	0	0	0	507	510	0	0	
7	0	0	0	0	507	510	0	0	
8	0	0	0	0	507	511	0	0	
9	0	0	0	0	505	510	0	0	
10	0	0	0	0	505	510	0	0	
11	0	0	0	0	504	507	0	0	
12	0	0	0	0	507	510	0	0	
13	0	0	0	0	509	509	0	0	
14	0	0	0	0	509	510	0	0	
15	0	0	0	0	511	510	0	0	
0	0	0	0	0	511	511	0	0	
1	0	0	0	0	511	510	0	0	
2	0	0	0	0	512	511	0	0	
3	0	0	0	0	513	512	0	0	
4	0	0	0	0	513	513	0	0	
5	0	0	0	0	509	511	0	0	
6	0	0	0	0	505	510	0	0	
7	0	0	0	0	507	509	0	0	
8	0	0	0	0	505	512	0	0	
9	0	0	0	0	505	511	0	0	
10	0	0	0	0	510	511	0	0	
11	0	0	0	0	504	512	0	0	
12	0	0	0	0	505	510	0	0	
13	0	0	0	0	505	510	0	0	
14	0	0	0	0	507	510	0	0	
15	0	0	0	0	507	510	0	0	
0	0	0	0	0	509	510	0	0	
1	0	0	0	0	510	511	0	0	
2	0	0	0	0	511	512	0	0	
3	0	0	0	0	511	512	0	0	
4	0	0	0	0	509	510	0	0	
5	0	0	0	0	511	511	0	0	
6	0	0	0	0	512	511	0	0	
7	0	0	0	0	511	511	0	0	
8	0	0	0	0	510	511	0	0	
9	0	0	0	0	511	511	0	0	
10	0	0	0	0	511	512	0	0	
11	0	0	0	0	510	509	0	0	
12	0	0	0	0	507	509	0	0	
13	0	0	0	0	508	512	0	0	
14	0	0	0	0	508	511	0	0	
15	0	0	0	0	505	513	0	0	
0	0	0	0	0	504	512	0	0	
1	0	0	0	0	506	511	0	0	
2	0	0	0	0	502	508	0	0	
3	0	0	0	0	506	508	0	0	
4	0	0	0	0	508	510	0	0	
5	0	0	0	0	510	512	0	0	
6	0	0	0	0	510	511	0	0	
7	0	0	0	0	512	509	0	0	
8	0	0	0	0	512	511	0	0	
9	0	0	0	0	512	508	0	0	
10	0	0	0	0	509	509	0	0	
11	0	0	0	0	508	512	0	0	
12	0	0	0	0	508	512	0	0	
13	0	0	0	0	510	510	0	0	
14	0	0	0	0	510	509	0	0	
15	0	0	0	0	509	511	0	0	
0	0	0	0	0	507	511	0	0	
1	0	0	0	0	505	510	0	0	
2	0	0	0	0	504	511	0	0	
3	0	0	0	0	507	509	0	0	
4	0	0	0	0	509	508	0	0	
5	0	0	0	0	506	511	0	0	
6	0	0	0	0	506	508	0	0	
7	0	0	0	0	507	508	0	0	
8	0	0	0	0	508	510	0	0	
9	0	0	0	0	507	511	0	0	
10	0	0	0	0	510	509	0	0	
11	0	0	0	0	513	509	0	0	
12	0	0	0	0	511	510	0	0	
13	0	0	0	0	511	512	0	0	
14	0	0	0	0	512	512	0	0	
15	0	0	0	0	510	512	0	0	
0	0	0	0	0	512	510	0	0	
1	0	0	0	0	510	510	0	0	
2	0	0	0	0	510	509	0	0	
3	0	0	0	0	510	511	0	0	
4	0	0	0	0	511	510	0	0	
5	0	0	0	0	508	510	0	0	
6	0	0	0	0	505	513	0	0	
7	0	0	0	0	508	510	0	0	
8	0	0	0	0	504	510	0	0	
9	0	0	0	0	503	510	0	0	
10	0	0	0	0	502	508	0	0	
11	0	0	0	0	505	508	0	0	
12	0	0	0	0	510	512	0	0	
13	0	0	0	0	509	508	0	0	
14	0	0	0	0	510	510	0	0	
15	0	0	0	0	508	511	0	0	
0	0	0	0	0	507	511	0	0	
1	0	0	0	0	506	513	0	0	
2	0	0	0	0	512	511	0	0	
3	0	0	0	0	515	511	0	0	
4	0	0	0	0	513	511	0	0	
5	0	0	0	0	514	510	0	0	
6	0	0	0	0	511	513	0	0	
7	0	0	0	0	511	511	0	0	
8	0	0	0	0	507	513	0	0	
9	0	0	0	0	504	510	0	0	
10	0	0	0	0	504	511	0	0	
11	0	0	0	0	502	511	0	0	
12	0	0	0	0	504	512	0	0	
13	0	0	0	0	505	510	0	0	
14	0	0	0	0	505	509	0	0	
15	0	0	0	0	507	510	0	0	
0	0	0	0	0	505	507	0	0	
1	0	0	0	0	509	510	0	0	
2	0	0	0	0	513	511	0	0	
3	0	0	0	0	511	511	0	0	
4	0	0	0	0	511	512	0	0	
5	0	0	0	0	513	511	0	0	
6	0	0	0	0	514	511	0	0	
7	0	0	0	0	511	512	0	0	
8	0	0	0	0	511	511	0	0	
9	0	0	0	0	511	510	0	0	
10	0	0	0	0	508	513	0	0	
11	0	0	0	0	510	512	0	0	
12	0	0	0	0	508	511	0	0	
13	0	0	0	0	504	511	0	0	
14	0	0	0	0	506	509	0	0	
15	0	0	0	0	505	509	0	0	
0	0	0	0	0	507	509	0	0	
1	0	0	0	0	509	510	0	0	
2	0	0	0	0	507	509	0	0	
3	0	0	0	0	504	509	0	0	
4	0	0	0	0	508	511	0	0	
5	0	0	0	0	508	509	0	0	
6	0	0	0	0	506	509	0	0	
7	0	0	0	0	507	512	0	0	
8	0	0	0	0	508	509	0	0	
9	0	0	0	0	506	513	0	0	
10	0	0	0	0	512	511	0	0	
11	0	0	0	0	512	513	0	0	
12	0	0	0	0	513	513	0	0	
13	0	0	0	0	511	512	0	0	
14	0	0	0	0	509	510	0	0	
15	0	0	0	0	509	510	0	0	
0	0	0	0	0	508	511	0	0	
1	0	0	0	0	509	511	0	0	
2	0	0	0	0	503	510	0	0	
3	0	0	0	0	507	508	0	0	
4	0	0	0	0	509	509	0	0	
5	0	0	0	0	508	509	0	0	
6	0	0	0	0	507	509	0	0	
7	0	0	0	0	508	510	0	0	
8	0	0	0	0	507	510	0	0	
9	0	0	0	0	507	510	0	0	
10	0	0	0	0	510	512	0	0	
11	0	0	0	0	511	510	0	0	
12	0	0	0	0	510	511	0	0	
13	0	0	0	0	513	511	0	0	
14	0	0	0	0	512	511	0	0	
15	0	0	0	0	512	513	0	0	
0	0	0	0	0	512	511	0	0	
1	0	0	0	0	511	510	0	0	
2	0	0	0	0	510	510	0	0	
3	0	0	0	0	507	511	0	0	
4	0	0	0	0	507	509	0	0	
5	0	0	0	0	504	510	0	0	
6	0	0	0	0	504	510	0	0	
7	0	0	0	0	504	511	0	0	
8	0	0	0	0	506	511	0	0	
9	0	0	0	0	509	511	0	0	
10	0	0	0	0	508	511	0	0	
11	0	0	0	0	510	512	0	0	
12	0	0	0	0	508	511	0	0	
13	0	0	0	0	508	511	0	0	
14	0	0	0	0	509	510	0	0	
15	0	0	0	0	510	509	0	0	
0	0	0	0	0	511	510	0	0	
1	0	0	0	0	512	511	0	0	
2	0	0	0	0	512	510	0	0	
3	0	0	0	0	510	510	0	0	
4	0	0	0	0	508	510	0	0	
5	0	0	0	0	508	508	0	0	
6	0	0	0	0	509	509	0	0	
7	0	0	0	0	509	510	0	0	
8	0	0	0	0	508	511	0	0	
9	0	0	0	0	505	510	0	0	
10	0	0	0	0	507	511	0	0	
11	0	0	0	0	504	512	0	0	
12	0	0	0	0	506	511	0	0	
13	0	0	0	0	504	511	0	0	
14	0	0	0	0	507	510	0	0	
15	0	0	0	0	507	510	0	0	
0	0	0	0	0	509	510	0	0	
1	0	0	0	0	510	512	0	0	
2	0	0	0	0	511	510	0	0	
3	0	0	0	0	511	512	0	0	
4	0	0	0	0	511	513	0	0	
5	0	0	0	0	512	511	0	0	
6	0	0	0	0	513	511	0	0	
7	0	0	0	0	512	510	0	0	
8	0	0	0	0	511	511	0	0	
9	0	0	0	0	510	509	0	0	
10	0	0	0	0	510	509	0	0	
11	0	0	0	0	510	511	0	0	
12	0	0	0	0	508	510	0	0	
13	0	0	0	0	507	510	0	0	
14	0	0	0	0	506	511	0	0	
15	0	0	0	0	502	510	0	0	
0	0	0	0	0	502	511	0	0	
1	0	0	0	0	503	508	0	0	
2	0	0	0	0	508	511	0	0	
3	0	0	0	0	512	511	0	0	
4	0	0	0	0	507	511	0	0	
5	0	0	0	0	506	512	0	0	
6	0	0	0	0	508	508	0	0	
7	0	0	0	0	510	511	0	0	
8	0	0	0	0	511	511	0	0	
9	0	0	0	0	514	511	0	0	
10	0	0	0	0	514	511	0	0	
11	0	0	0	0	513	511	0	0	
12	0	0	0	0	511	512	0	0	
13	0	0	0	0	511	511	0	0	
14	0	0	0	0	509	511	0	0	
15	0	0	0	0	508	510	0	0	
0	0	0	0	0	507	509	0	0	
1	0	0	0	0	504	509	0	0	
2	0	0	0	0	505	510	0	0	
3	0	0	0	0	505	510	0	0	
4	0	0	0	0	505	512	0	0	
5	0	0	0	0	508	510	0	0	
6	0	0	0	0	507	508	0	0	
7	0	0	0	0	508	511	0	0	
8	0	0	0	0	508	509	0	0	
9	0	0	0	0	508	511	0	0	
10	0	0	0	0	512	511	0	0	
11	0	0	0	0	509	509	0	0	
12	0	0	0	0	511	511	0	0	
13	0	0	0	0	513	511	0	0	
14	0	0	0	0	511	511	0	0	
15	0	0	0	0	509	512	0	0	
0	0	0	0	0	508	510	0	0	
1	0	0	0	0	508	513	0	0	
2	0	0	0	0	508	510	0	0	
3	0	0	0	0	511	511	0	0	
4	0	0	0	0	510	511	0	0	
5	0	0	0	0	508	511	0	0	
6	0	0	0	0	511	511	0	0	
7	0	0	0	0	507	510	0	0	
8	0	0	0	0	506	510	0	0	
9	0	0	0	0	505	512	0	0	
10	0	0	0	0	504	510	0	0	
11	0	0	0	0	505	509	0	0	
12	0	0	0	0	504	508	0	0	
13	0	0	0	0	504	509	0	0	
14	0	0	0	0	507	511	0	0	
15	0	0	0	0	512	511	0	0	
0	0	0	0	0	512	511	0	0	
1	0	0	0	0	515	510	0	0	
2	0	0	0	0	513	509	0	0	
3	0	0	0	0	513	511	0	0	
4	0	0	0	0	510	511	0	0	
5	0	0	0	0	507	511	0	0	
6	0	0	0	0	504	509	0	0	
7	0	0	0	0	505	509	0	0	
8	0	0	0	0	506	511	0	0	
9	0	0	0	0	509	510	0	0	
10	0	0	0	0	508	511	0	0	
11	0	0	0	0	504	510	0	0	
12	0	0	0	0	505	511	0	0	
13	0	0	0	0	510	511	0	0	
14	0	0	0	0	510	510	0	0	
15	0	0	0	0	508	511	0	0	
0	0	0	0	0	508	513	0	0	
1	0	0	0	0	506	511	0	0	
2	0	0	0	0	509	511	0	0	
3	0	0	0	0	513	512	0	0	
4	0	0	0	0	510	510	0	0	
5	0	0	0	0	511	511	0	0	
6	0	0	0	0	511	510	0	0	
7	0	0	0	0	511	510	0	0	
8	0	0	0	0	512	510	0	0	
9	0	0	0	0	511	508	0	0	
10	0	0	0	0	510	512	0	0	
11	0	0	0	0	510	511	0	0	
12	0	0	0	0	507	510	0	0	
13	0	0	0	0	504	510	0	0	
14	0	0	0	0	504	508	0	0	
15	0	0	0	0	504	510	0	0	
0	0	0	0	0	504	511	0	0	
1	0	0	0	0	505	513	0	0	
2	0	0	0	0	507	511	0	0	
3	0	0	0	0	510	510	0	0	
4	0	0	0	0	508	510	0	0	
5	0	0	0	0	509	513	0	0	
6	0	0	0	0	509	512	0	0	
7	0	0	0	0	512	510	0	0	
8	0	0	0	0	512	509	0	0	
9	0	0	0	0	511	512	0	0	
10	0	0	0	0	513	512	0	0	
11	0	0	0	0	512	510	0	0	
12	0	0	0	0	511	512	0	0	
13	0	0	0	0	511	510	0	0	
14	0	0	0	0	510	511	0	0	
15	0	0	0	0	508	511	0	0	
0	0	0	0	0	507	511	0	0	
1	0	0	0	0	506	509	0	0	
2	0	0	0	0	505	511	0	0	
3	0	0	0	0	505	511	0	0	
4	0	0	0	0	505	511	0	0	
5	0	0	0	0	504	510	0	0	
6	0	0	0	0	505	511	0	0	
7	0	0	0	0	507	509	0	0	
8	0	0	0	0	509	512	0	0	
9	0	0	0	0	509	508	0	0	
10	0	0	0	0	508	511	0	0	
11	0	0	0	0	509	510	0	0	
12	0	0	0	0	510	508	0	0	
13	0	0	0	0	513	511	0	0	
14	0	0	0	0	515	511	0	0	
15	0	0	0	0	513	510	0	0	
0	0	0	0	0	511	513	0	0	
1	0	0	0	0	509	512	0	0	
2	0	0	0	0	510	511	0	0	
3	0	0	0	0	510	510	0	0	
4	0	0	0	0	510	511	0	0	
5	0	0	0	0	506	509	0	0	
6	0	0	0	0	505	508	0	0	
7	0	0	0	0	504	510	0	0	
8	0	0	0	0	502	511	0	0	
9	0	0	0	0	503	509	0	0	
10	0	0	0	0	502	511	0	0	
11	0	0	0	0	503	513	0	0	
12	0	0	0	0	504	509	0	0	
13	0	0	0	0	508	510	0	0	
14	0	0	0	0	512	509	0	0	
15	0	0	0	0	514	511	0	0	
0	0	0	0	0	515	511	0	0	
1	0	0	0	0	513	510	0	0	
2	0	0	0	0	513	510	0	0	
3	0	0	0	0	513	512	0	0	
4	0	0	0	0	513	510	0	0	
5	0	0	0	0	509	511	0	0	
6	0	0	0	0	505	512	0	0	
7	0	0	0	0	505	510	0	0	
8	0	0	0	0	510	511	0	0	
9	0	0	0	0	507	511	0	0	
10	0	0	0	0	508	511	0	0	
11	0	0	0	0	508	512	0	0	
12	0	0	0	0	507	510	0	0	
13	0	0	0	0	505	509	0	0	
14	0	0	0	0	504	507	0	0	
15	0	0	0	0	507	507	0	0	
0	0	0	0	0	510	509	0	0	
1	0	0	0	0	509	510	0	0	
2	0	0	0	0	510	510	0	0	
3	0	0	0	0	511	510	0	0	
4	0	0	0	0	511	512	0	0	
5	0	0	0	0	514	512	0	0	
6	0	0	0	0	511	513	0	0	
7	0	0	0	0	511	511	0	0	
8	0	0	0	0	511	510	0	0	
9	0	0	0	0	510	511	0	0	
10	0	0	0	0	508	508	0	0	
11	0	0	0	0	507	509	0	0	
12	0	0	0	0	505	511	0	0	
13	0	0	0	0	505	508	0	0	
14	0	0	0	0	507	510	0	0	
15	0	0	0	0	506	508	0	0	
0	0	0	0	0	504	512	0	0	
1	0	0	0	0	502	511	0	0	
2	0	0	0	0	506	508	0	0	
3	0	0	0	0	509	511	0	0	
4	0	0	0	0	510	511	0	0	
5	0	0	0	0	510	512	0	0	
6	0	0	0	0	512	511	0	0	
7	0	0	0	0	512	510	0	0	
8	0	0	0	0	511	510	0	0	
9	0	0	0	0	511	511	0	0	
10	0	0	0	0	510	508	0	0	
11	0	0	0	0	511	511	0	0	
12	0	0	0	0	509	513	0	0	
13	0	0	0	0	511	511	0	0	
14	0	0	0	0	512	510	0	0	
15	0	0	0	0	508	513	0	0	
0	0	0	0	0	506	509	0	0	
1	0	0	0	0	505	511	0	0	
2	0	0	0	0	505	512	0	0	
3	0	0	0	0	506	513	0	0	
4	0	0	0	0	508	513	0	0	
5	0	0	0	0	504	508	0	0	
6	0	0	0	0	505	511	0	0	
7	0	0	0	0	504	508	0	0	
8	0	0	0	0	505	510	0	0	
9	0	0	0	0	508	508	0	0	
10	0	0	0	0	510	508	0	0	
11	0	0	0	0	515	509	0	0	
12	0	0	0	0	517	510	0	0	
13	0	0	0	0	517	510	0	0	
14	0	0	0	0	515	510	0	0	
15	0	0	0	0	514	511	0	0	
0	0	0	0	0	510	512	0	0	
1	0	0	0	0	511	511	0	0	
2	0	0	0	0	509	510	0	0	
3	0	0	0	0	507	509	0	0	
4	0	0	0	0	504	510	0	0	
5	0	0	0	0	505	510	0	0	
6	0	0	0	0	504	510	0	0	
7	0	0	0	0	504	513	0	0	
8	0	0	0	0	503	511	0	0	
9	0	0	0	0	501	511	0	0	
10	0	0	0	0	502	511	0	0	
11	0	0	0	0	505	509	0	0	
12	0	0	0	0	509	510	0	0	
13	0	0	0	0	511	510	0	0	
14	0	0	0	0	512	511	0	0	
15	0	0	0	0	513	512	0	0	
0	0	0	0	0	512	512	0	0	
1	0	0	0	0	514	511	0	0	
2	0	0	0	0	516	511	0	0	
3	0	0	0	0	513	510	0	0	
4	0	0	0	0	512	511	0	0	
5	0	0	0	0	511	510	0	0	
6	0	0	0	0	508	511	0	0	
7	0	0	0	0	507	510	0	0	
8	0	0	0	0	504	509	0	0	
9	0	0	0	0	504	510	0	0	
10	0	0	0	0	502	509	0	0	
11	0	0	0	0	504	510	0	0	
12	0	0	0	0	504	511	0	0	
13	0	0	0	0	504	510	0	0	
14	0	0	0	0	505	511	0	0	
15	0	0	0	0	507	509	0	0	
0	0	0	0	0	507	510	0	0	
1	0	0	0	0	510	511	0	0	
2	0	0	0	0	511	508	0	0	
3	0	0	0	0	514	513	0	0	
4	0	0	0	0	515	509	0	0	
5	0	0	0	0	515	511	0	0	
6	0	0	0	0	514	512	0	0	
7	0	0	0	0	513	510	0	0	
8	0	0	0	0	512	511	0	0	
9	0	0	0	0	510	511	0	0	
10	0	0	0	0	509	511	0	0	
11	0	0	0	0	506	510	0	0	
12	0	0	0	0	504	511	0	0	
13	0	0	0	0	504	510	0	0	
14	0	0	0	0	505	510	0	0	
15	0	0	0	0	504	510	0	0	
0	0	0	0	0	503	511	0	0	
1	0	0	0	0	506	511	0	0	
2	0	0	0	0	507	513	0	0	
3	0	0	0	0	505	511	0	0	
4	0	0	0	0	507	508	0	0	
5	0	0	0	0	508	511	0	0	
6	0	0	0	0	515	512	0	0	
7	0	0	0	0	512	509	0	0	
8	0	0	0	0	511	510	0	0	
9	0	0	0	0	511	511	0	0	
10	0	0	0	0	515	511	0	0	
11	0	0	0	0	512	510	0	0	
12	0	0	0	0	511	512	0	0	
13	0	0	0	0	508	512	0	0	
14	0	0	0	0	507	511	0	0	
15	0	0	0	0	506	510	0	0	
0	0	0	0	0	507	513	0	0	
1	0	0	0	0	506	511	0	0	
2	0	0	0	0	506	506	0	0	
3	0	0	0	0	505	507	0	0	
4	0	0	0	0	505	508	0	0	
5	0	0	0	0	508	509	0	0	
6	0	0	0	0	505	508	0	0	
7	0	0	0	0	508	510	0	0	
8	0	0	0	0	508	511	0	0	
9	0	0	0	0	510	511	0	0	
10	0	0	0	0	510	511	0	0	
11	0	0	0	0	512	510	0	0	
12	0	0	0	0	510	510	0	0	
13	0	0	0	0	512	514	0	0	
14	0	0	0	0	511	511	0	0	
15	0	0	0	0	511	510	0	0	
0	0	0	0	0	510	511	0	0	
1	0	0	0	0	510	509	0	0	
2	0	0	0	0	508	511	0	0	
3	0	0	0	0	507	510	0	0	
4	0	0	0	0	506	510	0	0	
5	0	0	0	0	506	507	0	0	
6	0	0	0	0	505	510	0	0	
7	0	0	0	0	506	510	0	0	
8	0	0	0	0	508	511	0	0	
9	0	0	0	0	507	511	0	0	
10	0	0	0	0	503	511	0	0	
11	0	0	0	0	507	509	0	0	
12	0	0	0	0	508	511	0	0	
13	0	0	0	0	508	509	0	0	
14	0	0	0	0	513	511	0	0	
15	0	0	0	0	512	510	0	0	
0	0	0	0	0	513	511	0	0	
1	0	0	0	0	511	513	0	0	
2	0	0	0	0	511	510	0	0	
3	0	0	0	0	508	512	0	0	
4	0	0	0	0	510	512	0	0	
5	0	0	0	0	512	511	0	0	
6	0	0	0	0	508	511	0	0	
7	0	0	0	0	507	509	0	0	
8	0	0	0	0	503	511	0	0	
9	0	0	0	0	505	512	0	0	
10	0	0	0	0	505	511	0	0	
11	0	0	0	0	504	510	0	0	
12	0	0	0	0	504	509	0	0	
13	0	0	0	0	505	511	0	0	
14	0	0	0	0	509	510	0	0	
15	0	0	0	0	511	510	0	0	
0	0	0	0	0	511	511	0	0	
1	0	0	0	0	509	511	0	0	
2	0	0	0	0	511	511	0	0	
3	0	0	0	0	513	512	0	0	
4	0	0	0	0	513	512	0	0	
5	0	0	0	0	511	511	0	0	
6	0	0	0	0	511	511	0	0	
7	0	0	0	0	508	511	0	0	
8	0	0	0	0	510	511	0	0	
9	0	0	0	0	511	508	0	0	
10	0	0	0	0	508	509	0	0	
11	0	0	0	0	510	509	0	0	
12	0	0	0	0	510	511	0	0	
13	0	0	0	0	507	510	0	0	
14	0	0	0	0	506	510	0	0	
15	0	0	0	0	505	509	0	0	
0	0	0	0	0	504	511	0	0	
1	0	0	0	0	507	511	0	0	
2	0	0	0	0	505	510	0	0	
3	0	0	0	0	507	510	0	0	
4	0	0	0	0	508	510	0	0	
5	0	0	0	0	510	510	0	0	
6	0	0	0	0	514	512	0	0	
7	0	0	0	0	513	511	0	0	
8	0	0	0	0	511	511	0	0	
9	0	0	0	0	511	513	0	0	
10	0	0	0	0	510	511	0	0	
11	0	0	0	0	512	511	0	0	
12	0	0	0	0	511	509	0	0	
13	0	0	0	0	510	510	0	0	
14	0	0	0	0	510	509	0	0	
15	0	0	0	0	510	512	0	0	
0	0	0	0	0	505	511	0	0	
1	0	0	0	0	502	509	0	0	
2	0	0	0	0	505	511	0	0	
3	0	0	0	0	506	512	0	0	
4	0	0	0	0	503	510	0	0	
5	0	0	0	0	504	511	0	0	
6	0	0	0	0	507	510	0	0	
7	0	0	0	0	509	509	0	0	
8	0	0	0	0	508	511	0	0	
9	0	0	0	0	506	512	0	0	
10	0	0	0	0	509	509	0	0	
11	0	0	0	0	513	509	0	0	
12	0	0	0	0	510	508	0	0	
13	0	0	0	0	511	510	0	0	
14	0	0	0	0	513	512	0	0	
15	0	0	0	0	515	511	0	0	
0	0	0	0	0	512	508	0	0	
1	0	0	0	0	511	509	0	0	
2	0	0	0	0	508	511	0	0	
3	0	0	0	0	508	508	0	0	
4	0	0	0	0	506	510	0	0	
5	0	0	0	0	506	513	0	0	
6	0	0	0	0	507	510	0	0	
7	0	0	0	0	505	510	0	0	
8	0	0	0	0	505	511	0	0	
9	0	0	0	0	504	509	0	0	
10	0	0	0	0	506	508	0	0	
11	0	0	0	0	505	510	0	0	
12	0	0	0	0	508	508	0	0	
13	0	0	0	0	509	512	0	0	
14	0	0	0	0	511	511	0	0	
15	0	0	0	0	510	510	0	0	
0	0	0	0	0	514	513	0	0	
1	0	0	0	0	514	510	0	0	
2	0	0	0	0	513	511	0	0	
3	0	0	0	0	512	512	0	0	
4	0	0	0	0	511	512	0	0	
5	0	0	0	0	510	510	0	0	
6	0	0	0	0	508	511	0	0	
7	0	0	0	0	508	509	0	0	
8	0	0	0	0	505	512	0	0	
9	0	0	0	0	504	509	0	0	
10	0	0	0	0	505	511	0	0	
11	0	0	0	0	505	511	0	0	
12	0	0	0	0	506	509	0	0	
13	0	0	0	0	508	510	0	0	
14	0	0	0	0	505	511	0	0	
15	0	0	0	0	510	510	0	0	
0	0	0	0	0	512	512	0	0	
1	0	0	0	0	505	510	0	0	
2	0	0	0	0	506	510	0	0	
3	0	0	0	0	510	509	0	0	
4	0	0	0	0	510	512	0	0	
5	0	0	0	0	511	508	0	0	
6	0	0	0	0	511	513	0	0	
7	0	0	0	0	512	511	0	0	
8	0	0	0	0	514	510	0	0	
9	0	0	0	0	511	511	0	0	
10	0	0	0	0	506	510	0	0	
11	0	0	0	0	504	511	0	0	
12	0	0	0	0	505	512	0	0	
13	0	0	0	0	506	510	0	0	
14	0	0	0	0	512	512	0	0	
15	0	0	0	0	510	511	0	0	
0	0	0	0	0	507	510	0	0	
1	0	0	0	0	508	509	0	0	
2	0	0	0	0	506	508	0	0	
3	0	0	0	0	506	510	0	0	
4	0	0	0	0	509	511	0	0	
5	0	0	0	0	505	512	0	0	
6	0	0	0	0	504	512	0	0	
7	0	0	0	0	509	510	0	0	
8	0	0	0	0	510	511	0	0	
9	0	0	0	0	514	510	0	0	
10	0	0	0	0	512	510	0	0	
11	0	0	0	0	512	511	0	0	
12	0	0	0	0	512	511	0	0	
13	0	0	0	0	511	513	0	0	
14	0	0	0	0	510	511	0	0	
15	0	0	0	0	509	510	0	0	
0	0	0	0	0	509	510	0	0	
1	0	0	0	0	504	509	0	0	
2	0	0	0	0	507	511	0	0	
3	0	0	0	0	505	511	0	0	
4	0	0	0	0	502	510	0	0	
5	0	0	0	0	505	508	0	0	
6	0	0	0	0	504	510	0	0	
7	0	0	0	0	507	508	0	0	
8	0	0	0	0	507	509	0	0	
9	0	0	0	0	508	509	0	0	
10	0	0	0	0	510	512	0	0	
11	0	0	0	0	513	510	0	0	
12	0	0	0	0	512	511	0	0	
13	0	0	0	0	512	513	0	0	
14	0	0	0	0	513	510	0	0	
15	0	0	0	0	512	511	0	0	
0	0	0	0	0	512	512	0	0	
1	0	0	0	0	510	512	0	0	
2	0	0	0	0	508	510	0	0	
3	0	0	0	0	508	510	0	0	
4	0	0	0	0	505	509	0	0	
5	0	0	0	0	505	510	0	0	
6	0	0	0	0	507	511	0	0	
7	0	0	0	0	505	511	0	0	
8	0	0	0	0	507	511	0	0	
9	0	0	0	0	505	512	0	0	
10	0	0	0	0	504	512	0	0	
11	0	0	0	0	505	510	0	0	
12	0	0	0	0	507	510	0	0	
13	0	0	0	0	509	511	0	0	
14	0	0	0	0	511	512	0	0	
15	0	0	0	0	513	511	0	0	
0	0	0	0	0	514	509	0	0	
1	0	0	0	0	513	510	0	0	
2	0	0	0	0	513	510	0	0	
3	0	0	0	0	512	511	0	0	
4	0	0	0	0	510	511	0	0	
5	0	0	0	0	510	511	0	0	
6	0	0	0	0	505	511	0	0	
7	0	0	0	0	503	512	0	0	
8	0	0	0	0	504	511	0	0	
9	0	0	0	0	506	510	0	0	
10	0	0	0	0	510	511	0	0	
11	0	0	0	0	507	510	0	0	
12	0	0	0	0	505	510	0	0	
13	0	0	0	0	504	508	0	0	
14	0	0	0	0	505	509	0	0	
15	0	0	0	0	506	512	0	0	
0	0	0	0	0	510	511	0	0	
1	0	0	0	0	508	511	0	0	
2	0	0	0	0	509	509	0	0	
3	0	0	0	0	511	511	0	0	
4	0	0	0	0	513	511	0	0	
5	0	0	0	0	512	511	0	0	
6	0	0	0	0	512	510	0	0	
7	0	0	0	0	512	512	0	0	
8	0	0	0	0	512	513	0	0	
9	0	0	0	0	510	511	0	0	
10	0	0	0	0	510	511	0	0	
11	0	0	0	0	508	510	0	0	
12	0	0	0	0	506	512	0	0	
13	0	0	0	0	507	510	0	0	
14	0	0	0	0	505	512	0	0	
15	0	0	0	0	504	510	0	0	
0	0	0	0	0	504	511	0	0	
1	0	0	0	0	505	513	0	0	
2	0	0	0	0	506	510	0	0	
3	0	0	0	0	507	508	0	0	
4	0	0	0	0	509	511	0	0	
5	0	0	0	0	511	511	0	0	
6	0	0	0	0	511	511	0	0	
7	0	0	0	0	510	510	0	0	
8	0	0	0	0	510	510	0	0	
9	0	0	0	0	511	510	0	0	
10	0	0	0	0	515	510	0	0	
11	0	0	0	0	513	512	0	0	
12	0	0	0	0	509	511	0	0	
13	0	0	0	0	511	511	0	0	
14	0	0	0	0	510	510	0	0	
15	0	0	0	0	507	511	0	0	
0	0	0	0	0	507	511	0	0	
1	0	0	0	0	507	511	0	0	
2	0	0	0	0	504	512	0	0	
3	0	0	0	0	505	509	0	0	
4	0	0	0	0	508	511	0	0	
5	0	0	0	0	509	509	0	0	
6	0	0	0	0	505	509	0	0	
7	0	0	0	0	503	508	0	0	
8	0	0	0	0	502	509	0	0	
9	0	0	0	0	504	511	0	0	
10	0	0	0	0	510	512	0	0	
11	0	0	0	0	512	511	0	0	
12	0	0	0	0	515	513	0	0	
13	0	0	0	0	513	511	0	0	
14	0	0	0	0	513	510	0	0	
15	0	0	0	0	513	511	0	0	
0	0	0	0	0	511	510	0	0	
1	0	0	0	0	510	509	0	0	
2	0	0	0	0	507	509	0	0	
3	0	0	0	0	507	512	0	0	
4	0	0	0	0	506	511	0	0	
5	0	0	0	0	505	510	0	0	
6	0	0	0	0	509	509	0	0	
7	0	0	0	0	507	511	0	0	
8	0	0	0	0	506	510	0	0	
9	0	0	0	0	508	508	0	0	
10	0	0	0	0	508	509	0	0	
11	0	0	0	0	508	509	0	0	
12	0	0	0	0	504	511	0	0	
13	0	0	0	0	505	512	0	0	
14	0	0	0	0	509	511	0	0	
15	0	0	0	0	511	510	0	0	
0	0	0	0	0	513	513	0	0	
1	0	0	0	0	511	509	0	0	
2	0	0	0	0	512	510	0	0	
3	0	0	0	0	515	512	0	0	
4	0	0	0	0	513	511	0	0	
5	0	0	0	0	510	509	0	0	
6	0	0	0	0	509	510	0	0	
7	0	0	0	0	507	510	0	0	
8	0	0	0	0	504	514	0	0	
9	0	0	0	0	505	510	0	0	
10	0	0	0	0	508	510	0	0	
11	0	0	0	0	507	508	0	0	
12	0	0	0	0	503	506	0	0	
13	0	0	0	0	500	510	0	0	
14	0	0	0	0	504	509	0	0	
15	0	0	0	0	504	510	0	0	
0	0	0	0	0	509	511	0	0	
1	0	0	0	0	513	510	0	0	
2	0	0	0	0	513	513	0	0	
3	0	0	0	0	513	513	0	0	
4	0	0	0	0	511	511	0	0	
5	0	0	0	0	512	511	0	0	
6	0	0	0	0	512	512	0	0	
7	0	0	0	0	512	510	0	0	
8	0	0	0	0	511	512	0	0	
9	0	0	0	0	511	511	0	0	
10	0	0	0	0	509	511	0	0	
11	0	0	0	0	511	510	0	0	
12	0	0	0	0	507	513	0	0	
13	0	0	0	0	507	509	0	0	
14	0	0	0	0	507	512	0	0	
15	0	0	0	0	505	510	0	0	
0	0	0	0	0	504	509	0	0	
1	0	0	0	0	505	510	0	0	
2	0	0	0	0	503	511	0	0	
3	0	0	0	0	506	511	0	0	
4	0	0	0	0	510	511	0	0	
5	0	0	0	0	510	507	0	0	
6	0	0	0	0	510	509	0	0	
7	0	0	0	0	511	511	0	0	
8	0	0	0	0	511	509	0	0	
9	0	0	0	0	512	512	0	0	
10	0	0	0	0	511	512	0	0	
11	0	0	0	0	511	511	0	0	
12	0	0	0	0	515	510	0	0	
13	0	0	0	0	513	510	0	0	
14	0	0	0	0	507	510	0	0	
15	0	0	0	0	507	511	0	0	
0	0	0	0	0	503	511	0	0	
1	0	0	0	0	504	510	0	0	
2	0	0	0	0	506	510	0	0	
3	0	0	0	0	508	512	0	0	
4	0	0	0	0	509	511	0	0	
5	0	0	0	0	506	512	0	0	
6	0	0	0	0	507	512	0	0	
7	0	0	0	0	508	511	0	0	
8	0	0	0	0	509	510	0	0	
9	0	0	0	0	505	509	0	0	
10	0	0	0	0	510	510	0	0	
11	0	0	0	0	512	510	0	0	
12	0	0	0	0	512	511	0	0	
13	0	0	0	0	510	512	0	0	
14	0	0	0	0	508	511	0	0	
15	0	0	0	0	506	513	0	0	
0	0	0	0	0	508	509	0	0	
1	0	0	0	0	513	509	0	0	
2	0	0	0	0	511	510	0	0	
3	0	0	0	0	507	510	0	0	
4	0	0	0	0	504	510	0	0	
5	0	0	0	0	504	511	0	0	
6	0	0	0	0	508	509	0	0	
7	0	0	0	0	508	509	0	0	
8	0	0	0	0	507	509	0	0	
9	0	0	0	0	507	511	0	0	
10	0	0	0	0	506	509	0	0	
11	0	0	0	0	510	510	0	0	
12	0	0	0	0	508	511	0	0	
13	0	0	0	0	511	510	0	0	
14	0	0	0	0	514	509	0	0	
15	0	0	0	0	511	509	0	0	
0	0	0	0	0	513	511	0	0	
1	0	0	0	0	511	511	0	0	
2	0	0	0	0	514	512	0	0	
3	0	0	0	0	512	513	0	0	
4	0	0	0	0	512	510	0	0	
5	0	0	0	0	509	510	0	0	
6	0	0	0	0	506	511	0	0	
7	0	0	0	0	507	508	0	0	
8	0	0	0	0	501	510	0	0	
9	0	0	0	0	500	509	0	0	
10	0	0	0	0	504	509	0	0	
11	0	0	0	0	504	511	0	0	
12	0	0	0	0	508	511	0	0	
13	0	0	0	0	510	512	0	0	
14	0	0	0	0	506	510	0	0	
15	0	0	0	0	507	509	0	0	
0	0	0	0	0	509	510	0	0	
1	0	0	0	0	510	512	0	0	
2	0	0	0	0	508	512	0	0	
3	0	0	0	0	509	511	0	0	
4	0	0	0	0	510	510	0	0	
5	0	0	0	0	512	511	0	0	
6	0	0	0	0	514	510	0	0	
7	0	0	0	0	512	511	0	0	
8	0	0	0	0	512	508	0	0	
9	0	0	0	0	512	511	0	0	
10	0	0	0	0	511	512	0	0	
11	0	0	0	0	510	512	0	0	
12	0	0	0	0	506	511	0	0	
13	0	0	0	0	504	511	0	0	
14	0	0	0	0	505	511	0	0	
15	0	0	0	0	507	511	0	0	
0	0	0	0	0	506	510	0	0	
1	0	0	0	0	506	510	0	0	
2	0	0	0	0	506	512	0	0	
3	0	0	0	0	505	511	0	0	
4	0	0	0	0	504	510	0	0	
5	0	0	0	0	509	509	0	0	
6	0	0	0	0	510	511	0	0	
7	0	0	0	0	514	510	0	0	
8	0	0	0	0	515	512	0	0	
9	0	0	0	0	508	510	0	0	
10	0	0	0	0	508	510	0	0	
11	0	0	0	0	510	510	0	0	
12	0	0	0	0	515	511	0	0	
13	0	0	0	0	513	510	0	0	
14	0	0	0	0	511	513	0	0	
15	0	0	0	0	509	511	0	0	
0	0	0	0	0	507	513	0	0	
1	0	0	0	0	506	511	0	0	
2	0	0	0	0	508	510	0	0	
3	0	0	0	0	499	510	0	0	
4	0	0	0	0	491	508	0	0	
5	0	0	0	0	504	505	0	0	
6	0	0	0	0	507	507	0	0	
7	0	0	0	0	510	508	0	0	
8	0	0	0	0	511	508	0	0	
9	0	0	0	0	513	510	0	0	
10	0	0	0	0	513	512	0	0	
11	0	0	0	0	514	515	0	0	
12	0	0	0	0	513	514	0	0	
13	0	0	0	0	513	515	0	0	
14	0	0	0	0	517	514	0	0	
15	0	0	0	0	521	514	0	0	
0	0	0	0	0	516	510	0	0	
1	0	0	0	0	512	510	0	0	
2	0	0	0	0	513	509	0	0	
3	0	0	0	0	513	508	0	0	
4	0	0	0	0	508	507	0	0	
5	0	0	0	0	502	508	0	0	
6	0	0	0	0	491	510	0	0	
7	0	0	0	0	479	510	0	0	
8	0	0	0	0	478	506	0	0	
9	0	0	0	0	495	508	0	0	
10	0	0	0	0	517	510	0	0	
11	0	0	0	0	521	513	0	0	
12	0	0	0	0	517	511	0	0	
13	0	0	0	0	519	512	0	0	
14	0	0	0	0	520	514	0	0	
15	0	0	0	0	526	513	0	0	
0	0	0	0	0	516	512	0	0	
1	0	0	0	0	498	504	0	0	
2	0	0	0	0	499	504	0	0	
3	0	0	0	0	508	510	0	0	
4	0	0	0	0	505	514	0	0	
5	0	0	0	0	507	516	0	0	
6	0	0	0	0	515	512	0	0	
7	0	0	0	0	515	512	0	0	
8	0	0	0	0	515	508	0	0	
9	0	0	0	0	518	509	0	0	
10	0	0	0	0	516	515	0	0	
11	0	0	0	0	509	511	0	0	
12	0	0	0	0	490	508	0	0	
13	0	0	0	0	480	503	0	0	
14	0	0	0	0	488	499	0	0	
15	0	0	0	0	499	503	0	0	
0	0	0	0	0	515	511	0	0	
1	0	0	0	0	519	519	0	0	
2	0	0	0	0	523	521	0	0	
3	0	0	0	0	519	516	0	0	
4	0	0	0	0	518	511	0	0	
5	0	0	0	0	522	512	0	0	
6	0	0	0	0	512	514	0	0	
7	0	0	0	0	499	508	0	0	
8	0	0	0	0	494	508	0	0	
9	0	0	0	0	493	511	0	0	
10	0	0	0	0	487	507	0	0	
11	0	0	0	0	506	508	0	0	
12	0	0	0	0	526	513	0	0	
13	0	0	0	0	531	524	0	0	
14	0	0	0	0	519	517	0	0	
15	0	0	0	0	506	504	0	0	
0	0	0	0	0	504	496	0	0	
1	0	0	0	0	507	504	0	0	
2	0	0	0	0	505	513	0	0	
3	0	0	0	0	510	524	0	0	
4	0	0	0	0	501	515	0	0	
5	0	0	0	0	503	508	0	0	
6	0	0	0	0	516	515	0	0	
7	0	0	0	0	515	518	0	0	
8	0	0	0	0	511	511	0	0	
9	0	0	0	0	512	502	0	0	
10	0	0	0	0	509	502	0	0	
11	0	0	0	0	519	508	0	0	
12	0	0	0	0	524	511	0	0	
13	0	0	0	0	516	512	0	0	
14	0	0	0	0	508	515	0	0	
15	0	0	0	0	504	512	0	0	
0	0	0	0	0	491	500	13	0	
1	0	0	0	0	497	501	13	0	
2	0	0	0	0	515	505	12	0	
3	0	0	0	0	515	512	33	0	
4	0	0	0	0	504	506	40	0	
5	0	0	0	0	499	497	42	0	
6	0	0	0	0	516	497	44	0	
7	0	0	0	0	527	510	46	0	
8	0	0	0	0	527	516	45	0	
9	0	0	0	0	491	511	44	0	
10	0	0	0	0	494	516	46	0	
11	0	0	0	0	504	525	46	0	
12	0	0	0	0	495	529	47	0	
13	0	0	0	0	505	527	51	0	
14	0	0	0	0	498	517	52	0	
15	0	0	0	0	507	516	54	0	
0	0	0	0	0	520	508	56	0	
1	0	0	0	0	514	499	60	0	
2	0	0	0	0	485	495	62	0	
3	0	0	0	0	480	490	63	0	
4	0	0	0	0	511	498	65	0	
5	0	0	0	0	520	503	67	0	
6	0	0	0	0	531	511	68	0	
7	0	0	0	0	512	507	71	0	
8	0	0	0	0	500	515	69	0	
9	0	0	0	0	517	529	71	0	
10	0	0	0	0	527	521	73	0	
11	0	0	0	0	539	517	73	0	
12	0	0	0	0	517	510	76	0	
13	0	0	0	0	475	539	79	0	
14	0	0	0	0	481	560	80	0	
15	0	0	0	0	522	527	82	0	
0	0	0	0	0	524	496	86	0	
1	0	0	0	0	504	478	87	0	
2	0	0	0	0	525	483	89	0	
3	0	0	0	0	527	504	98	0	
4	0	0	0	0	535	492	102	0	
5	0	0	0	0	519	488	102	0	
6	0	0	0	0	452	514	106	0	
7	0	0	0	0	438	513	108	0	
8	0	0	0	0	450	513	109	0	
9	0	0	0	0	490	527	111	0	
10	0	0	0	0	539	527	114	0	
11	0	0	0	0	527	500	118	0	
12	0	0	0	0	515	504	121	0	
13	0	0	0	0	521	513	126	0	
14	0	0	0	0	527	525	129	0	
15	0	0	0	0	519	518	137	0	
0	0	0	0	0	511	516	138	0	
1	0	0	0	0	510	507	138	0	
2	0	0	0	0	519	519	140	0	
3	0	0	0	0	521	518	140	0	
4	0	0	0	0	504	527	143	0	
5	0	0	0	0	501	510	149	0	
6	0	0	0	0	515	504	151	0	
7	0	0	0	0	526	527	151	0	
8	0	0	0	0	522	502	152	0	
9	0	0	0	0	530	487	155	0	
10	0	0	0	0	524	471	154	0	
11	0	0	0	0	502	480	159	0	
12	0	0	0	0	491	508	161	0	
13	0	0	0	0	487	522	164	0	
14	0	0	0	0	495	484	166	0	
15	0	0	0	0	496	489	168	0	
0	0	0	0	0	507	511	171	0	
1	0	0	0	0	506	492	175	0	
2	0	0	0	0	506	489	177	0	
3	0	0	0	0	510	524	183	0	
4	0	0	0	0	503	530	184	0	
5	0	0	0	0	510	535	190	0	
6	0	0	0	0	525	541	192	0	
7	0	0	0	0	537	517	195	0	
8	0	0	0	0	532	525	198	0	
9	0	0	0	0	527	547	203	0	
10	0	0	0	0	539	557	203	0	
11	0	0	0	0	524	535	207	0	
12	0	0	0	0	476	509	209	0	
13	0	0	0	0	470	495	216	0	
14	0	0	0	0	488	510	220	0	
15	0	0	0	0	521	513	220	0	
0	0	0	0	0	523	459	221	0	
1	0	0	0	0	482	447	222	0	
2	0	0	0	0	465	505	224	0	
3	0	0	0	0	503	543	227	0	
4	0	0	0	0	539	529	226	0	
5	0	0	0	0	518	532	228	0	
6	0	0	0	0	491	540	231	0	
7	0	0	0	0	513	536	235	0	
8	0	0	0	0	491	514	238	0	
9	0	0	0	0	466	471	241	0	
10	0	0	0	0	487	459	244	0	
11	0	0	0	0	508	476	243	0	
12	0	0	0	0	536	504	244	0	
13	0	0	0	0	500	524	248	0	
14	0	0	0	0	485	488	254	0	
15	0	0	0	0	532	482	262	0	
0	0	0	0	0	556	486	262	0	
1	0	0	0	0	534	499	268	0	
2	0	0	0	0	516	514	271	0	
3	0	0	0	0	478	520	270	0	
4	0	0	0	0	494	549	270	0	
5	0	0	0	0	489	559	271	0	
6	0	0	0	0	494	511	272	0	
7	0	0	0	0	542	481	271	0	
8	0	0	0	0	543	519	272	0	
9	0	0	0	0	545	551	275	0	
10	0	0	0	0	537	543	275	0	
11	0	0	0	0	508	539	277	0	
12	0	0	0	0	468	514	279	0	
13	0	0	0	0	433	505	285	0	
14	0	0	0	0	453	490	285	0	
15	0	0	0	0	505	510	287	0	
0	0	0	0	0	553	527	288	0	
1	0	0	0	0	547	506	291	0	
2	0	0	0	0	532	496	296	0	
3	0	0	0	0	525	512	295	0	
4	0	0	0	0	510	487	298	0	
5	0	0	0	0	508	485	297	0	
6	0	0	0	0	519	510	299	0	
7	0	0	0	0	532	523	299	0	
8	0	0	0	0	533	516	301	0	
9	0	0	0	0	512	504	300	0	
10	0	0	0	0	490	486	301	0	
11	0	0	0	0	447	481	302	0	
12	0	0	0	0	472	480	303	0	
13	0	0	0	0	512	493	304	0	
14	0	0	0	0	504	492	304	0	
15	0	0	0	0	518	522	307	0	
0	0	0	0	0	525	549	307	0	
1	0	0	0	0	519	523	304	0	
2	0	0	0	0	534	529	306	0	
3	0	0	0	0	527	550	308	0	
4	0	0	0	0	499	543	309	0	
5	0	0	0	0	483	529	308	0	
6	0	0	0	0	510	515	308	0	
7	0	0	0	0	540	526	307	0	
8	0	0	0	0	542	502	308	0	
9	0	0	0	0	551	494	307	0	
10	0	0	0	0	536	499	307	0	
11	0	0	0	0	491	483	305	0	
12	0	0	0	0	420	484	305	0	
13	0	0	0	0	462	487	306	0	
14	0	0	0	0	458	511	306	0	
15	0	0	0	0	461	487	308	0	
0	0	0	0	0	475	496	308	0	
1	0	0	0	0	499	514	309	0	
2	0	0	0	0	508	509	309	0	
3	0	0	0	0	527	538	310	0	
4	0	0	0	0	535	558	308	0	
5	0	0	0	0	528	524	308	0	
6	0	0	0	0	526	524	308	0	
7	0	0	0	0	542	524	307	0	
8	0	0	0	0	524	538	305	0	
9	0	0	0	0	495	508	303	0	
10	0	0	0	0	524	515	304	0	
11	0	0	0	0	550	515	303	0	
12	0	0	0	0	519	483	303	0	
13	0	0	0	0	483	451	304	0	
14	0	0	0	0	492	488	304	0	
15	0	0	0	0	514	532	303	0	
0	0	0	0	0	534	546	303	0	
1	0	0	0	0	532	544	304	0	
2	0	0	0	0	524	531	304	0	
3	0	0	0	0	522	522	305	0	
4	0	0	0	0	500	484	305	0	
5	0	0	0	0	479	499	305	0	
6	0	0	0	0	452	474	306	0	
7	0	0	0	0	465	455	306	0	
8	0	0	0	0	506	507	305	0	
9	0	0	0	0	520	531	308	0	
10	0	0	0	0	539	538	308	0	
11	0	0	0	0	541	533	307	0	
12	0	0	0	0	557	518	308	0	
13	0	0	0	0	522	498	309	0	
14	0	0	0	0	496	492	310	0	
15	0	0	0	0	464	514	311	0	
0	0	0	0	0	433	508	312	0	
1	0	0	0	0	478	495	313	0	
2	0	0	0	0	546	530	312	0	
3	0	0	0	0	578	523	312	0	
4	0	0	0	0	565	515	314	0	
5	0	0	0	0	526	499	314	0	
6	0	0	0	0	484	478	314	0	
7	0	0	0	0	455	496	316	0	
8	0	0	0	0	461	508	316	0	
9	0	0	0	0	458	510	315	0	
10	0	0	0	0	475	499	316	0	
11	0	0	0	0	512	542	318	0	
12	0	0	0	0	538	519	318	0	
13	0	0	0	0	544	513	319	0	
14	0	0	0	0	534	502	319	0	
15	0	0	0	0	510	492	319	0	
0	0	0	0	0	494	516	321	0	
1	0	0	0	0	495	542	319	0	
2	0	0	0	0	496	529	321	0	
3	0	0	0	0	531	520	320	0	
4	0	0	0	0	527	526	321	0	
5	0	0	0	0	519	532	320	0	
6	0	0	0	0	519	515	321	0	
7	0	0	0	0	513	478	321	0	
8	0	0	0	0	510	480	321	0	
9	0	0	0	0	519	495	320	0	
10	0	0	0	0	516	510	320	0	
11	0	0	0	0	526	526	320	0	
12	0	0	0	0	531	514	320	0	
13	0	0	0	0	512	513	320	0	
14	0	0	0	0	497	518	320	0	
15	0	0	0	0	503	519	321	0	
0	0	0	0	0	500	495	321	0	
1	0	0	0	0	524	497	321	0	
2	0	0	0	0	524	528	320	0	
3	0	0	0	0	526	550	320	0	
4	0	0	0	0	536	544	320	0	
5	0	0	0	0	533	540	321	0	
6	0	0	0	0	412	493	320	0	
7	0	0	0	0	395	445	319	0	
8	0	0	0	0	457	455	318	0	
9	0	0	0	0	485	469	318	0	
10	0	0	0	0	508	496	317	0	
11	0	0	0	0	537	482	316	0	
12	0	0	0	0	522	457	316	0	
13	0	0	0	0	501	502	316	0	
14	0	0	0	0	510	508	315	0	
15	0	0	0	0	532	545	316	0	
0	0	0	0	0	526	600	315	0	
1	0	0	0	0	521	605	315	0	
2	0	0	0	0	511	543	315	0	
3	0	0	0	0	516	508	314	0	
4	0	0	0	0	550	511	313	0	
5	0	0	0	0	548	525	312	0	
6	0	0	0	0	532	494	313	0	
7	0	0	0	0	518	483	312	0	
8	0	0	0	0	519	487	310	0	
9	0	0	0	0	480	497	310	0	
10	0	0	0	0	452	504	308	0	
11	0	0	0	0	499	504	308	0	
12	0	0	0	0	528	513	307	0	
13	0	0	0	0	523	507	307	0	
14	0	0	0	0	517	508	306	0	
15	0	0	0	0	503	519	307	0	
0	0	0	0	0	476	519	306	0	
1	0	0	0	0	470	512	306	0	
2	0	0	0	0	502	495	307	0	
3	0	0	0	0	537	494	305	0	
4	0	0	0	0	541	509	305	0	
5	0	0	0	0	579	525	305	0	
6	0	0	0	0	568	524	304	0	
7	0	0	0	0	527	529	305	0	
8	0	0	0	0	493	531	305	0	
9	0	0	0	0	457	532	305	0	
10	0	0	0	0	374	525	305	0	
11	0	0	0	0	348	489	305	0	
12	0	0	0	0	444	479	305	0	
13	0	0	0	0	544	530	306	0	
14	0	0	0	0	595	527	305	0	
15	0	0	0	0	600	511	305	0	
0	0	0	0	0	558	549	305	0	
1	0	0	0	0	528	529	305	1	
2	0	0	0	0	520	511	305	0	
3	0	0	0	0	501	463	305	0	
4	0	0	0	0	519	417	305	0	
5	0	0	0	0	546	462	302	1	
6	0	0	0	0	519	468	303	3	
7	0	0	0	0	508	501	303	5	
8	0	0	0	0	527	540	303	7	
9	0	0	0	0	505	513	303	9	
10	0	0	0	0	419	505	302	11	
11	0	0	0	0	395	512	303	7	
12	0	0	0	0	455	504	304	7	
13	0	0	0	0	501	515	303	6	
14	0	0	0	0	540	510	303	7	
15	0	0	0	0	561	520	302	8	
0	0	0	0	0	566	563	301	11	
1	0	0	0	0	531	565	300	14	
2	0	0	0	0	531	514	300	40	
3	0	0	0	0	536	480	300	39	
4	0	0	0	0	505	481	300	40	
5	0	0	0	0	518	521	300	40	
6	0	0	0	0	530	542	299	41	
7	0	0	0	0	500	547	297	40	
8	0	0	0	0	471	531	297	37	
9	0	0	0	0	481	501	295	36	
10	0	0	0	0	510	465	295	37	
11	0	0	0	0	494	460	295	37	
12	0	0	0	0	474	487	295	43	
13	0	0	0	0	515	503	294	45	
14	0	0	0	0	519	512	295	42	
15	0	0	0	0	514	528	295	46	
0	0	0	0	0	481	528	295	43	
1	0	0	0	0	494	519	294	46	
2	0	0	0	0	516	533	294	48	
3	0	0	0	0	515	528	293	49	
4	0	0	0	0	537	523	293	51	
5	0	0	0	0	551	512	292	51	
6	0	0	0	0	530	498	293	52	
7	0	0	0	0	505	503	292	51	
8	0	0	0	0	517	518	292	51	
9	0	0	0	0	513	528	292	48	
10	0	0	0	0	466	498	292	50	
11	0	0	0	0	496	502	292	50	
12	0	0	0	0	507	526	292	48	
13	0	0	0	0	522	513	292	51	
14	0	0	0	0	528	522	292	61	
15	0	0	0	0	546	532	291	61	
0	0	0	0	0	536	510	291	61	
1	0	0	0	0	535	512	290	62	
2	0	0	0	0	540	509	290	62	
3	0	0	0	0	549	513	291	63	
4	0	0	0	0	428	449	290	64	
5	0	0	0	0	414	434	290	67	
6	0	0	0	0	438	508	290	65	
7	0	0	0	0	460	510	290	65	
8	0	0	0	0	443	539	290	68	
9	0	0	0	0	456	544	290	69	
10	0	0	0	0	522	540	290	70	
11	0	0	0	0	548	516	289	69	
12	0	0	0	0	550	483	290	71	
13	0	0	0	0	543	494	290	72	
14	0	0	0	0	562	490	289	71	
15	0	0	0	0	601	516	288	70	
0	0	0	0	0	588	537	288	71	
1	0	0	0	0	553	556	288	69	
2	0	0	0	0	527	539	288	70	
3	0	0	0	0	462	524	289	69	
4	0	0	0	0	374	480	288	68	
5	0	0	0	0	405	442	289	67	
6	0	0	0	0	466	480	289	67	
7	0	0	0	0	494	540	290	69	
8	0	0	0	0	536	513	289	68	
9	0	0	0	0	561	486	289	68	
10	0	0	0	0	544	511	287	71	
11	0	0	0	0	515	497	287	71	
12	0	0	0	0	488	503	287	71	
13	0	0	0	0	515	518	287	70	
14	0	0	0	0	533	520	287	71	
15	0	0	0	0	527	529	285	71	
0	0	0	0	0	546	524	286	71	
1	0	0	0	0	529	519	284	72	
2	0	0	0	0	504	510	284	71	
3	0	0	0	0	491	508	284	71	
4	0	0	0	0	481	492	283	71	
5	0	0	0	0	486	488	284	71	
6	0	0	0	0	480	510	283	71	
7	0	0	0	0	500	533	283	70	
8	0	0	0	0	526	543	282	67	
9	0	0	0	0	522	529	281	68	
10	0	0	0	0	481	512	281	68	
11	0	0	0	0	478	499	280	70	
12	0	0	0	0	515	510	280	71	
13	0	0	0	0	536	510	280	71	
14	0	0	0	0	551	508	280	71	
15	0	0	0	0	546	511	280	71	
0	0	0	0	0	518	510	280	73	
1	0	0	0	0	537	518	280	73	
2	0	0	0	0	521	514	280	73	
3	0	0	0	0	478	504	280	74	
4	0	0	0	0	478	496	280	74	
5	0	0	0	0	488	500	280	72	
6	0	0	0	0	487	512	280	72	
7	0	0	0	0	488	509	281	75	
8	0	0	0	0	509	519	281	77	
9	0	0	0	0	510	509	281	76	
10	0	0	0	0	491	511	282	77	
11	0	0	0	0	508	540	282	79	
12	0	0	0	0	525	532	282	81	
13	0	0	0	0	531	520	282	79	
14	0	0	0	0	532	512	282	80	
15	0	0	0	0	532	500	282	80	
0	0	0	0	0	515	491	282	80	
1	0	0	0	0	499	485	283	80	
2	0	0	0	0	495	502	282	80	
3	0	0	0	0	480	513	282	82	
4	0	0	0	0	498	523	282	82	
5	0	0	0	0	523	519	281	83	
6	0	0	0	0	516	505	282	83	
7	0	0	0	0	504	519	282	84	
8	0	0	0	0	516	516	283	84	
9	0	0	0	0	485	484	282	87	
10	0	0	0	0	511	468	282	86	
11	0	0	0	0	520	500	283	81	
12	0	0	0	0	520	536	283	82	
13	0	0	0	0	531	529	282	86	
14	0	0	0	0	512	503	282	82	
15	0	0	0	0	497	492	281	81	
0	0	0	0	0	505	515	281	85	
1	0	0	0	0	478	510	281	85	
2	0	0	0	0	435	515	282	82	
3	0	0	0	0	465	526	282	85	
4	0	0	0	0	514	511	282	82	
5	0	0	0	0	548	513	283	84	
6	0	0	0	0	565	519	283	85	
7	0	0	0	0	582	538	282	82	
8	0	0	0	0	555	556	283	83	
9	0	0	0	0	536	534	283	82	
10	0	0	0	0	518	493	283	82	
11	0	0	0	0	467	465	281	80	
12	0	0	0	0	416	483	282	80	
13	0	0	0	0	448	475	281	81	
14	0	0	0	0	458	467	282	82	
15	0	0	0	0	458	518	281	81	
0	0	0	0	0	513	525	280	82	
1	0	0	0	0	540	516	280	81	
2	0	0	0	0	543	519	280	79	
3	0	0	0	0	545	519	279	80	
4	0	0	0	0	541	512	279	79	
5	0	0	0	0	537	495	279	77	
6	0	0	0	0	526	519	279	79	
7	0	0	0	0	525	532	278	77	
8	0	0	0	0	494	544	278	78	
9	0	0	0	0	500	539	278	79	
10	0	0	0	0	515	515	277	81	
11	0	0	0	0	498	510	277	80	
12	0	0	0	0	496	498	276	79	
13	0	0	0	0	523	491	275	80	
14	0	0	0	0	511	487	275	81	
15	0	0	0	0	497	494	275	83	
0	0	0	0	0	511	519	275	81	
1	0	0	0	0	513	519	274	85	
2	0	0	0	0	493	507	273	85	
3	0	0	0	0	472	498	274	83	
4	0	0	0	0	484	510	274	80	
5	0	0	0	0	497	521	272	80	
6	0	0	0	0	510	519	272	81	
7	0	0	0	0	521	516	272	80	
8	0	0	0	0	520	513	271	81	
9	0	0	0	0	518	507	271	81	
10	0	0	0	0	516	514	270	81	
11	0	0	0	0	526	514	270	79	
12	0	0	0	0	529	517	269	80	
13	0	0	0	0	545	514	269	79	
14	0	0	0	0	559	524	268	78	
15	0	0	0	0	543	514	268	79	
0	0	0	0	0	508	502	267	79	
1	0	0	0	0	487	508	267	82	
2	0	0	0	0	456	490	267	81	
3	0	0	0	0	422	498	267	80	
4	0	0	0	0	456	509	267	81	
5	0	0	0	0	497	506	266	82	
6	0	0	0	0	516	501	266	85	
7	0	0	0	0	516	506	267	90	
8	0	0	0	0	524	520	265	96	
9	0	0	0	0	510	522	267	96	
10	0	0	0	0	535	527	266	96	
11	0	0	0	0	533	515	266	92	
12	0	0	0	0	507	505	266	97	
13	0	0	0	0	500	499	266	91	
14	0	0	0	0	506	500	266	93	
15	0	0	0	0	504	511	267	93	
0	0	0	0	0	506	508	267	92	
1	0	0	0	0	523	518	267	88	
2	0	0	0	0	538	528	267	86	
3	0	0	0	0	538	523	267	88	
4	0	0	0	0	519	525	268	88	
5	0	0	0	0	503	492	268	83	
6	0	0	0	0	486	492	268	85	
7	0	0	0	0	490	503	268	86	
8	0	0	0	0	483	499	268	85	
9	0	0	0	0	515	524	268	89	
10	0	0	0	0	513	537	268	88	
11	0	0	0	0	504	507	268	87	
12	0	0	0	0	508	496	268	87	
13	0	0	0	0	499	494	269	70	
14	0	0	0	0	506	503	268	70	
15	0	0	0	0	510	497	269	66	
0	0	0	0	0	516	506	268	67	
1	0	0	0	0	527	511	268	70	
2	0	0	0	0	498	524	269	70	
3	0	0	0	0	482	523	270	67	
4	0	0	0	0	499	520	271	68	
5	0	0	0	0	524	524	272	66	
6	0	0	0	0	535	530	271	62	
7	0	0	0	0	519	503	272	62	
8	0	0	0	0	513	483	272	62	
9	0	0	0	0	523	508	272	62	
10	0	0	0	0	522	504	272	62	
11	0	0	0	0	500	527	273	60	
12	0	0	0	0	508	527	274	60	
13	0	0	0	0	527	513	274	59	
14	0	0	0	0	513	509	274	60	
15	0	0	0	0	491	513	274	61	
0	0	0	0	0	515	522	274	60	
