# OpenSignals Text File Format. Version 1
# {"20:18:06:13:21:78": {"position": 0, "device": "bitalino_rev", "device name": "20:18:06:13:21:78", "device connection": "BTH20:18:06:13:21:78", "sampling rate": 1000, "resolution": [4, 1, 1, 1, 1, 10, 10, 10, 10], "firmware version": 1281, "comments": "", "keywords": "", "mode": 0, "sync interval": 2, "date": "2023-6-5", "time": "20:43:59.768", "channels": [1, 2, 3, 4], "sensor": ["EMGBITREV", "EMGBITREV", "RAW", "RAW"], "label": ["A1", "A2", "A3", "A4"], "column": ["nSeq", "I1", "I2", "O1", "O2", "A1", "A2", "A3", "A4"], "special": [{}, {}, {}, {}], "digital IO": [0, 0, 1, 1]}}
# EndOfHeader
0	0	0	0	0	509	507	0	0	
1	0	0	0	0	508	506	0	0	
2	0	0	0	0	512	507	0	0	
3	0	0	0	0	513	509	0	0	
4	0	0	0	0	513	509	0	0	
5	0	0	0	0	514	508	0	0	
6	0	0	0	0	516	508	0	0	
7	0	0	0	0	516	506	0	0	
8	0	0	0	0	513	510	0	0	
9	0	0	0	0	515	508	0	0	
10	0	0	0	0	514	509	0	0	
11	0	0	0	0	511	507	0	0	
12	0	0	0	0	509	508	0	0	
13	0	0	0	0	509	508	0	0	
14	0	0	0	0	508	507	0	0	
15	0	0	0	0	508	510	0	0	
0	0	0	0	0	508	510	0	0	
1	0	0	0	0	508	507	0	0	
2	0	0	0	0	508	508	0	0	
3	0	0	0	0	508	506	0	0	
4	0	0	0	0	511	507	0	0	
5	0	0	0	0	510	508	0	0	
6	0	0	0	0	510	508	0	0	
7	0	0	0	0	512	510	0	0	
8	0	0	0	0	512	508	0	0	
9	0	0	0	0	514	509	0	0	
10	0	0	0	0	513	507	0	0	
11	0	0	0	0	514	508	0	0	
12	0	0	0	0	515	508	0	0	
13	0	0	0	0	514	508	0	0	
14	0	0	0	0	514	508	0	0	
15	0	0	0	0	511	508	0	0	
0	0	0	0	0	512	508	0	0	
1	0	0	0	0	510	507	0	0	
2	0	0	0	0	510	508	0	0	
3	0	0	0	0	507	507	0	0	
4	0	0	0	0	507	507	0	0	
5	0	0	0	0	511	509	0	0	
6	0	0	0	0	509	508	0	0	
7	0	0	0	0	509	508	0	0	
8	0	0	0	0	508	508	0	0	
9	0	0	0	0	509	507	0	0	
10	0	0	0	0	509	507	0	0	
11	0	0	0	0	512	507	0	0	
12	0	0	0	0	512	507	0	0	
13	0	0	0	0	513	508	0	0	
14	0	0	0	0	513	510	0	0	
15	0	0	0	0	514	509	0	0	
0	0	0	0	0	515	508	0	0	
1	0	0	0	0	513	508	0	0	
2	0	0	0	0	512	507	0	0	
3	0	0	0	0	513	508	0	0	
4	0	0	0	0	511	508	0	0	
5	0	0	0	0	509	509	0	0	
6	0	0	0	0	509	508	0	0	
7	0	0	0	0	509	508	0	0	
8	0	0	0	0	510	508	0	0	
9	0	0	0	0	508	507	0	0	
10	0	0	0	0	505	511	0	0	
11	0	0	0	0	509	508	0	0	
12	0	0	0	0	511	507	0	0	
13	0	0	0	0	513	508	0	0	
14	0	0	0	0	512	507	0	0	
15	0	0	0	0	513	508	0	0	
0	0	0	0	0	512	510	0	0	
1	0	0	0	0	515	508	0	0	
2	0	0	0	0	513	506	0	0	
3	0	0	0	0	516	505	0	0	
4	0	0	0	0	511	508	0	0	
5	0	0	0	0	514	508	0	0	
6	0	0	0	0	512	508	0	0	
7	0	0	0	0	511	509	0	0	
8	0	0	0	0	511	507	0	0	
9	0	0	0	0	509	509	0	0	
10	0	0	0	0	511	510	0	0	
11	0	0	0	0	508	510	0	0	
12	0	0	0	0	508	508	0	0	
13	0	0	0	0	508	508	0	0	
14	0	0	0	0	508	508	0	0	
15	0	0	0	0	508	508	0	0	
0	0	0	0	0	507	508	0	0	
1	0	0	0	0	510	508	0	0	
2	0	0	0	0	510	508	0	0	
3	0	0	0	0	512	509	0	0	
4	0	0	0	0	513	510	0	0	
5	0	0	0	0	515	509	0	0	
6	0	0	0	0	513	508	0	0	
7	0	0	0	0	514	508	0	0	
8	0	0	0	0	513	509	0	0	
9	0	0	0	0	515	507	0	0	
10	0	0	0	0	512	507	0	0	
11	0	0	0	0	511	507	0	0	
12	0	0	0	0	512	507	0	0	
13	0	0	0	0	511	508	0	0	
14	0	0	0	0	510	508	0	0	
15	0	0	0	0	507	507	0	0	
0	0	0	0	0	509	508	0	0	
1	0	0	0	0	509	508	0	0	
2	0	0	0	0	507	509	0	0	
3	0	0	0	0	509	507	0	0	
4	0	0	0	0	509	509	0	0	
5	0	0	0	0	510	509	0	0	
6	0	0	0	0	512	507	0	0	
7	0	0	0	0	512	508	0	0	
8	0	0	0	0	513	508	0	0	
9	0	0	0	0	512	508	0	0	
10	0	0	0	0	513	508	0	0	
11	0	0	0	0	515	508	0	0	
12	0	0	0	0	514	509	0	0	
13	0	0	0	0	513	507	0	0	
14	0	0	0	0	515	508	0	0	
15	0	0	0	0	511	508	0	0	
0	0	0	0	0	510	508	0	0	
1	0	0	0	0	511	507	0	0	
2	0	0	0	0	509	507	0	0	
3	0	0	0	0	508	506	0	0	
4	0	0	0	0	509	507	0	0	
5	0	0	0	0	510	509	0	0	
6	0	0	0	0	509	510	0	0	
7	0	0	0	0	505	511	0	0	
8	0	0	0	0	506	509	0	0	
9	0	0	0	0	511	507	0	0	
10	0	0	0	0	512	507	0	0	
11	0	0	0	0	512	509	0	0	
12	0	0	0	0	512	507	0	0	
13	0	0	0	0	516	508	0	0	
14	0	0	0	0	515	508	0	0	
15	0	0	0	0	512	509	0	0	
0	0	0	0	0	514	508	0	0	
1	0	0	0	0	513	507	0	0	
2	0	0	0	0	513	507	0	0	
3	0	0	0	0	513	509	0	0	
4	0	0	0	0	512	506	0	0	
5	0	0	0	0	511	508	0	0	
6	0	0	0	0	508	508	0	0	
7	0	0	0	0	508	507	0	0	
8	0	0	0	0	507	506	0	0	
9	0	0	0	0	506	509	0	0	
10	0	0	0	0	507	509	0	0	
11	0	0	0	0	507	509	0	0	
12	0	0	0	0	509	510	0	0	
13	0	0	0	0	509	507	0	0	
14	0	0	0	0	513	508	0	0	
15	0	0	0	0	513	508	0	0	
0	0	0	0	0	512	506	0	0	
1	0	0	0	0	512	508	0	0	
2	0	0	0	0	516	510	0	0	
3	0	0	0	0	513	508	0	0	
4	0	0	0	0	514	508	0	0	
5	0	0	0	0	513	508	0	0	
6	0	0	0	0	513	508	0	0	
7	0	0	0	0	513	508	0	0	
8	0	0	0	0	512	507	0	0	
9	0	0	0	0	509	508	0	0	
10	0	0	0	0	511	509	0	0	
11	0	0	0	0	507	508	0	0	
12	0	0	0	0	508	508	0	0	
13	0	0	0	0	508	508	0	0	
14	0	0	0	0	509	508	0	0	
15	0	0	0	0	509	509	0	0	
0	0	0	0	0	507	508	0	0	
1	0	0	0	0	510	509	0	0	
2	0	0	0	0	512	508	0	0	
3	0	0	0	0	511	508	0	0	
4	0	0	0	0	512	507	0	0	
5	0	0	0	0	512	508	0	0	
6	0	0	0	0	515	508	0	0	
7	0	0	0	0	515	509	0	0	
8	0	0	0	0	514	507	0	0	
9	0	0	0	0	514	509	0	0	
10	0	0	0	0	512	508	0	0	
11	0	0	0	0	513	507	0	0	
12	0	0	0	0	512	508	0	0	
13	0	0	0	0	509	508	0	0	
14	0	0	0	0	507	509	0	0	
15	0	0	0	0	508	508	0	0	
0	0	0	0	0	507	507	0	0	
1	0	0	0	0	508	507	0	0	
2	0	0	0	0	509	508	0	0	
3	0	0	0	0	507	508	0	0	
4	0	0	0	0	510	510	0	0	
5	0	0	0	0	509	510	0	0	
6	0	0	0	0	513	508	0	0	
7	0	0	0	0	512	507	0	0	
8	0	0	0	0	513	508	0	0	
9	0	0	0	0	513	510	0	0	
10	0	0	0	0	515	507	0	0	
11	0	0	0	0	514	507	0	0	
12	0	0	0	0	514	508	0	0	
13	0	0	0	0	514	508	0	0	
14	0	0	0	0	515	510	0	0	
15	0	0	0	0	510	508	0	0	
0	0	0	0	0	512	508	0	0	
1	0	0	0	0	510	508	0	0	
2	0	0	0	0	509	509	0	0	
3	0	0	0	0	507	506	0	0	
4	0	0	0	0	507	507	0	0	
5	0	0	0	0	508	509	0	0	
6	0	0	0	0	508	507	0	0	
7	0	0	0	0	507	508	0	0	
8	0	0	0	0	506	507	0	0	
9	0	0	0	0	510	509	0	0	
10	0	0	0	0	510	508	0	0	
11	0	0	0	0	511	507	0	0	
12	0	0	0	0	513	508	0	0	
13	0	0	0	0	513	509	0	0	
14	0	0	0	0	517	510	0	0	
15	0	0	0	0	515	508	0	0	
0	0	0	0	0	512	508	0	0	
1	0	0	0	0	512	507	0	0	
2	0	0	0	0	512	508	0	0	
3	0	0	0	0	511	508	0	0	
4	0	0	0	0	513	509	0	0	
5	0	0	0	0	511	507	0	0	
6	0	0	0	0	509	509	0	0	
7	0	0	0	0	506	506	0	0	
8	0	0	0	0	508	507	0	0	
9	0	0	0	0	509	509	0	0	
10	0	0	0	0	509	508	0	0	
11	0	0	0	0	511	508	0	0	
12	0	0	0	0	509	507	0	0	
13	0	0	0	0	510	508	0	0	
14	0	0	0	0	510	507	0	0	
15	0	0	0	0	513	508	0	0	
0	0	0	0	0	513	507	0	0	
1	0	0	0	0	514	509	0	0	
2	0	0	0	0	512	505	0	0	
3	0	0	0	0	515	509	0	0	
4	0	0	0	0	515	509	0	0	
5	0	0	0	0	512	509	0	0	
6	0	0	0	0	514	508	0	0	
7	0	0	0	0	511	508	0	0	
8	0	0	0	0	509	508	0	0	
9	0	0	0	0	510	509	0	0	
10	0	0	0	0	510	509	0	0	
11	0	0	0	0	508	509	0	0	
12	0	0	0	0	509	507	0	0	
13	0	0	0	0	507	507	0	0	
14	0	0	0	0	509	507	0	0	
15	0	0	0	0	510	508	0	0	
0	0	0	0	0	509	507	0	0	
1	0	0	0	0	510	507	0	0	
2	0	0	0	0	512	509	0	0	
3	0	0	0	0	511	509	0	0	
4	0	0	0	0	511	511	0	0	
5	0	0	0	0	512	509	0	0	
6	0	0	0	0	515	507	0	0	
7	0	0	0	0	516	507	0	0	
8	0	0	0	0	514	508	0	0	
9	0	0	0	0	514	508	0	0	
10	0	0	0	0	510	508	0	0	
11	0	0	0	0	512	509	0	0	
12	0	0	0	0	512	508	0	0	
13	0	0	0	0	511	506	0	0	
14	0	0	0	0	510	508	0	0	
15	0	0	0	0	508	508	0	0	
0	0	0	0	0	509	508	0	0	
1	0	0	0	0	511	508	0	0	
2	0	0	0	0	508	508	0	0	
3	0	0	0	0	509	506	0	0	
4	0	0	0	0	509	507	0	0	
5	0	0	0	0	508	509	0	0	
6	0	0	0	0	510	508	0	0	
7	0	0	0	0	511	510	0	0	
8	0	0	0	0	514	508	0	0	
9	0	0	0	0	512	508	0	0	
10	0	0	0	0	518	507	0	0	
11	0	0	0	0	514	505	0	0	
12	0	0	0	0	513	508	0	0	
13	0	0	0	0	513	507	0	0	
14	0	0	0	0	512	509	0	0	
15	0	0	0	0	514	510	0	0	
0	0	0	0	0	511	507	0	0	
1	0	0	0	0	510	508	0	0	
2	0	0	0	0	507	508	0	0	
3	0	0	0	0	508	510	0	0	
4	0	0	0	0	507	509	0	0	
5	0	0	0	0	507	506	0	0	
6	0	0	0	0	508	509	0	0	
7	0	0	0	0	509	508	0	0	
8	0	0	0	0	510	507	0	0	
9	0	0	0	0	511	506	0	0	
10	0	0	0	0	511	509	0	0	
11	0	0	0	0	513	509	0	0	
12	0	0	0	0	512	507	0	0	
13	0	0	0	0	511	507	0	0	
14	0	0	0	0	515	509	0	0	
15	0	0	0	0	514	507	0	0	
0	0	0	0	0	515	508	0	0	
1	0	0	0	0	513	507	0	0	
2	0	0	0	0	512	508	0	0	
3	0	0	0	0	510	509	0	0	
4	0	0	0	0	512	509	0	0	
5	0	0	0	0	511	507	0	0	
6	0	0	0	0	510	506	0	0	
7	0	0	0	0	509	507	0	0	
8	0	0	0	0	508	509	0	0	
9	0	0	0	0	510	509	0	0	
10	0	0	0	0	508	510	0	0	
11	0	0	0	0	508	509	0	0	
12	0	0	0	0	511	507	0	0	
13	0	0	0	0	510	507	0	0	
14	0	0	0	0	511	507	0	0	
15	0	0	0	0	514	507	0	0	
0	0	0	0	0	512	509	0	0	
1	0	0	0	0	513	509	0	0	
2	0	0	0	0	513	506	0	0	
3	0	0	0	0	514	507	0	0	
4	0	0	0	0	516	507	0	0	
5	0	0	0	0	512	507	0	0	
6	0	0	0	0	513	508	0	0	
7	0	0	0	0	511	508	0	0	
8	0	0	0	0	510	509	0	0	
9	0	0	0	0	511	509	0	0	
10	0	0	0	0	508	507	0	0	
11	0	0	0	0	508	508	0	0	
12	0	0	0	0	510	509	0	0	
13	0	0	0	0	509	510	0	0	
14	0	0	0	0	507	508	0	0	
15	0	0	0	0	506	508	0	0	
0	0	0	0	0	510	508	0	0	
1	0	0	0	0	512	508	0	0	
2	0	0	0	0	509	509	0	0	
3	0	0	0	0	512	508	0	0	
4	0	0	0	0	513	508	0	0	
5	0	0	0	0	512	509	0	0	
6	0	0	0	0	514	508	0	0	
7	0	0	0	0	513	507	0	0	
8	0	0	0	0	513	507	0	0	
9	0	0	0	0	513	506	0	0	
10	0	0	0	0	513	507	0	0	
11	0	0	0	0	511	510	0	0	
12	0	0	0	0	510	508	0	0	
13	0	0	0	0	510	509	0	0	
14	0	0	0	0	508	508	0	0	
15	0	0	0	0	506	508	0	0	
0	0	0	0	0	506	509	0	0	
1	0	0	0	0	510	508	0	0	
2	0	0	0	0	508	507	0	0	
3	0	0	0	0	510	509	0	0	
4	0	0	0	0	510	509	0	0	
5	0	0	0	0	511	508	0	0	
6	0	0	0	0	511	509	0	0	
7	0	0	0	0	512	510	0	0	
8	0	0	0	0	514	508	0	0	
9	0	0	0	0	514	508	0	0	
10	0	0	0	0	514	510	0	0	
11	0	0	0	0	514	507	0	0	
12	0	0	0	0	513	507	0	0	
13	0	0	0	0	513	510	0	0	
14	0	0	0	0	512	507	0	0	
15	0	0	0	0	512	508	0	0	
0	0	0	0	0	511	506	0	0	
1	0	0	0	0	512	509	0	0	
2	0	0	0	0	510	505	0	0	
3	0	0	0	0	508	509	0	0	
4	0	0	0	0	508	508	0	0	
5	0	0	0	0	509	508	0	0	
6	0	0	0	0	510	507	0	0	
7	0	0	0	0	508	507	0	0	
8	0	0	0	0	510	509	0	0	
9	0	0	0	0	508	508	0	0	
10	0	0	0	0	509	509	0	0	
11	0	0	0	0	512	508	0	0	
12	0	0	0	0	512	507	0	0	
13	0	0	0	0	516	508	0	0	
14	0	0	0	0	513	509	0	0	
15	0	0	0	0	512	508	0	0	
0	0	0	0	0	515	511	0	0	
1	0	0	0	0	514	508	0	0	
2	0	0	0	0	513	506	0	0	
3	0	0	0	0	512	507	0	0	
4	0	0	0	0	511	509	0	0	
5	0	0	0	0	511	509	0	0	
6	0	0	0	0	508	510	0	0	
7	0	0	0	0	510	509	0	0	
8	0	0	0	0	506	506	0	0	
9	0	0	0	0	511	508	0	0	
10	0	0	0	0	509	507	0	0	
11	0	0	0	0	508	508	0	0	
12	0	0	0	0	507	508	0	0	
13	0	0	0	0	507	507	0	0	
14	0	0	0	0	509	508	0	0	
15	0	0	0	0	511	509	0	0	
0	0	0	0	0	513	507	0	0	
1	0	0	0	0	514	507	0	0	
2	0	0	0	0	515	508	0	0	
3	0	0	0	0	514	507	0	0	
4	0	0	0	0	513	508	0	0	
5	0	0	0	0	512	508	0	0	
6	0	0	0	0	511	506	0	0	
7	0	0	0	0	511	510	0	0	
8	0	0	0	0	511	508	0	0	
9	0	0	0	0	509	506	0	0	
10	0	0	0	0	509	510	0	0	
11	0	0	0	0	508	509	0	0	
12	0	0	0	0	510	508	0	0	
13	0	0	0	0	508	508	0	0	
14	0	0	0	0	507	508	0	0	
15	0	0	0	0	508	507	0	0	
0	0	0	0	0	511	508	0	0	
1	0	0	0	0	512	508	0	0	
2	0	0	0	0	512	509	0	0	
3	0	0	0	0	512	509	0	0	
4	0	0	0	0	514	507	0	0	
5	0	0	0	0	512	508	0	0	
6	0	0	0	0	516	508	0	0	
7	0	0	0	0	515	508	0	0	
8	0	0	0	0	515	510	0	0	
9	0	0	0	0	514	505	0	0	
10	0	0	0	0	511	507	0	0	
11	0	0	0	0	512	508	0	0	
12	0	0	0	0	511	507	0	0	
13	0	0	0	0	506	509	0	0	
14	0	0	0	0	509	508	0	0	
15	0	0	0	0	508	508	0	0	
0	0	0	0	0	509	508	0	0	
1	0	0	0	0	510	507	0	0	
2	0	0	0	0	508	506	0	0	
3	0	0	0	0	508	509	0	0	
4	0	0	0	0	509	509	0	0	
5	0	0	0	0	511	509	0	0	
6	0	0	0	0	511	508	0	0	
7	0	0	0	0	512	509	0	0	
8	0	0	0	0	512	508	0	0	
9	0	0	0	0	513	507	0	0	
10	0	0	0	0	515	507	0	0	
11	0	0	0	0	513	508	0	0	
12	0	0	0	0	513	507	0	0	
13	0	0	0	0	514	509	0	0	
14	0	0	0	0	512	509	0	0	
15	0	0	0	0	511	508	0	0	
0	0	0	0	0	511	508	0	0	
1	0	0	0	0	509	508	0	0	
2	0	0	0	0	510	506	0	0	
3	0	0	0	0	508	508	0	0	
4	0	0	0	0	507	508	0	0	
5	0	0	0	0	509	507	0	0	
6	0	0	0	0	508	508	0	0	
7	0	0	0	0	509	508	0	0	
8	0	0	0	0	510	508	0	0	
9	0	0	0	0	511	509	0	0	
10	0	0	0	0	513	509	0	0	
11	0	0	0	0	512	509	0	0	
12	0	0	0	0	514	508	0	0	
13	0	0	0	0	514	507	0	0	
14	0	0	0	0	515	508	0	0	
15	0	0	0	0	515	508	0	0	
0	0	0	0	0	514	508	0	0	
1	0	0	0	0	513	507	0	0	
2	0	0	0	0	511	508	0	0	
3	0	0	0	0	511	508	0	0	
4	0	0	0	0	512	509	0	0	
5	0	0	0	0	510	507	0	0	
6	0	0	0	0	508	509	0	0	
7	0	0	0	0	508	507	0	0	
8	0	0	0	0	508	508	0	0	
9	0	0	0	0	510	507	0	0	
10	0	0	0	0	508	508	0	0	
11	0	0	0	0	508	507	0	0	
12	0	0	0	0	510	508	0	0	
13	0	0	0	0	511	507	0	0	
14	0	0	0	0	511	508	0	0	
15	0	0	0	0	510	507	0	0	
0	0	0	0	0	512	511	0	0	
1	0	0	0	0	514	507	0	0	
2	0	0	0	0	514	508	0	0	
3	0	0	0	0	515	507	0	0	
4	0	0	0	0	515	507	0	0	
5	0	0	0	0	513	510	0	0	
6	0	0	0	0	513	508	0	0	
7	0	0	0	0	512	509	0	0	
8	0	0	0	0	510	509	0	0	
9	0	0	0	0	510	508	0	0	
10	0	0	0	0	511	508	0	0	
11	0	0	0	0	510	507	0	0	
12	0	0	0	0	509	508	0	0	
13	0	0	0	0	507	509	0	0	
14	0	0	0	0	509	507	0	0	
15	0	0	0	0	508	508	0	0	
0	0	0	0	0	509	508	0	0	
1	0	0	0	0	511	508	0	0	
2	0	0	0	0	510	510	0	0	
3	0	0	0	0	512	507	0	0	
4	0	0	0	0	512	509	0	0	
5	0	0	0	0	512	508	0	0	
6	0	0	0	0	515	508	0	0	
7	0	0	0	0	513	508	0	0	
8	0	0	0	0	513	505	0	0	
9	0	0	0	0	514	509	0	0	
10	0	0	0	0	512	509	0	0	
11	0	0	0	0	511	508	0	0	
12	0	0	0	0	510	506	0	0	
13	0	0	0	0	510	507	0	0	
14	0	0	0	0	509	507	0	0	
15	0	0	0	0	509	507	0	0	
0	0	0	0	0	507	509	0	0	
1	0	0	0	0	508	508	0	0	
2	0	0	0	0	511	509	0	0	
3	0	0	0	0	508	509	0	0	
4	0	0	0	0	510	508	0	0	
5	0	0	0	0	513	507	0	0	
6	0	0	0	0	512	509	0	0	
7	0	0	0	0	513	508	0	0	
8	0	0	0	0	512	507	0	0	
9	0	0	0	0	513	508	0	0	
10	0	0	0	0	512	508	0	0	
11	0	0	0	0	512	509	0	0	
12	0	0	0	0	512	508	0	0	
13	0	0	0	0	511	509	0	0	
14	0	0	0	0	512	508	0	0	
15	0	0	0	0	511	508	0	0	
0	0	0	0	0	510	508	0	0	
1	0	0	0	0	509	505	0	0	
2	0	0	0	0	509	507	0	0	
3	0	0	0	0	509	509	0	0	
4	0	0	0	0	510	508	0	0	
5	0	0	0	0	509	509	0	0	
6	0	0	0	0	508	508	0	0	
7	0	0	0	0	511	508	0	0	
8	0	0	0	0	510	508	0	0	
9	0	0	0	0	511	510	0	0	
10	0	0	0	0	511	508	0	0	
11	0	0	0	0	513	508	0	0	
12	0	0	0	0	512	506	0	0	
13	0	0	0	0	516	508	0	0	
14	0	0	0	0	516	509	0	0	
15	0	0	0	0	516	508	0	0	
0	0	0	0	0	515	510	0	0	
1	0	0	0	0	512	509	0	0	
2	0	0	0	0	513	508	0	0	
3	0	0	0	0	510	508	0	0	
4	0	0	0	0	508	507	0	0	
5	0	0	0	0	509	506	0	0	
6	0	0	0	0	509	507	0	0	
7	0	0	0	0	509	507	0	0	
8	0	0	0	0	507	508	0	0	
9	0	0	0	0	508	509	0	0	
10	0	0	0	0	508	508	0	0	
11	0	0	0	0	508	507	0	0	
12	0	0	0	0	510	509	0	0	
13	0	0	0	0	510	509	0	0	
14	0	0	0	0	511	508	0	0	
15	0	0	0	0	511	507	0	0	
0	0	0	0	0	513	507	0	0	
1	0	0	0	0	516	508	0	0	
2	0	0	0	0	512	509	0	0	
3	0	0	0	0	513	508	0	0	
4	0	0	0	0	514	508	0	0	
5	0	0	0	0	512	508	0	0	
6	0	0	0	0	512	507	0	0	
7	0	0	0	0	512	507	0	0	
8	0	0	0	0	511	507	0	0	
9	0	0	0	0	511	508	0	0	
10	0	0	0	0	508	508	0	0	
11	0	0	0	0	507	507	0	0	
12	0	0	0	0	508	508	0	0	
13	0	0	0	0	509	508	0	0	
14	0	0	0	0	510	508	0	0	
15	0	0	0	0	508	508	0	0	
0	0	0	0	0	509	508	0	0	
1	0	0	0	0	509	507	0	0	
2	0	0	0	0	510	509	0	0	
3	0	0	0	0	513	510	0	0	
4	0	0	0	0	512	510	0	0	
5	0	0	0	0	515	508	0	0	
6	0	0	0	0	515	508	0	0	
7	0	0	0	0	515	506	0	0	
8	0	0	0	0	514	510	0	0	
9	0	0	0	0	513	507	0	0	
10	0	0	0	0	513	506	0	0	
11	0	0	0	0	511	508	0	0	
12	0	0	0	0	511	509	0	0	
13	0	0	0	0	511	508	0	0	
14	0	0	0	0	507	508	0	0	
15	0	0	0	0	507	508	0	0	
0	0	0	0	0	507	506	0	0	
1	0	0	0	0	506	508	0	0	
2	0	0	0	0	509	507	0	0	
3	0	0	0	0	510	507	0	0	
4	0	0	0	0	512	510	0	0	
5	0	0	0	0	511	509	0	0	
6	0	0	0	0	511	510	0	0	
7	0	0	0	0	514	509	0	0	
8	0	0	0	0	513	507	0	0	
9	0	0	0	0	512	508	0	0	
10	0	0	0	0	512	509	0	0	
11	0	0	0	0	514	508	0	0	
12	0	0	0	0	513	508	0	0	
13	0	0	0	0	514	508	0	0	
14	0	0	0	0	514	509	0	0	
15	0	0	0	0	513	507	0	0	
0	0	0	0	0	510	508	0	0	
1	0	0	0	0	509	509	0	0	
2	0	0	0	0	508	506	0	0	
3	0	0	0	0	511	508	0	0	
4	0	0	0	0	507	508	0	0	
5	0	0	0	0	508	507	0	0	
6	0	0	0	0	507	506	0	0	
7	0	0	0	0	511	509	0	0	
8	0	0	0	0	511	510	0	0	
9	0	0	0	0	511	510	0	0	
10	0	0	0	0	511	509	0	0	
11	0	0	0	0	512	508	0	0	
12	0	0	0	0	513	508	0	0	
13	0	0	0	0	513	508	0	0	
14	0	0	0	0	512	508	0	0	
15	0	0	0	0	514	508	0	0	
0	0	0	0	0	512	508	0	0	
1	0	0	0	0	512	508	0	0	
2	0	0	0	0	514	507	0	0	
3	0	0	0	0	513	506	0	0	
4	0	0	0	0	511	509	0	0	
5	0	0	0	0	507	508	0	0	
6	0	0	0	0	509	508	0	0	
7	0	0	0	0	507	507	0	0	
8	0	0	0	0	507	509	0	0	
9	0	0	0	0	508	509	0	0	
10	0	0	0	0	505	507	0	0	
11	0	0	0	0	509	508	0	0	
12	0	0	0	0	510	507	0	0	
13	0	0	0	0	511	509	0	0	
14	0	0	0	0	512	508	0	0	
15	0	0	0	0	514	510	0	0	
0	0	0	0	0	513	509	0	0	
1	0	0	0	0	515	508	0	0	
2	0	0	0	0	516	507	0	0	
3	0	0	0	0	514	509	0	0	
4	0	0	0	0	513	508	0	0	
5	0	0	0	0	514	508	0	0	
6	0	0	0	0	511	508	0	0	
7	0	0	0	0	511	507	0	0	
8	0	0	0	0	509	508	0	0	
9	0	0	0	0	509	507	0	0	
10	0	0	0	0	508	507	0	0	
11	0	0	0	0	508	508	0	0	
12	0	0	0	0	507	508	0	0	
13	0	0	0	0	508	507	0	0	
14	0	0	0	0	508	508	0	0	
15	0	0	0	0	509	508	0	0	
0	0	0	0	0	510	510	0	0	
1	0	0	0	0	511	509	0	0	
2	0	0	0	0	512	509	0	0	
3	0	0	0	0	513	509	0	0	
4	0	0	0	0	512	507	0	0	
5	0	0	0	0	513	507	0	0	
6	0	0	0	0	513	506	0	0	
7	0	0	0	0	512	507	0	0	
8	0	0	0	0	513	509	0	0	
9	0	0	0	0	512	509	0	0	
10	0	0	0	0	513	507	0	0	
11	0	0	0	0	513	509	0	0	
12	0	0	0	0	510	508	0	0	
13	0	0	0	0	508	509	0	0	
14	0	0	0	0	508	508	0	0	
15	0	0	0	0	510	508	0	0	
0	0	0	0	0	508	509	0	0	
1	0	0	0	0	509	508	0	0	
2	0	0	0	0	511	508	0	0	
3	0	0	0	0	508	508	0	0	
4	0	0	0	0	508	509	0	0	
5	0	0	0	0	508	507	0	0	
6	0	0	0	0	512	509	0	0	
7	0	0	0	0	511	508	0	0	
8	0	0	0	0	513	509	0	0	
9	0	0	0	0	514	508	0	0	
10	0	0	0	0	516	508	0	0	
11	0	0	0	0	513	505	0	0	
12	0	0	0	0	512	509	0	0	
13	0	0	0	0	513	506	0	0	
14	0	0	0	0	512	507	0	0	
15	0	0	0	0	511	509	0	0	
0	0	0	0	0	511	508	0	0	
1	0	0	0	0	510	508	0	0	
2	0	0	0	0	509	509	0	0	
3	0	0	0	0	508	508	0	0	
4	0	0	0	0	507	509	0	0	
5	0	0	0	0	508	508	0	0	
6	0	0	0	0	508	509	0	0	
7	0	0	0	0	509	508	0	0	
8	0	0	0	0	511	508	0	0	
9	0	0	0	0	512	508	0	0	
10	0	0	0	0	511	508	0	0	
11	0	0	0	0	512	508	0	0	
12	0	0	0	0	513	508	0	0	
13	0	0	0	0	513	509	0	0	
14	0	0	0	0	513	508	0	0	
15	0	0	0	0	514	507	0	0	
0	0	0	0	0	515	507	0	0	
1	0	0	0	0	515	510	0	0	
2	0	0	0	0	514	505	0	0	
3	0	0	0	0	512	506	0	0	
4	0	0	0	0	511	508	0	0	
5	0	0	0	0	509	508	0	0	
6	0	0	0	0	507	508	0	0	
7	0	0	0	0	510	507	0	0	
8	0	0	0	0	508	508	0	0	
9	0	0	0	0	507	508	0	0	
10	0	0	0	0	510	510	0	0	
11	0	0	0	0	510	507	0	0	
12	0	0	0	0	508	510	0	0	
13	0	0	0	0	508	509	0	0	
14	0	0	0	0	511	508	0	0	
15	0	0	0	0	511	508	0	0	
0	0	0	0	0	513	508	0	0	
1	0	0	0	0	513	507	0	0	
2	0	0	0	0	512	509	0	0	
3	0	0	0	0	516	507	0	0	
4	0	0	0	0	516	508	0	0	
5	0	0	0	0	513	508	0	0	
6	0	0	0	0	515	509	0	0	
7	0	0	0	0	509	507	0	0	
8	0	0	0	0	510	508	0	0	
9	0	0	0	0	509	506	0	0	
10	0	0	0	0	508	508	0	0	
11	0	0	0	0	509	509	0	0	
12	0	0	0	0	507	508	0	0	
13	0	0	0	0	507	508	0	0	
14	0	0	0	0	508	506	0	0	
15	0	0	0	0	510	508	0	0	
0	0	0	0	0	510	510	0	0	
1	0	0	0	0	510	509	0	0	
2	0	0	0	0	512	507	0	0	
3	0	0	0	0	514	510	0	0	
4	0	0	0	0	515	506	0	0	
5	0	0	0	0	512	510	0	0	
6	0	0	0	0	516	508	0	0	
7	0	0	0	0	514	507	0	0	
8	0	0	0	0	514	507	0	0	
9	0	0	0	0	515	508	0	0	
10	0	0	0	0	512	508	0	0	
11	0	0	0	0	511	509	0	0	
12	0	0	0	0	510	507	0	0	
13	0	0	0	0	509	508	0	0	
14	0	0	0	0	508	507	0	0	
15	0	0	0	0	507	506	0	0	
0	0	0	0	0	508	508	0	0	
1	0	0	0	0	508	508	0	0	
2	0	0	0	0	510	508	0	0	
3	0	0	0	0	509	510	0	0	
4	0	0	0	0	510	509	0	0	
5	0	0	0	0	511	508	0	0	
6	0	0	0	0	511	508	0	0	
7	0	0	0	0	511	507	0	0	
8	0	0	0	0	512	508	0	0	
9	0	0	0	0	512	510	0	0	
10	0	0	0	0	513	510	0	0	
11	0	0	0	0	513	510	0	0	
12	0	0	0	0	515	508	0	0	
13	0	0	0	0	512	508	0	0	
14	0	0	0	0	511	508	0	0	
15	0	0	0	0	512	508	0	0	
0	0	0	0	0	512	508	0	0	
1	0	0	0	0	511	510	0	0	
2	0	0	0	0	508	508	0	0	
3	0	0	0	0	506	507	0	0	
4	0	0	0	0	505	508	0	0	
5	0	0	0	0	510	507	0	0	
6	0	0	0	0	508	509	0	0	
7	0	0	0	0	508	508	0	0	
8	0	0	0	0	510	507	0	0	
9	0	0	0	0	511	508	0	0	
10	0	0	0	0	514	508	0	0	
11	0	0	0	0	513	506	0	0	
12	0	0	0	0	514	509	0	0	
13	0	0	0	0	515	509	0	0	
14	0	0	0	0	512	508	0	0	
15	0	0	0	0	516	507	0	0	
0	0	0	0	0	515	508	0	0	
1	0	0	0	0	512	509	0	0	
2	0	0	0	0	512	510	0	0	
3	0	0	0	0	511	509	0	0	
4	0	0	0	0	511	507	0	0	
5	0	0	0	0	509	508	0	0	
6	0	0	0	0	509	505	0	0	
7	0	0	0	0	506	507	0	0	
8	0	0	0	0	507	509	0	0	
9	0	0	0	0	508	509	0	0	
10	0	0	0	0	509	508	0	0	
11	0	0	0	0	508	508	0	0	
12	0	0	0	0	509	507	0	0	
13	0	0	0	0	510	509	0	0	
14	0	0	0	0	514	508	0	0	
15	0	0	0	0	512	507	0	0	
0	0	0	0	0	514	507	0	0	
1	0	0	0	0	513	508	0	0	
2	0	0	0	0	514	507	0	0	
3	0	0	0	0	513	510	0	0	
4	0	0	0	0	512	507	0	0	
5	0	0	0	0	512	509	0	0	
6	0	0	0	0	512	509	0	0	
7	0	0	0	0	511	508	0	0	
8	0	0	0	0	508	508	0	0	
9	0	0	0	0	512	508	0	0	
10	0	0	0	0	509	506	0	0	
11	0	0	0	0	508	509	0	0	
12	0	0	0	0	507	507	0	0	
13	0	0	0	0	506	508	0	0	
14	0	0	0	0	507	508	0	0	
15	0	0	0	0	510	507	0	0	
0	0	0	0	0	508	507	0	0	
1	0	0	0	0	510	509	0	0	
2	0	0	0	0	510	509	0	0	
3	0	0	0	0	511	507	0	0	
4	0	0	0	0	514	508	0	0	
5	0	0	0	0	515	510	0	0	
6	0	0	0	0	513	508	0	0	
7	0	0	0	0	515	509	0	0	
8	0	0	0	0	514	507	0	0	
9	0	0	0	0	512	507	0	0	
10	0	0	0	0	513	507	0	0	
11	0	0	0	0	511	509	0	0	
12	0	0	0	0	510	508	0	0	
13	0	0	0	0	510	508	0	0	
14	0	0	0	0	510	508	0	0	
15	0	0	0	0	510	509	0	0	
0	0	0	0	0	507	508	0	0	
1	0	0	0	0	507	508	0	0	
2	0	0	0	0	509	508	0	0	
3	0	0	0	0	508	508	0	0	
4	0	0	0	0	509	506	0	0	
5	0	0	0	0	510	508	0	0	
6	0	0	0	0	512	508	0	0	
7	0	0	0	0	511	508	0	0	
8	0	0	0	0	511	508	0	0	
9	0	0	0	0	513	507	0	0	
10	0	0	0	0	513	507	0	0	
11	0	0	0	0	514	505	0	0	
12	0	0	0	0	512	508	0	0	
13	0	0	0	0	512	508	0	0	
14	0	0	0	0	514	510	0	0	
15	0	0	0	0	514	509	0	0	
0	0	0	0	0	511	508	0	0	
1	0	0	0	0	510	508	0	0	
2	0	0	0	0	509	507	0	0	
3	0	0	0	0	511	507	0	0	
4	0	0	0	0	509	508	0	0	
5	0	0	0	0	509	508	0	0	
6	0	0	0	0	511	507	0	0	
7	0	0	0	0	510	508	0	0	
8	0	0	0	0	508	509	0	0	
9	0	0	0	0	511	508	0	0	
10	0	0	0	0	513	507	0	0	
11	0	0	0	0	512	508	0	0	
12	0	0	0	0	513	508	0	0	
13	0	0	0	0	514	508	0	0	
14	0	0	0	0	515	510	0	0	
15	0	0	0	0	511	506	0	0	
0	0	0	0	0	513	508	0	0	
1	0	0	0	0	513	509	0	0	
2	0	0	0	0	513	510	0	0	
3	0	0	0	0	510	507	0	0	
4	0	0	0	0	509	507	0	0	
5	0	0	0	0	509	508	0	0	
6	0	0	0	0	507	508	0	0	
7	0	0	0	0	508	507	0	0	
8	0	0	0	0	509	508	0	0	
9	0	0	0	0	509	508	0	0	
10	0	0	0	0	509	508	0	0	
11	0	0	0	0	509	508	0	0	
12	0	0	0	0	509	508	0	0	
13	0	0	0	0	511	509	0	0	
14	0	0	0	0	513	510	0	0	
15	0	0	0	0	511	508	0	0	
0	0	0	0	0	514	507	0	0	
1	0	0	0	0	518	509	0	0	
2	0	0	0	0	513	506	0	0	
3	0	0	0	0	514	509	0	0	
4	0	0	0	0	513	508	0	0	
5	0	0	0	0	513	508	0	0	
6	0	0	0	0	512	508	0	0	
7	0	0	0	0	511	507	0	0	
8	0	0	0	0	509	507	0	0	
9	0	0	0	0	510	509	0	0	
10	0	0	0	0	508	507	0	0	
11	0	0	0	0	508	508	0	0	
12	0	0	0	0	508	510	0	0	
13	0	0	0	0	509	508	0	0	
14	0	0	0	0	508	508	0	0	
15	0	0	0	0	508	508	0	0	
0	0	0	0	0	510	509	0	0	
1	0	0	0	0	509	508	0	0	
2	0	0	0	0	514	508	0	0	
3	0	0	0	0	513	508	0	0	
4	0	0	0	0	513	508	0	0	
5	0	0	0	0	512	508	0	0	
6	0	0	0	0	514	508	0	0	
7	0	0	0	0	515	508	0	0	
8	0	0	0	0	514	508	0	0	
9	0	0	0	0	513	508	0	0	
10	0	0	0	0	514	507	0	0	
11	0	0	0	0	512	507	0	0	
12	0	0	0	0	511	509	0	0	
13	0	0	0	0	508	508	0	0	
14	0	0	0	0	509	507	0	0	
15	0	0	0	0	506	508	0	0	
0	0	0	0	0	509	508	0	0	
1	0	0	0	0	510	508	0	0	
2	0	0	0	0	505	510	0	0	
3	0	0	0	0	506	508	0	0	
4	0	0	0	0	510	509	0	0	
5	0	0	0	0	509	508	0	0	
6	0	0	0	0	509	507	0	0	
7	0	0	0	0	512	508	0	0	
8	0	0	0	0	513	508	0	0	
9	0	0	0	0	515	508	0	0	
10	0	0	0	0	515	509	0	0	
11	0	0	0	0	515	507	0	0	
12	0	0	0	0	513	507	0	0	
13	0	0	0	0	511	507	0	0	
14	0	0	0	0	512	508	0	0	
15	0	0	0	0	513	508	0	0	
0	0	0	0	0	510	509	0	0	
1	0	0	0	0	510	505	0	0	
2	0	0	0	0	509	506	0	0	
3	0	0	0	0	510	507	0	0	
4	0	0	0	0	508	508	0	0	
5	0	0	0	0	508	508	0	0	
6	0	0	0	0	508	508	0	0	
7	0	0	0	0	508	509	0	0	
8	0	0	0	0	510	507	0	0	
9	0	0	0	0	511	510	0	0	
10	0	0	0	0	510	508	0	0	
11	0	0	0	0	514	510	0	0	
12	0	0	0	0	515	508	0	0	
13	0	0	0	0	515	507	0	0	
14	0	0	0	0	514	507	0	0	
15	0	0	0	0	513	510	0	0	
0	0	0	0	0	514	509	0	0	
1	0	0	0	0	515	507	0	0	
2	0	0	0	0	512	507	0	0	
3	0	0	0	0	510	507	0	0	
4	0	0	0	0	511	509	0	0	
5	0	0	0	0	512	509	0	0	
6	0	0	0	0	508	510	0	0	
7	0	0	0	0	508	508	0	0	
8	0	0	0	0	507	507	0	0	
9	0	0	0	0	508	508	0	0	
10	0	0	0	0	508	508	0	0	
11	0	0	0	0	510	508	0	0	
12	0	0	0	0	511	510	0	0	
13	0	0	0	0	511	508	0	0	
14	0	0	0	0	511	508	0	0	
15	0	0	0	0	512	510	0	0	
0	0	0	0	0	512	508	0	0	
1	0	0	0	0	514	508	0	0	
2	0	0	0	0	514	509	0	0	
3	0	0	0	0	513	510	0	0	
4	0	0	0	0	512	508	0	0	
5	0	0	0	0	513	508	0	0	
6	0	0	0	0	513	508	0	0	
7	0	0	0	0	511	507	0	0	
8	0	0	0	0	510	507	0	0	
9	0	0	0	0	512	507	0	0	
10	0	0	0	0	509	506	0	0	
11	0	0	0	0	507	507	0	0	
12	0	0	0	0	508	508	0	0	
13	0	0	0	0	511	508	0	0	
14	0	0	0	0	509	507	0	0	
15	0	0	0	0	509	508	0	0	
0	0	0	0	0	509	509	0	0	
1	0	0	0	0	512	508	0	0	
2	0	0	0	0	511	508	0	0	
3	0	0	0	0	514	507	0	0	
4	0	0	0	0	511	509	0	0	
5	0	0	0	0	513	508	0	0	
6	0	0	0	0	515	508	0	0	
7	0	0	0	0	514	508	0	0	
8	0	0	0	0	514	508	0	0	
9	0	0	0	0	514	507	0	0	
10	0	0	0	0	513	509	0	0	
11	0	0	0	0	510	508	0	0	
12	0	0	0	0	507	509	0	0	
13	0	0	0	0	511	506	0	0	
14	0	0	0	0	508	509	0	0	
15	0	0	0	0	509	508	0	0	
0	0	0	0	0	508	509	0	0	
1	0	0	0	0	508	507	0	0	
2	0	0	0	0	511	508	0	0	
3	0	0	0	0	509	508	0	0	
4	0	0	0	0	511	508	0	0	
5	0	0	0	0	512	509	0	0	
6	0	0	0	0	511	508	0	0	
7	0	0	0	0	511	507	0	0	
8	0	0	0	0	513	508	0	0	
9	0	0	0	0	515	508	0	0	
10	0	0	0	0	514	509	0	0	
11	0	0	0	0	512	508	0	0	
12	0	0	0	0	512	509	0	0	
13	0	0	0	0	515	508	0	0	
14	0	0	0	0	514	508	0	0	
15	0	0	0	0	511	507	0	0	
0	0	0	0	0	509	508	0	0	
1	0	0	0	0	511	508	0	0	
2	0	0	0	0	510	509	0	0	
3	0	0	0	0	507	508	0	0	
4	0	0	0	0	507	507	0	0	
5	0	0	0	0	510	508	0	0	
6	0	0	0	0	508	507	0	0	
7	0	0	0	0	510	508	0	0	
8	0	0	0	0	509	507	0	0	
9	0	0	0	0	511	506	0	0	
10	0	0	0	0	511	509	0	0	
11	0	0	0	0	513	509	0	0	
12	0	0	0	0	512	509	0	0	
13	0	0	0	0	514	508	0	0	
14	0	0	0	0	513	507	0	0	
15	0	0	0	0	513	507	0	0	
0	0	0	0	0	515	508	0	0	
1	0	0	0	0	513	508	0	0	
2	0	0	0	0	511	508	0	0	
3	0	0	0	0	511	509	0	0	
4	0	0	0	0	510	507	0	0	
5	0	0	0	0	509	508	0	0	
6	0	0	0	0	510	508	0	0	
7	0	0	0	0	509	507	0	0	
8	0	0	0	0	506	507	0	0	
9	0	0	0	0	508	509	0	0	
10	0	0	0	0	508	507	0	0	
11	0	0	0	0	507	511	0	0	
12	0	0	0	0	507	507	0	0	
13	0	0	0	0	511	508	0	0	
14	0	0	0	0	512	508	0	0	
15	0	0	0	0	512	508	0	0	
0	0	0	0	0	513	506	0	0	
1	0	0	0	0	514	509	0	0	
2	0	0	0	0	514	509	0	0	
3	0	0	0	0	514	510	0	0	
4	0	0	0	0	514	509	0	0	
5	0	0	0	0	511	508	0	0	
6	0	0	0	0	511	508	0	0	
7	0	0	0	0	512	507	0	0	
8	0	0	0	0	509	509	0	0	
9	0	0	0	0	510	507	0	0	
10	0	0	0	0	510	506	0	0	
11	0	0	0	0	508	508	0	0	
12	0	0	0	0	510	508	0	0	
13	0	0	0	0	510	507	0	0	
14	0	0	0	0	508	508	0	0	
15	0	0	0	0	510	507	0	0	
0	0	0	0	0	510	508	0	0	
1	0	0	0	0	511	508	0	0	
2	0	0	0	0	513	508	0	0	
3	0	0	0	0	513	509	0	0	
4	0	0	0	0	513	508	0	0	
5	0	0	0	0	516	509	0	0	
6	0	0	0	0	515	507	0	0	
7	0	0	0	0	513	508	0	0	
8	0	0	0	0	513	508	0	0	
9	0	0	0	0	511	508	0	0	
10	0	0	0	0	512	510	0	0	
11	0	0	0	0	512	507	0	0	
12	0	0	0	0	511	507	0	0	
13	0	0	0	0	508	508	0	0	
14	0	0	0	0	509	507	0	0	
15	0	0	0	0	508	507	0	0	
0	0	0	0	0	507	508	0	0	
1	0	0	0	0	510	508	0	0	
2	0	0	0	0	509	508	0	0	
3	0	0	0	0	508	509	0	0	
4	0	0	0	0	509	508	0	0	
5	0	0	0	0	510	508	0	0	
6	0	0	0	0	512	507	0	0	
7	0	0	0	0	514	510	0	0	
8	0	0	0	0	514	507	0	0	
9	0	0	0	0	512	509	0	0	
10	0	0	0	0	513	508	0	0	
11	0	0	0	0	514	509	0	0	
12	0	0	0	0	512	508	0	0	
13	0	0	0	0	512	507	0	0	
14	0	0	0	0	511	508	0	0	
15	0	0	0	0	512	506	0	0	
0	0	0	0	0	510	510	0	0	
1	0	0	0	0	508	508	0	0	
2	0	0	0	0	508	509	0	0	
3	0	0	0	0	508	506	0	0	
4	0	0	0	0	511	507	0	0	
5	0	0	0	0	511	508	0	0	
6	0	0	0	0	509	509	0	0	
7	0	0	0	0	509	508	0	0	
8	0	0	0	0	509	508	0	0	
9	0	0	0	0	509	507	0	0	
10	0	0	0	0	513	508	0	0	
11	0	0	0	0	512	507	0	0	
12	0	0	0	0	514	507	0	0	
13	0	0	0	0	513	509	0	0	
14	0	0	0	0	516	509	0	0	
15	0	0	0	0	514	507	0	0	
0	0	0	0	0	513	509	0	0	
1	0	0	0	0	514	509	0	0	
2	0	0	0	0	512	508	0	0	
3	0	0	0	0	512	510	0	0	
4	0	0	0	0	510	509	0	0	
5	0	0	0	0	509	508	0	0	
6	0	0	0	0	508	508	0	0	
7	0	0	0	0	508	505	0	0	
8	0	0	0	0	507	508	0	0	
9	0	0	0	0	510	508	0	0	
10	0	0	0	0	508	510	0	0	
11	0	0	0	0	509	510	0	0	
12	0	0	0	0	510	509	0	0	
13	0	0	0	0	511	509	0	0	
14	0	0	0	0	511	507	0	0	
15	0	0	0	0	511	508	0	0	
0	0	0	0	0	513	506	0	0	
1	0	0	0	0	513	507	0	0	
2	0	0	0	0	513	509	0	0	
3	0	0	0	0	513	510	0	0	
4	0	0	0	0	515	507	0	0	
5	0	0	0	0	512	508	0	0	
6	0	0	0	0	511	506	0	0	
7	0	0	0	0	511	511	0	0	
8	0	0	0	0	511	511	0	0	
9	0	0	0	0	510	508	0	0	
10	0	0	0	0	510	508	0	0	
11	0	0	0	0	509	507	0	0	
12	0	0	0	0	509	507	0	0	
13	0	0	0	0	508	508	0	0	
14	0	0	0	0	509	509	0	0	
15	0	0	0	0	509	507	0	0	
0	0	0	0	0	511	509	0	0	
1	0	0	0	0	511	505	0	0	
2	0	0	0	0	511	508	0	0	
3	0	0	0	0	514	508	0	0	
4	0	0	0	0	514	506	0	0	
5	0	0	0	0	514	510	0	0	
6	0	0	0	0	514	510	0	0	
7	0	0	0	0	512	507	0	0	
8	0	0	0	0	514	508	0	0	
9	0	0	0	0	512	507	0	0	
10	0	0	0	0	512	507	0	0	
11	0	0	0	0	512	509	0	0	
12	0	0	0	0	509	510	0	0	
13	0	0	0	0	510	509	0	0	
14	0	0	0	0	509	505	0	0	
15	0	0	0	0	508	507	0	0	
0	0	0	0	0	507	508	0	0	
1	0	0	0	0	507	508	0	0	
2	0	0	0	0	510	509	0	0	
3	0	0	0	0	509	508	0	0	
4	0	0	0	0	511	508	0	0	
5	0	0	0	0	509	507	0	0	
6	0	0	0	0	511	509	0	0	
7	0	0	0	0	513	507	0	0	
8	0	0	0	0	513	508	0	0	
9	0	0	0	0	515	509	0	0	
10	0	0	0	0	513	508	0	0	
11	0	0	0	0	515	508	0	0	
12	0	0	0	0	513	509	0	0	
13	0	0	0	0	512	507	0	0	
14	0	0	0	0	512	508	0	0	
15	0	0	0	0	511	510	0	0	
0	0	0	0	0	509	507	0	0	
1	0	0	0	0	509	506	0	0	
2	0	0	0	0	508	507	0	0	
3	0	0	0	0	507	507	0	0	
4	0	0	0	0	508	509	0	0	
5	0	0	0	0	509	507	0	0	
6	0	0	0	0	507	508	0	0	
7	0	0	0	0	508	509	0	0	
8	0	0	0	0	511	509	0	0	
9	0	0	0	0	515	509	0	0	
10	0	0	0	0	513	510	0	0	
11	0	0	0	0	512	508	0	0	
12	0	0	0	0	514	508	0	0	
13	0	0	0	0	515	508	0	0	
14	0	0	0	0	511	508	0	0	
15	0	0	0	0	513	509	0	0	
0	0	0	0	0	512	509	0	0	
1	0	0	0	0	513	508	0	0	
2	0	0	0	0	512	508	0	0	
3	0	0	0	0	511	505	0	0	
4	0	0	0	0	509	508	0	0	
5	0	0	0	0	508	508	0	0	
6	0	0	0	0	510	508	0	0	
7	0	0	0	0	510	508	0	0	
8	0	0	0	0	510	508	0	0	
9	0	0	0	0	509	507	0	0	
10	0	0	0	0	511	507	0	0	
11	0	0	0	0	511	508	0	0	
12	0	0	0	0	511	508	0	0	
13	0	0	0	0	510	508	0	0	
14	0	0	0	0	511	508	0	0	
15	0	0	0	0	512	508	0	0	
0	0	0	0	0	513	509	0	0	
1	0	0	0	0	512	508	0	0	
2	0	0	0	0	513	507	0	0	
3	0	0	0	0	514	510	0	0	
4	0	0	0	0	514	508	0	0	
5	0	0	0	0	512	507	0	0	
6	0	0	0	0	513	510	0	0	
7	0	0	0	0	511	508	0	0	
8	0	0	0	0	511	507	0	0	
9	0	0	0	0	508	508	0	0	
10	0	0	0	0	508	510	0	0	
11	0	0	0	0	507	510	0	0	
12	0	0	0	0	509	509	0	0	
13	0	0	0	0	511	508	0	0	
14	0	0	0	0	509	508	0	0	
15	0	0	0	0	510	507	0	0	
0	0	0	0	0	509	507	0	0	
1	0	0	0	0	512	507	0	0	
2	0	0	0	0	512	507	0	0	
3	0	0	0	0	510	508	0	0	
4	0	0	0	0	515	508	0	0	
5	0	0	0	0	515	508	0	0	
6	0	0	0	0	514	509	0	0	
7	0	0	0	0	512	507	0	0	
8	0	0	0	0	513	509	0	0	
9	0	0	0	0	512	507	0	0	
10	0	0	0	0	513	508	0	0	
11	0	0	0	0	510	508	0	0	
12	0	0	0	0	511	508	0	0	
13	0	0	0	0	510	506	0	0	
14	0	0	0	0	508	507	0	0	
15	0	0	0	0	505	509	0	0	
0	0	0	0	0	508	510	0	0	
1	0	0	0	0	509	508	0	0	
2	0	0	0	0	509	509	0	0	
3	0	0	0	0	510	507	0	0	
4	0	0	0	0	512	507	0	0	
5	0	0	0	0	511	508	0	0	
6	0	0	0	0	511	509	0	0	
7	0	0	0	0	514	510	0	0	
8	0	0	0	0	514	509	0	0	
9	0	0	0	0	513	508	0	0	
10	0	0	0	0	515	507	0	0	
11	0	0	0	0	513	507	0	0	
12	0	0	0	0	513	508	0	0	
13	0	0	0	0	513	508	0	0	
14	0	0	0	0	512	507	0	0	
15	0	0	0	0	512	508	0	0	
0	0	0	0	0	509	508	0	0	
1	0	0	0	0	511	509	0	0	
2	0	0	0	0	507	509	0	0	
3	0	0	0	0	508	509	0	0	
4	0	0	0	0	508	507	0	0	
5	0	0	0	0	509	508	0	0	
6	0	0	0	0	509	508	0	0	
7	0	0	0	0	509	508	0	0	
8	0	0	0	0	510	508	0	0	
9	0	0	0	0	512	509	0	0	
10	0	0	0	0	514	508	0	0	
11	0	0	0	0	514	506	0	0	
12	0	0	0	0	512	508	0	0	
13	0	0	0	0	513	507	0	0	
14	0	0	0	0	515	511	0	0	
15	0	0	0	0	515	508	0	0	
0	0	0	0	0	512	509	0	0	
1	0	0	0	0	513	510	0	0	
2	0	0	0	0	513	509	0	0	
3	0	0	0	0	511	508	0	0	
4	0	0	0	0	509	508	0	0	
5	0	0	0	0	508	508	0	0	
6	0	0	0	0	507	508	0	0	
7	0	0	0	0	506	509	0	0	
8	0	0	0	0	507	508	0	0	
9	0	0	0	0	509	507	0	0	
10	0	0	0	0	511	507	0	0	
11	0	0	0	0	510	508	0	0	
12	0	0	0	0	508	507	0	0	
13	0	0	0	0	511	508	0	0	
14	0	0	0	0	512	508	0	0	
15	0	0	0	0	513	509	0	0	
0	0	0	0	0	515	508	0	0	
1	0	0	0	0	517	507	0	0	
2	0	0	0	0	513	509	0	0	
3	0	0	0	0	515	510	0	0	
4	0	0	0	0	514	508	0	0	
5	0	0	0	0	512	509	0	0	
6	0	0	0	0	513	507	0	0	
7	0	0	0	0	509	507	0	0	
8	0	0	0	0	508	507	0	0	
9	0	0	0	0	509	508	0	0	
10	0	0	0	0	510	508	0	0	
11	0	0	0	0	508	506	0	0	
12	0	0	0	0	508	508	0	0	
13	0	0	0	0	508	508	0	0	
14	0	0	0	0	508	509	0	0	
15	0	0	0	0	511	509	0	0	
0	0	0	0	0	510	509	0	0	
1	0	0	0	0	512	510	0	0	
2	0	0	0	0	513	508	0	0	
3	0	0	0	0	513	508	0	0	
4	0	0	0	0	513	508	0	0	
5	0	0	0	0	513	508	0	0	
6	0	0	0	0	515	507	0	0	
7	0	0	0	0	515	507	0	0	
8	0	0	0	0	514	507	0	0	
9	0	0	0	0	512	506	0	0	
10	0	0	0	0	512	508	0	0	
11	0	0	0	0	511	508	0	0	
12	0	0	0	0	509	507	0	0	
13	0	0	0	0	509	506	0	0	
14	0	0	0	0	510	508	0	0	
15	0	0	0	0	507	508	0	0	
0	0	0	0	0	509	509	0	0	
1	0	0	0	0	508	511	0	0	
2	0	0	0	0	508	507	0	0	
3	0	0	0	0	509	508	0	0	
4	0	0	0	0	511	507	0	0	
5	0	0	0	0	512	509	0	0	
6	0	0	0	0	512	509	0	0	
7	0	0	0	0	513	509	0	0	
8	0	0	0	0	514	509	0	0	
9	0	0	0	0	515	507	0	0	
10	0	0	0	0	514	507	0	0	
11	0	0	0	0	515	510	0	0	
12	0	0	0	0	514	505	0	0	
13	0	0	0	0	514	507	0	0	
14	0	0	0	0	511	508	0	0	
15	0	0	0	0	510	509	0	0	
0	0	0	0	0	510	509	0	0	
1	0	0	0	0	509	508	0	0	
2	0	0	0	0	508	508	0	0	
3	0	0	0	0	508	508	0	0	
4	0	0	0	0	509	508	0	0	
5	0	0	0	0	511	508	0	0	
6	0	0	0	0	510	508	0	0	
7	0	0	0	0	510	507	0	0	
8	0	0	0	0	511	509	0	0	
9	0	0	0	0	509	507	0	0	
10	0	0	0	0	509	510	0	0	
11	0	0	0	0	512	508	0	0	
12	0	0	0	0	513	509	0	0	
13	0	0	0	0	514	508	0	0	
14	0	0	0	0	513	508	0	0	
15	0	0	0	0	512	509	0	0	
0	0	0	0	0	512	508	0	0	
1	0	0	0	0	514	507	0	0	
2	0	0	0	0	512	507	0	0	
3	0	0	0	0	511	507	0	0	
4	0	0	0	0	509	507	0	0	
5	0	0	0	0	508	507	0	0	
6	0	0	0	0	508	508	0	0	
7	0	0	0	0	507	507	0	0	
8	0	0	0	0	509	508	0	0	
9	0	0	0	0	510	508	0	0	
10	0	0	0	0	510	508	0	0	
11	0	0	0	0	510	510	0	0	
12	0	0	0	0	510	509	0	0	
13	0	0	0	0	513	505	0	0	
14	0	0	0	0	512	508	0	0	
15	0	0	0	0	512	506	0	0	
0	0	0	0	0	514	509	0	0	
1	0	0	0	0	512	508	0	0	
2	0	0	0	0	513	508	0	0	
3	0	0	0	0	514	508	0	0	
4	0	0	0	0	513	510	0	0	
5	0	0	0	0	513	509	0	0	
6	0	0	0	0	511	510	0	0	
7	0	0	0	0	511	508	0	0	
8	0	0	0	0	510	507	0	0	
9	0	0	0	0	508	508	0	0	
10	0	0	0	0	508	507	0	0	
11	0	0	0	0	508	507	0	0	
12	0	0	0	0	507	507	0	0	
13	0	0	0	0	508	509	0	0	
14	0	0	0	0	509	508	0	0	
15	0	0	0	0	509	509	0	0	
0	0	0	0	0	510	507	0	0	
1	0	0	0	0	512	510	0	0	
2	0	0	0	0	513	509	0	0	
3	0	0	0	0	512	509	0	0	
4	0	0	0	0	511	510	0	0	
5	0	0	0	0	515	509	0	0	
6	0	0	0	0	514	507	0	0	
7	0	0	0	0	513	509	0	0	
8	0	0	0	0	515	508	0	0	
9	0	0	0	0	513	510	0	0	
10	0	0	0	0	512	507	0	0	
11	0	0	0	0	510	505	0	0	
12	0	0	0	0	509	506	0	0	
13	0	0	0	0	508	508	0	0	
14	0	0	0	0	508	506	0	0	
15	0	0	0	0	507	508	0	0	
0	0	0	0	0	508	505	0	0	
1	0	0	0	0	509	507	0	0	
2	0	0	0	0	508	508	0	0	
3	0	0	0	0	508	508	0	0	
4	0	0	0	0	509	508	0	0	
5	0	0	0	0	511	508	0	0	
6	0	0	0	0	513	508	0	0	
7	0	0	0	0	513	508	0	0	
8	0	0	0	0	513	509	0	0	
9	0	0	0	0	515	508	0	0	
10	0	0	0	0	515	508	0	0	
11	0	0	0	0	514	508	0	0	
12	0	0	0	0	515	508	0	0	
13	0	0	0	0	511	510	0	0	
14	0	0	0	0	511	507	0	0	
15	0	0	0	0	511	507	0	0	
0	0	0	0	0	510	510	0	0	
1	0	0	0	0	510	509	0	0	
2	0	0	0	0	508	509	0	0	
3	0	0	0	0	507	509	0	0	
4	0	0	0	0	507	507	0	0	
5	0	0	0	0	511	507	0	0	
6	0	0	0	0	510	508	0	0	
7	0	0	0	0	510	508	0	0	
8	0	0	0	0	510	508	0	0	
9	0	0	0	0	512	508	0	0	
10	0	0	0	0	512	507	0	0	
11	0	0	0	0	511	507	0	0	
12	0	0	0	0	513	509	0	0	
13	0	0	0	0	513	508	0	0	
14	0	0	0	0	513	508	0	0	
15	0	0	0	0	514	507	0	0	
0	0	0	0	0	513	508	0	0	
1	0	0	0	0	514	506	0	0	
2	0	0	0	0	513	508	0	0	
3	0	0	0	0	510	508	0	0	
4	0	0	0	0	510	510	0	0	
5	0	0	0	0	509	508	0	0	
6	0	0	0	0	510	509	0	0	
7	0	0	0	0	507	507	0	0	
8	0	0	0	0	506	506	0	0	
9	0	0	0	0	509	508	0	0	
10	0	0	0	0	507	508	0	0	
11	0	0	0	0	510	508	0	0	
12	0	0	0	0	510	508	0	0	
13	0	0	0	0	512	508	0	0	
14	0	0	0	0	513	508	0	0	
15	0	0	0	0	513	510	0	0	
0	0	0	0	0	513	508	0	0	
1	0	0	0	0	514	507	0	0	
2	0	0	0	0	516	510	0	0	
3	0	0	0	0	515	508	0	0	
4	0	0	0	0	514	510	0	0	
5	0	0	0	0	512	509	0	0	
6	0	0	0	0	510	505	0	0	
7	0	0	0	0	509	508	0	0	
8	0	0	0	0	510	507	0	0	
9	0	0	0	0	510	508	0	0	
10	0	0	0	0	508	508	0	0	
11	0	0	0	0	506	506	0	0	
12	0	0	0	0	507	508	0	0	
13	0	0	0	0	508	508	0	0	
14	0	0	0	0	508	508	0	0	
15	0	0	0	0	508	509	0	0	
0	0	0	0	0	511	509	0	0	
1	0	0	0	0	513	507	0	0	
2	0	0	0	0	513	509	0	0	
3	0	0	0	0	513	507	0	0	
4	0	0	0	0	512	508	0	0	
5	0	0	0	0	513	508	0	0	
6	0	0	0	0	513	507	0	0	
7	0	0	0	0	515	508	0	0	
8	0	0	0	0	512	508	0	0	
9	0	0	0	0	515	510	0	0	
10	0	0	0	0	511	508	0	0	
11	0	0	0	0	510	509	0	0	
12	0	0	0	0	507	509	0	0	
13	0	0	0	0	507	508	0	0	
14	0	0	0	0	507	508	0	0	
15	0	0	0	0	509	507	0	0	
0	0	0	0	0	509	508	0	0	
1	0	0	0	0	508	508	0	0	
2	0	0	0	0	509	508	0	0	
3	0	0	0	0	510	508	0	0	
4	0	0	0	0	509	507	0	0	
5	0	0	0	0	512	508	0	0	
6	0	0	0	0	513	507	0	0	
7	0	0	0	0	515	507	0	0	
8	0	0	0	0	514	507	0	0	
9	0	0	0	0	513	508	0	0	
10	0	0	0	0	514	507	0	0	
11	0	0	0	0	514	509	0	0	
12	0	0	0	0	515	510	0	0	
13	0	0	0	0	512	509	0	0	
14	0	0	0	0	510	510	0	0	
15	0	0	0	0	510	508	0	0	
0	0	0	0	0	509	509	0	0	
1	0	0	0	0	510	508	0	0	
2	0	0	0	0	507	507	0	0	
3	0	0	0	0	508	507	0	0	
4	0	0	0	0	508	507	0	0	
5	0	0	0	0	507	507	0	0	
6	0	0	0	0	508	508	0	0	
7	0	0	0	0	510	507	0	0	
8	0	0	0	0	511	507	0	0	
9	0	0	0	0	512	509	0	0	
10	0	0	0	0	512	508	0	0	
11	0	0	0	0	514	510	0	0	
12	0	0	0	0	512	509	0	0	
13	0	0	0	0	514	509	0	0	
14	0	0	0	0	515	506	0	0	
15	0	0	0	0	512	508	0	0	
0	0	0	0	0	514	509	0	0	
1	0	0	0	0	512	508	0	0	
2	0	0	0	0	511	507	0	0	
3	0	0	0	0	512	507	0	0	
4	0	0	0	0	509	506	0	0	
5	0	0	0	0	510	508	0	0	
6	0	0	0	0	508	509	0	0	
7	0	0	0	0	509	507	0	0	
8	0	0	0	0	509	508	0	0	
9	0	0	0	0	510	508	0	0	
10	0	0	0	0	508	507	0	0	
11	0	0	0	0	508	508	0	0	
12	0	0	0	0	511	508	0	0	
13	0	0	0	0	509	508	0	0	
14	0	0	0	0	512	509	0	0	
15	0	0	0	0	514	508	0	0	
0	0	0	0	0	513	508	0	0	
1	0	0	0	0	515	508	0	0	
2	0	0	0	0	514	508	0	0	
3	0	0	0	0	513	508	0	0	
4	0	0	0	0	513	508	0	0	
5	0	0	0	0	512	508	0	0	
6	0	0	0	0	511	507	0	0	
7	0	0	0	0	510	508	0	0	
8	0	0	0	0	511	508	0	0	
9	0	0	0	0	508	507	0	0	
10	0	0	0	0	509	508	0	0	
11	0	0	0	0	506	508	0	0	
12	0	0	0	0	509	508	0	0	
13	0	0	0	0	507	509	0	0	
14	0	0	0	0	507	509	0	0	
15	0	0	0	0	508	510	0	0	
0	0	0	0	0	512	508	0	0	
1	0	0	0	0	512	508	0	0	
2	0	0	0	0	513	508	0	0	
3	0	0	0	0	513	506	0	0	
4	0	0	0	0	513	507	0	0	
5	0	0	0	0	514	509	0	0	
6	0	0	0	0	514	510	0	0	
7	0	0	0	0	513	507	0	0	
8	0	0	0	0	511	508	0	0	
9	0	0	0	0	512	509	0	0	
10	0	0	0	0	511	509	0	0	
11	0	0	0	0	511	506	0	0	
12	0	0	0	0	512	509	0	0	
13	0	0	0	0	511	508	0	0	
14	0	0	0	0	509	506	0	0	
15	0	0	0	0	508	508	0	0	
0	0	0	0	0	509	508	0	0	
1	0	0	0	0	507	509	0	0	
2	0	0	0	0	508	506	0	0	
3	0	0	0	0	508	508	0	0	
4	0	0	0	0	508	508	0	0	
5	0	0	0	0	511	507	0	0	
6	0	0	0	0	513	509	0	0	
7	0	0	0	0	514	508	0	0	
8	0	0	0	0	513	509	0	0	
9	0	0	0	0	515	508	0	0	
10	0	0	0	0	512	508	0	0	
11	0	0	0	0	514	510	0	0	
12	0	0	0	0	511	508	0	0	
13	0	0	0	0	511	506	0	0	
14	0	0	0	0	512	509	0	0	
15	0	0	0	0	511	508	0	0	
0	0	0	0	0	511	508	0	0	
1	0	0	0	0	508	507	0	0	
2	0	0	0	0	509	508	0	0	
3	0	0	0	0	509	508	0	0	
4	0	0	0	0	508	508	0	0	
5	0	0	0	0	507	508	0	0	
6	0	0	0	0	508	509	0	0	
7	0	0	0	0	510	510	0	0	
8	0	0	0	0	511	506	0	0	
9	0	0	0	0	512	508	0	0	
10	0	0	0	0	513	509	0	0	
11	0	0	0	0	513	508	0	0	
12	0	0	0	0	515	507	0	0	
13	0	0	0	0	513	508	0	0	
14	0	0	0	0	514	508	0	0	
15	0	0	0	0	514	507	0	0	
0	0	0	0	0	513	510	0	0	
1	0	0	0	0	514	507	0	0	
2	0	0	0	0	512	508	0	0	
3	0	0	0	0	512	507	0	0	
4	0	0	0	0	508	508	0	0	
5	0	0	0	0	509	507	0	0	
6	0	0	0	0	509	508	0	0	
7	0	0	0	0	507	507	0	0	
8	0	0	0	0	508	508	0	0	
9	0	0	0	0	508	508	0	0	
10	0	0	0	0	508	508	0	0	
11	0	0	0	0	510	507	0	0	
12	0	0	0	0	510	509	0	0	
13	0	0	0	0	509	508	0	0	
14	0	0	0	0	511	508	0	0	
15	0	0	0	0	512	509	0	0	
0	0	0	0	0	514	507	0	0	
1	0	0	0	0	514	510	0	0	
2	0	0	0	0	515	507	0	0	
3	0	0	0	0	515	507	0	0	
4	0	0	0	0	514	507	0	0	
5	0	0	0	0	513	509	0	0	
6	0	0	0	0	514	508	0	0	
7	0	0	0	0	511	508	0	0	
8	0	0	0	0	510	508	0	0	
9	0	0	0	0	508	508	0	0	
10	0	0	0	0	508	507	0	0	
11	0	0	0	0	509	508	0	0	
12	0	0	0	0	509	508	0	0	
13	0	0	0	0	510	507	0	0	
14	0	0	0	0	508	509	0	0	
15	0	0	0	0	509	509	0	0	
0	0	0	0	0	511	508	0	0	
1	0	0	0	0	512	508	0	0	
2	0	0	0	0	513	507	0	0	
3	0	0	0	0	514	510	0	0	
4	0	0	0	0	514	509	0	0	
5	0	0	0	0	515	508	0	0	
6	0	0	0	0	514	508	0	0	
7	0	0	0	0	514	507	0	0	
8	0	0	0	0	512	507	0	0	
9	0	0	0	0	512	509	0	0	
10	0	0	0	0	513	509	0	0	
11	0	0	0	0	511	507	0	0	
12	0	0	0	0	509	509	0	0	
13	0	0	0	0	510	509	0	0	
14	0	0	0	0	507	508	0	0	
15	0	0	0	0	508	508	0	0	
0	0	0	0	0	508	507	0	0	
1	0	0	0	0	510	509	0	0	
2	0	0	0	0	509	508	0	0	
3	0	0	0	0	512	507	0	0	
4	0	0	0	0	509	505	0	0	
5	0	0	0	0	511	510	0	0	
6	0	0	0	0	515	507	0	0	
7	0	0	0	0	512	511	0	0	
8	0	0	0	0	515	509	0	0	
9	0	0	0	0	514	507	0	0	
10	0	0	0	0	512	507	0	0	
11	0	0	0	0	513	507	0	0	
12	0	0	0	0	515	507	0	0	
13	0	0	0	0	513	508	0	0	
14	0	0	0	0	511	508	0	0	
15	0	0	0	0	511	508	0	0	
0	0	0	0	0	511	509	0	0	
1	0	0	0	0	509	509	0	0	
2	0	0	0	0	509	508	0	0	
3	0	0	0	0	508	508	0	0	
4	0	0	0	0	508	508	0	0	
5	0	0	0	0	508	508	0	0	
6	0	0	0	0	507	508	0	0	
7	0	0	0	0	509	508	0	0	
8	0	0	0	0	510	508	0	0	
9	0	0	0	0	512	507	0	0	
10	0	0	0	0	512	508	0	0	
11	0	0	0	0	512	509	0	0	
12	0	0	0	0	515	508	0	0	
13	0	0	0	0	514	510	0	0	
14	0	0	0	0	516	507	0	0	
15	0	0	0	0	515	508	0	0	
0	0	0	0	0	513	506	0	0	
1	0	0	0	0	512	508	0	0	
2	0	0	0	0	513	508	0	0	
3	0	0	0	0	510	509	0	0	
4	0	0	0	0	511	510	0	0	
5	0	0	0	0	509	508	0	0	
6	0	0	0	0	508	505	0	0	
7	0	0	0	0	508	509	0	0	
8	0	0	0	0	507	508	0	0	
9	0	0	0	0	508	508	0	0	
10	0	0	0	0	507	507	0	0	
11	0	0	0	0	510	507	0	0	
12	0	0	0	0	511	508	0	0	
13	0	0	0	0	511	509	0	0	
14	0	0	0	0	512	509	0	0	
15	0	0	0	0	512	508	0	0	
0	0	0	0	0	514	507	0	0	
1	0	0	0	0	514	511	0	0	
2	0	0	0	0	513	509	0	0	
3	0	0	0	0	513	507	0	0	
4	0	0	0	0	512	508	0	0	
5	0	0	0	0	511	507	0	0	
6	0	0	0	0	513	508	0	0	
7	0	0	0	0	512	508	0	0	
8	0	0	0	0	512	506	0	0	
9	0	0	0	0	508	509	0	0	
10	0	0	0	0	509	507	0	0	
11	0	0	0	0	509	506	0	0	
12	0	0	0	0	510	508	0	0	
13	0	0	0	0	508	507	0	0	
14	0	0	0	0	508	508	0	0	
15	0	0	0	0	508	508	0	0	
0	0	0	0	0	510	508	0	0	
1	0	0	0	0	511	508	0	0	
2	0	0	0	0	513	508	0	0	
3	0	0	0	0	512	506	0	0	
4	0	0	0	0	512	508	0	0	
5	0	0	0	0	513	510	0	0	
6	0	0	0	0	512	509	0	0	
7	0	0	0	0	515	508	0	0	
8	0	0	0	0	512	507	0	0	
9	0	0	0	0	514	508	0	0	
10	0	0	0	0	512	506	0	0	
11	0	0	0	0	512	508	0	0	
12	0	0	0	0	509	507	0	0	
13	0	0	0	0	510	508	0	0	
14	0	0	0	0	510	508	0	0	
15	0	0	0	0	508	509	0	0	
0	0	0	0	0	510	509	0	0	
1	0	0	0	0	510	509	0	0	
2	0	0	0	0	508	507	0	0	
3	0	0	0	0	508	509	0	0	
4	0	0	0	0	510	508	0	0	
5	0	0	0	0	511	508	0	0	
6	0	0	0	0	513	508	0	0	
7	0	0	0	0	511	507	0	0	
8	0	0	0	0	513	509	0	0	
9	0	0	0	0	514	508	0	0	
10	0	0	0	0	515	507	0	0	
11	0	0	0	0	513	506	0	0	
12	0	0	0	0	511	508	0	0	
13	0	0	0	0	513	508	0	0	
14	0	0	0	0	509	509	0	0	
15	0	0	0	0	511	508	0	0	
0	0	0	0	0	512	510	0	0	
1	0	0	0	0	507	507	0	0	
2	0	0	0	0	509	506	0	0	
3	0	0	0	0	508	507	0	0	
4	0	0	0	0	510	507	0	0	
5	0	0	0	0	507	507	0	0	
6	0	0	0	0	508	510	0	0	
7	0	0	0	0	509	509	0	0	
8	0	0	0	0	510	510	0	0	
9	0	0	0	0	511	508	0	0	
10	0	0	0	0	512	508	0	0	
11	0	0	0	0	514	509	0	0	
12	0	0	0	0	514	508	0	0	
13	0	0	0	0	514	507	0	0	
14	0	0	0	0	515	507	0	0	
15	0	0	0	0	514	508	0	0	
0	0	0	0	0	512	510	0	0	
1	0	0	0	0	512	508	0	0	
2	0	0	0	0	510	507	0	0	
3	0	0	0	0	513	507	0	0	
4	0	0	0	0	510	506	0	0	
5	0	0	0	0	510	508	0	0	
6	0	0	0	0	509	508	0	0	
7	0	0	0	0	506	508	0	0	
8	0	0	0	0	508	508	0	0	
9	0	0	0	0	510	509	0	0	
10	0	0	0	0	508	509	0	0	
11	0	0	0	0	508	509	0	0	
12	0	0	0	0	509	508	0	0	
13	0	0	0	0	511	510	0	0	
14	0	0	0	0	511	510	0	0	
15	0	0	0	0	514	508	0	0	
0	0	0	0	0	513	508	0	0	
1	0	0	0	0	515	509	0	0	
2	0	0	0	0	514	507	0	0	
3	0	0	0	0	515	508	0	0	
4	0	0	0	0	513	508	0	0	
5	0	0	0	0	513	507	0	0	
6	0	0	0	0	512	509	0	0	
7	0	0	0	0	511	509	0	0	
8	0	0	0	0	511	507	0	0	
9	0	0	0	0	509	507	0	0	
10	0	0	0	0	509	507	0	0	
11	0	0	0	0	508	508	0	0	
12	0	0	0	0	508	510	0	0	
13	0	0	0	0	511	510	0	0	
14	0	0	0	0	508	507	0	0	
15	0	0	0	0	508	507	0	0	
0	0	0	0	0	512	510	0	0	
1	0	0	0	0	511	509	0	0	
2	0	0	0	0	511	507	0	0	
3	0	0	0	0	512	507	0	0	
4	0	0	0	0	513	507	0	0	
5	0	0	0	0	515	509	0	0	
6	0	0	0	0	514	507	0	0	
7	0	0	0	0	513	508	0	0	
8	0	0	0	0	513	507	0	0	
9	0	0	0	0	512	508	0	0	
10	0	0	0	0	510	508	0	0	
11	0	0	0	0	510	506	0	0	
12	0	0	0	0	510	508	0	0	
13	0	0	0	0	508	508	0	0	
14	0	0	0	0	509	507	0	0	
15	0	0	0	0	507	507	0	0	
0	0	0	0	0	508	508	0	0	
1	0	0	0	0	508	508	0	0	
2	0	0	0	0	510	508	0	0	
3	0	0	0	0	510	508	0	0	
4	0	0	0	0	511	509	0	0	
5	0	0	0	0	511	508	0	0	
6	0	0	0	0	514	509	0	0	
7	0	0	0	0	514	509	0	0	
8	0	0	0	0	513	508	0	0	
9	0	0	0	0	514	507	0	0	
10	0	0	0	0	513	508	0	0	
11	0	0	0	0	513	506	0	0	
12	0	0	0	0	513	508	0	0	
13	0	0	0	0	511	508	0	0	
14	0	0	0	0	511	509	0	0	
15	0	0	0	0	511	507	0	0	
0	0	0	0	0	509	508	0	0	
1	0	0	0	0	506	508	0	0	
2	0	0	0	0	508	508	0	0	
3	0	0	0	0	507	509	0	0	
4	0	0	0	0	510	509	0	0	
5	0	0	0	0	508	508	0	0	
6	0	0	0	0	508	506	0	0	
7	0	0	0	0	510	508	0	0	
8	0	0	0	0	511	507	0	0	
9	0	0	0	0	511	507	0	0	
10	0	0	0	0	511	510	0	0	
11	0	0	0	0	514	508	0	0	
12	0	0	0	0	513	507	0	0	
13	0	0	0	0	515	509	0	0	
14	0	0	0	0	514	508	0	0	
15	0	0	0	0	514	508	0	0	
0	0	0	0	0	514	509	0	0	
1	0	0	0	0	514	508	0	0	
2	0	0	0	0	513	508	0	0	
3	0	0	0	0	511	508	0	0	
4	0	0	0	0	510	507	0	0	
5	0	0	0	0	509	508	0	0	
6	0	0	0	0	510	508	0	0	
7	0	0	0	0	508	509	0	0	
8	0	0	0	0	508	508	0	0	
9	0	0	0	0	510	508	0	0	
10	0	0	0	0	508	509	0	0	
11	0	0	0	0	508	508	0	0	
12	0	0	0	0	508	507	0	0	
13	0	0	0	0	511	508	0	0	
14	0	0	0	0	512	508	0	0	
15	0	0	0	0	512	508	0	0	
0	0	0	0	0	513	507	0	0	
1	0	0	0	0	513	509	0	0	
2	0	0	0	0	515	508	0	0	
3	0	0	0	0	515	509	0	0	
4	0	0	0	0	513	508	0	0	
5	0	0	0	0	511	507	0	0	
6	0	0	0	0	511	508	0	0	
7	0	0	0	0	512	507	0	0	
8	0	0	0	0	509	508	0	0	
9	0	0	0	0	509	510	0	0	
10	0	0	0	0	508	508	0	0	
11	0	0	0	0	508	510	0	0	
12	0	0	0	0	507	508	0	0	
13	0	0	0	0	507	509	0	0	
14	0	0	0	0	509	509	0	0	
15	0	0	0	0	510	507	0	0	
0	0	0	0	0	511	508	0	0	
1	0	0	0	0	513	508	0	0	
2	0	0	0	0	512	508	0	0	
3	0	0	0	0	515	508	0	0	
4	0	0	0	0	513	508	0	0	
5	0	0	0	0	515	508	0	0	
6	0	0	0	0	514	506	0	0	
7	0	0	0	0	511	507	0	0	
8	0	0	0	0	512	508	0	0	
9	0	0	0	0	512	510	0	0	
10	0	0	0	0	510	506	0	0	
11	0	0	0	0	511	507	0	0	
12	0	0	0	0	510	507	0	0	
13	0	0	0	0	509	508	0	0	
14	0	0	0	0	509	508	0	0	
15	0	0	0	0	509	509	0	0	
0	0	0	0	0	508	509	0	0	
1	0	0	0	0	510	509	0	0	
2	0	0	0	0	510	509	0	0	
3	0	0	0	0	507	509	0	0	
4	0	0	0	0	510	509	0	0	
5	0	0	0	0	510	508	0	0	
6	0	0	0	0	513	509	0	0	
7	0	0	0	0	514	507	0	0	
8	0	0	0	0	511	507	0	0	
9	0	0	0	0	515	508	0	0	
10	0	0	0	0	515	505	0	0	
11	0	0	0	0	511	508	0	0	
12	0	0	0	0	513	508	0	0	
13	0	0	0	0	511	507	0	0	
14	0	0	0	0	511	508	0	0	
15	0	0	0	0	509	507	0	0	
0	0	0	0	0	509	509	0	0	
1	0	0	0	0	509	508	0	0	
2	0	0	0	0	508	507	0	0	
3	0	0	0	0	508	508	0	0	
4	0	0	0	0	508	508	0	0	
5	0	0	0	0	509	508	0	0	
6	0	0	0	0	509	508	0	0	
7	0	0	0	0	510	509	0	0	
8	0	0	0	0	513	508	0	0	
9	0	0	0	0	513	505	0	0	
10	0	0	0	0	513	507	0	0	
11	0	0	0	0	513	509	0	0	
12	0	0	0	0	516	509	0	0	
13	0	0	0	0	514	509	0	0	
14	0	0	0	0	514	509	0	0	
15	0	0	0	0	512	508	0	0	
0	0	0	0	0	514	508	0	0	
1	0	0	0	0	512	508	0	0	
2	0	0	0	0	512	508	0	0	
3	0	0	0	0	511	510	0	0	
4	0	0	0	0	509	507	0	0	
5	0	0	0	0	509	510	0	0	
6	0	0	0	0	508	509	0	0	
7	0	0	0	0	509	508	0	0	
8	0	0	0	0	508	507	0	0	
9	0	0	0	0	510	507	0	0	
10	0	0	0	0	509	508	0	0	
11	0	0	0	0	511	508	0	0	
12	0	0	0	0	513	507	0	0	
13	0	0	0	0	509	509	0	0	
14	0	0	0	0	509	508	0	0	
15	0	0	0	0	513	508	0	0	
0	0	0	0	0	513	508	0	0	
1	0	0	0	0	515	510	0	0	
2	0	0	0	0	516	508	0	0	
3	0	0	0	0	514	506	0	0	
4	0	0	0	0	513	509	0	0	
5	0	0	0	0	512	508	0	0	
6	0	0	0	0	512	508	0	0	
7	0	0	0	0	511	509	0	0	
8	0	0	0	0	511	507	0	0	
9	0	0	0	0	509	510	0	0	
10	0	0	0	0	510	510	0	0	
11	0	0	0	0	508	508	0	0	
12	0	0	0	0	508	505	0	0	
13	0	0	0	0	508	507	0	0	
14	0	0	0	0	508	508	0	0	
15	0	0	0	0	511	507	0	0	
0	0	0	0	0	510	508	0	0	
1	0	0	0	0	508	508	0	0	
2	0	0	0	0	511	510	0	0	
3	0	0	0	0	511	508	0	0	
4	0	0	0	0	514	507	0	0	
5	0	0	0	0	515	507	0	0	
6	0	0	0	0	513	507	0	0	
7	0	0	0	0	513	509	0	0	
8	0	0	0	0	514	508	0	0	
9	0	0	0	0	514	510	0	0	
10	0	0	0	0	513	509	0	0	
11	0	0	0	0	510	507	0	0	
12	0	0	0	0	509	508	0	0	
13	0	0	0	0	509	508	0	0	
14	0	0	0	0	507	506	0	0	
15	0	0	0	0	509	507	0	0	
0	0	0	0	0	508	511	0	0	
1	0	0	0	0	508	510	0	0	
2	0	0	0	0	509	507	0	0	
3	0	0	0	0	508	507	0	0	
4	0	0	0	0	508	507	0	0	
5	0	0	0	0	512	508	0	0	
6	0	0	0	0	514	509	0	0	
7	0	0	0	0	513	507	0	0	
8	0	0	0	0	513	508	0	0	
9	0	0	0	0	516	509	0	0	
10	0	0	0	0	517	508	0	0	
11	0	0	0	0	515	508	0	0	
12	0	0	0	0	515	510	0	0	
13	0	0	0	0	511	506	0	0	
14	0	0	0	0	510	507	0	0	
15	0	0	0	0	511	508	0	0	
0	0	0	0	0	510	510	0	0	
1	0	0	0	0	508	508	0	0	
2	0	0	0	0	508	509	0	0	
3	0	0	0	0	507	510	0	0	
4	0	0	0	0	506	508	0	0	
5	0	0	0	0	508	509	0	0	
6	0	0	0	0	507	508	0	0	
7	0	0	0	0	510	507	0	0	
8	0	0	0	0	511	508	0	0	
9	0	0	0	0	512	509	0	0	
10	0	0	0	0	514	508	0	0	
11	0	0	0	0	513	507	0	0	
12	0	0	0	0	515	508	0	0	
13	0	0	0	0	513	508	0	0	
14	0	0	0	0	515	509	0	0	
15	0	0	0	0	512	509	0	0	
0	0	0	0	0	512	508	0	0	
1	0	0	0	0	513	510	0	0	
2	0	0	0	0	512	510	0	0	
3	0	0	0	0	511	508	0	0	
4	0	0	0	0	511	507	0	0	
5	0	0	0	0	509	508	0	0	
6	0	0	0	0	509	507	0	0	
7	0	0	0	0	509	507	0	0	
8	0	0	0	0	507	507	0	0	
9	0	0	0	0	510	510	0	0	
10	0	0	0	0	512	510	0	0	
11	0	0	0	0	508	508	0	0	
12	0	0	0	0	510	508	0	0	
13	0	0	0	0	512	509	0	0	
14	0	0	0	0	512	507	0	0	
15	0	0	0	0	512	507	0	0	
0	0	0	0	0	515	507	0	0	
1	0	0	0	0	515	509	0	0	
2	0	0	0	0	514	507	0	0	
3	0	0	0	0	512	508	0	0	
4	0	0	0	0	513	508	0	0	
5	0	0	0	0	512	507	0	0	
6	0	0	0	0	511	510	0	0	
7	0	0	0	0	509	509	0	0	
8	0	0	0	0	510	508	0	0	
9	0	0	0	0	511	509	0	0	
10	0	0	0	0	506	507	0	0	
11	0	0	0	0	508	508	0	0	
12	0	0	0	0	509	507	0	0	
13	0	0	0	0	509	507	0	0	
14	0	0	0	0	508	508	0	0	
15	0	0	0	0	511	508	0	0	
0	0	0	0	0	510	508	0	0	
1	0	0	0	0	512	508	0	0	
2	0	0	0	0	512	509	0	0	
3	0	0	0	0	512	508	0	0	
4	0	0	0	0	514	507	0	0	
5	0	0	0	0	515	509	0	0	
6	0	0	0	0	513	509	0	0	
7	0	0	0	0	515	508	0	0	
8	0	0	0	0	515	507	0	0	
9	0	0	0	0	514	508	0	0	
10	0	0	0	0	509	508	0	0	
11	0	0	0	0	510	508	0	0	
12	0	0	0	0	509	509	0	0	
13	0	0	0	0	509	509	0	0	
14	0	0	0	0	507	508	0	0	
15	0	0	0	0	508	508	0	0	
0	0	0	0	0	508	506	0	0	
1	0	0	0	0	511	506	0	0	
2	0	0	0	0	510	507	0	0	
3	0	0	0	0	510	508	0	0	
4	0	0	0	0	509	509	0	0	
5	0	0	0	0	510	508	0	0	
6	0	0	0	0	515	508	0	0	
7	0	0	0	0	513	507	0	0	
8	0	0	0	0	514	509	0	0	
9	0	0	0	0	516	509	0	0	
10	0	0	0	0	514	507	0	0	
11	0	0	0	0	513	509	0	0	
12	0	0	0	0	512	508	0	0	
13	0	0	0	0	514	508	0	0	
14	0	0	0	0	512	508	0	0	
15	0	0	0	0	510	508	0	0	
0	0	0	0	0	510	508	0	0	
1	0	0	0	0	511	508	0	0	
2	0	0	0	0	508	509	0	0	
3	0	0	0	0	508	507	0	0	
4	0	0	0	0	510	509	0	0	
5	0	0	0	0	508	508	0	0	
6	0	0	0	0	507	508	0	0	
7	0	0	0	0	508	509	0	0	
8	0	0	0	0	510	510	0	0	
9	0	0	0	0	511	507	0	0	
10	0	0	0	0	513	507	0	0	
11	0	0	0	0	514	507	0	0	
12	0	0	0	0	512	508	0	0	
13	0	0	0	0	513	509	0	0	
14	0	0	0	0	512	508	0	0	
15	0	0	0	0	512	508	0	0	
0	0	0	0	0	513	508	0	0	
1	0	0	0	0	514	507	0	0	
2	0	0	0	0	512	507	0	0	
3	0	0	0	0	513	508	0	0	
4	0	0	0	0	508	509	0	0	
5	0	0	0	0	511	508	0	0	
6	0	0	0	0	508	508	0	0	
7	0	0	0	0	506	508	0	0	
8	0	0	0	0	509	507	0	0	
9	0	0	0	0	508	509	0	0	
10	0	0	0	0	508	509	0	0	
11	0	0	0	0	509	507	0	0	
12	0	0	0	0	510	510	0	0	
13	0	0	0	0	515	508	0	0	
14	0	0	0	0	511	508	0	0	
15	0	0	0	0	511	507	0	0	
0	0	0	0	0	514	509	0	0	
1	0	0	0	0	514	508	0	0	
2	0	0	0	0	515	508	0	0	
3	0	0	0	0	515	509	0	0	
4	0	0	0	0	514	509	0	0	
5	0	0	0	0	512	507	0	0	
6	0	0	0	0	511	506	0	0	
7	0	0	0	0	511	508	0	0	
8	0	0	0	0	511	509	0	0	
9	0	0	0	0	511	508	0	0	
10	0	0	0	0	508	509	0	0	
11	0	0	0	0	509	507	0	0	
12	0	0	0	0	508	507	0	0	
13	0	0	0	0	508	507	0	0	
14	0	0	0	0	506	507	0	0	
15	0	0	0	0	510	506	0	0	
0	0	0	0	0	508	511	0	0	
1	0	0	0	0	510	508	0	0	
2	0	0	0	0	512	510	0	0	
3	0	0	0	0	514	508	0	0	
4	0	0	0	0	513	509	0	0	
5	0	0	0	0	514	507	0	0	
6	0	0	0	0	514	508	0	0	
7	0	0	0	0	513	508	0	0	
8	0	0	0	0	512	508	0	0	
9	0	0	0	0	511	508	0	0	
10	0	0	0	0	511	510	0	0	
11	0	0	0	0	510	507	0	0	
12	0	0	0	0	511	509	0	0	
13	0	0	0	0	509	508	0	0	
14	0	0	0	0	509	508	0	0	
15	0	0	0	0	509	506	0	0	
0	0	0	0	0	511	508	0	0	
1	0	0	0	0	510	508	0	0	
2	0	0	0	0	512	508	0	0	
3	0	0	0	0	511	507	0	0	
4	0	0	0	0	511	508	0	0	
5	0	0	0	0	511	508	0	0	
6	0	0	0	0	513	508	0	0	
7	0	0	0	0	512	508	0	0	
8	0	0	0	0	514	507	0	0	
9	0	0	0	0	514	510	0	0	
10	0	0	0	0	513	507	0	0	
11	0	0	0	0	513	509	0	0	
12	0	0	0	0	512	508	0	0	
13	0	0	0	0	512	508	0	0	
14	0	0	0	0	512	508	0	0	
15	0	0	0	0	510	508	0	0	
0	0	0	0	0	507	509	0	0	
1	0	0	0	0	509	508	0	0	
2	0	0	0	0	510	509	0	0	
3	0	0	0	0	507	507	0	0	
4	0	0	0	0	508	509	0	0	
5	0	0	0	0	508	508	0	0	
6	0	0	0	0	509	509	0	0	
7	0	0	0	0	510	508	0	0	
8	0	0	0	0	510	508	0	0	
9	0	0	0	0	511	509	0	0	
10	0	0	0	0	514	507	0	0	
11	0	0	0	0	512	508	0	0	
12	0	0	0	0	513	508	0	0	
13	0	0	0	0	513	508	0	0	
14	0	0	0	0	512	506	0	0	
15	0	0	0	0	513	508	0	0	
0	0	0	0	0	514	510	0	0	
1	0	0	0	0	511	508	0	0	
2	0	0	0	0	514	506	0	0	
3	0	0	0	0	513	508	0	0	
4	0	0	0	0	508	508	0	0	
5	0	0	0	0	510	507	0	0	
6	0	0	0	0	508	508	0	0	
7	0	0	0	0	509	507	0	0	
8	0	0	0	0	508	508	0	0	
9	0	0	0	0	507	508	0	0	
10	0	0	0	0	508	509	0	0	
11	0	0	0	0	509	508	0	0	
12	0	0	0	0	511	508	0	0	
13	0	0	0	0	512	506	0	0	
14	0	0	0	0	511	507	0	0	
15	0	0	0	0	512	507	0	0	
0	0	0	0	0	513	509	0	0	
1	0	0	0	0	514	510	0	0	
2	0	0	0	0	514	508	0	0	
3	0	0	0	0	513	508	0	0	
4	0	0	0	0	513	508	0	0	
5	0	0	0	0	513	508	0	0	
6	0	0	0	0	513	508	0	0	
7	0	0	0	0	511	507	0	0	
8	0	0	0	0	508	508	0	0	
9	0	0	0	0	511	508	0	0	
10	0	0	0	0	508	507	0	0	
11	0	0	0	0	507	509	0	0	
12	0	0	0	0	509	509	0	0	
13	0	0	0	0	510	509	0	0	
14	0	0	0	0	510	507	0	0	
15	0	0	0	0	510	507	0	0	
0	0	0	0	0	510	507	0	0	
1	0	0	0	0	512	511	0	0	
2	0	0	0	0	513	508	0	0	
3	0	0	0	0	511	507	0	0	
4	0	0	0	0	515	507	0	0	
5	0	0	0	0	515	509	0	0	
6	0	0	0	0	514	507	0	0	
7	0	0	0	0	514	509	0	0	
8	0	0	0	0	514	507	0	0	
9	0	0	0	0	512	510	0	0	
10	0	0	0	0	511	507	0	0	
11	0	0	0	0	512	509	0	0	
12	0	0	0	0	508	508	0	0	
13	0	0	0	0	511	508	0	0	
14	0	0	0	0	508	509	0	0	
15	0	0	0	0	508	507	0	0	
0	0	0	0	0	510	510	0	0	
1	0	0	0	0	508	506	0	0	
2	0	0	0	0	507	510	0	0	
3	0	0	0	0	509	508	0	0	
4	0	0	0	0	507	506	0	0	
5	0	0	0	0	511	508	0	0	
6	0	0	0	0	512	510	0	0	
7	0	0	0	0	512	508	0	0	
8	0	0	0	0	515	507	0	0	
9	0	0	0	0	515	507	0	0	
10	0	0	0	0	513	506	0	0	
11	0	0	0	0	514	508	0	0	
12	0	0	0	0	515	508	0	0	
13	0	0	0	0	512	507	0	0	
14	0	0	0	0	512	509	0	0	
15	0	0	0	0	510	510	0	0	
0	0	0	0	0	511	507	0	0	
1	0	0	0	0	510	509	0	0	
2	0	0	0	0	508	506	0	0	
3	0	0	0	0	508	508	0	0	
4	0	0	0	0	507	507	0	0	
5	0	0	0	0	510	508	0	0	
6	0	0	0	0	507	508	0	0	
7	0	0	0	0	509	508	0	0	
8	0	0	0	0	510	509	0	0	
9	0	0	0	0	512	510	0	0	
10	0	0	0	0	513	508	0	0	
11	0	0	0	0	513	507	0	0	
12	0	0	0	0	514	508	0	0	
13	0	0	0	0	513	507	0	0	
14	0	0	0	0	515	509	0	0	
15	0	0	0	0	513	509	0	0	
0	0	0	0	0	513	506	0	0	
1	0	0	0	0	512	507	0	0	
2	0	0	0	0	512	508	0	0	
3	0	0	0	0	512	508	0	0	
4	0	0	0	0	511	508	0	0	
5	0	0	0	0	510	508	0	0	
6	0	0	0	0	507	508	0	0	
7	0	0	0	0	508	508	0	0	
8	0	0	0	0	508	510	0	0	
9	0	0	0	0	509	510	0	0	
10	0	0	0	0	509	510	0	0	
11	0	0	0	0	509	507	0	0	
12	0	0	0	0	512	509	0	0	
13	0	0	0	0	512	508	0	0	
14	0	0	0	0	513	508	0	0	
15	0	0	0	0	512	510	0	0	
0	0	0	0	0	512	507	0	0	
1	0	0	0	0	513	508	0	0	
2	0	0	0	0	513	507	0	0	
3	0	0	0	0	513	508	0	0	
4	0	0	0	0	513	507	0	0	
5	0	0	0	0	512	509	0	0	
6	0	0	0	0	513	508	0	0	
7	0	0	0	0	509	508	0	0	
8	0	0	0	0	512	508	0	0	
9	0	0	0	0	509	508	0	0	
10	0	0	0	0	509	507	0	0	
11	0	0	0	0	507	510	0	0	
12	0	0	0	0	507	510	0	0	
13	0	0	0	0	509	508	0	0	
14	0	0	0	0	507	509	0	0	
15	0	0	0	0	510	508	0	0	
0	0	0	0	0	511	507	0	0	
1	0	0	0	0	512	508	0	0	
2	0	0	0	0	511	508	0	0	
3	0	0	0	0	514	506	0	0	
4	0	0	0	0	513	507	0	0	
5	0	0	0	0	516	507	0	0	
6	0	0	0	0	513	508	0	0	
7	0	0	0	0	513	508	0	0	
8	0	0	0	0	512	508	0	0	
9	0	0	0	0	513	508	0	0	
10	0	0	0	0	512	509	0	0	
11	0	0	0	0	511	507	0	0	
12	0	0	0	0	512	509	0	0	
13	0	0	0	0	512	508	0	0	
14	0	0	0	0	508	508	0	0	
15	0	0	0	0	508	509	0	0	
0	0	0	0	0	509	508	0	0	
1	0	0	0	0	508	507	0	0	
2	0	0	0	0	508	508	0	0	
3	0	0	0	0	510	509	0	0	
4	0	0	0	0	509	508	0	0	
5	0	0	0	0	510	509	0	0	
6	0	0	0	0	512	507	0	0	
7	0	0	0	0	512	508	0	0	
8	0	0	0	0	512	510	0	0	
9	0	0	0	0	516	509	0	0	
10	0	0	0	0	515	509	0	0	
11	0	0	0	0	513	506	0	0	
12	0	0	0	0	513	507	0	0	
13	0	0	0	0	511	508	0	0	
14	0	0	0	0	511	508	0	0	
15	0	0	0	0	511	506	0	0	
0	0	0	0	0	509	507	0	0	
1	0	0	0	0	509	507	0	0	
2	0	0	0	0	509	508	0	0	
3	0	0	0	0	507	508	0	0	
4	0	0	0	0	509	508	0	0	
5	0	0	0	0	511	508	0	0	
6	0	0	0	0	510	507	0	0	
7	0	0	0	0	510	508	0	0	
8	0	0	0	0	510	509	0	0	
9	0	0	0	0	511	507	0	0	
10	0	0	0	0	513	508	0	0	
11	0	0	0	0	516	507	0	0	
12	0	0	0	0	513	509	0	0	
13	0	0	0	0	514	509	0	0	
14	0	0	0	0	514	508	0	0	
15	0	0	0	0	516	508	0	0	
0	0	0	0	0	511	508	0	0	
1	0	0	0	0	511	507	0	0	
2	0	0	0	0	513	508	0	0	
3	0	0	0	0	511	509	0	0	
4	0	0	0	0	511	507	0	0	
5	0	0	0	0	510	507	0	0	
6	0	0	0	0	507	507	0	0	
7	0	0	0	0	508	510	0	0	
8	0	0	0	0	508	507	0	0	
9	0	0	0	0	509	509	0	0	
10	0	0	0	0	510	509	0	0	
11	0	0	0	0	511	510	0	0	
12	0	0	0	0	512	508	0	0	
13	0	0	0	0	513	507	0	0	
14	0	0	0	0	509	509	0	0	
15	0	0	0	0	511	508	0	0	
0	0	0	0	0	513	506	0	0	
1	0	0	0	0	514	508	0	0	
2	0	0	0	0	513	509	0	0	
3	0	0	0	0	513	508	0	0	
4	0	0	0	0	513	508	0	0	
5	0	0	0	0	512	508	0	0	
6	0	0	0	0	511	507	0	0	
7	0	0	0	0	511	508	0	0	
8	0	0	0	0	508	508	0	0	
9	0	0	0	0	509	508	0	0	
10	0	0	0	0	510	507	0	0	
11	0	0	0	0	507	508	0	0	
12	0	0	0	0	510	509	0	0	
13	0	0	0	0	507	508	0	0	
14	0	0	0	0	509	507	0	0	
15	0	0	0	0	509	508	0	0	
0	0	0	0	0	509	509	0	0	
1	0	0	0	0	511	510	0	0	
2	0	0	0	0	512	507	0	0	
3	0	0	0	0	512	507	0	0	
4	0	0	0	0	514	508	0	0	
5	0	0	0	0	515	509	0	0	
6	0	0	0	0	512	507	0	0	
7	0	0	0	0	512	508	0	0	
8	0	0	0	0	514	508	0	0	
9	0	0	0	0	513	508	0	0	
10	0	0	0	0	511	509	0	0	
11	0	0	0	0	512	507	0	0	
12	0	0	0	0	511	507	0	0	
13	0	0	0	0	508	508	0	0	
14	0	0	0	0	507	510	0	0	
15	0	0	0	0	507	508	0	0	
0	0	0	0	0	506	508	0	0	
1	0	0	0	0	507	508	0	0	
2	0	0	0	0	510	508	0	0	
3	0	0	0	0	510	508	0	0	
4	0	0	0	0	511	508	0	0	
5	0	0	0	0	511	510	0	0	
6	0	0	0	0	512	508	0	0	
7	0	0	0	0	513	507	0	0	
8	0	0	0	0	513	506	0	0	
9	0	0	0	0	515	508	0	0	
10	0	0	0	0	514	507	0	0	
11	0	0	0	0	513	506	0	0	
12	0	0	0	0	514	509	0	0	
13	0	0	0	0	512	508	0	0	
14	0	0	0	0	512	508	0	0	
15	0	0	0	0	510	507	0	0	
0	0	0	0	0	510	508	0	0	
1	0	0	0	0	511	509	0	0	
2	0	0	0	0	510	508	0	0	
3	0	0	0	0	506	508	0	0	
4	0	0	0	0	508	508	0	0	
5	0	0	0	0	507	507	0	0	
6	0	0	0	0	509	509	0	0	
7	0	0	0	0	509	508	0	0	
8	0	0	0	0	511	509	0	0	
9	0	0	0	0	514	508	0	0	
10	0	0	0	0	513	510	0	0	
11	0	0	0	0	513	508	0	0	
12	0	0	0	0	515	508	0	0	
13	0	0	0	0	514	507	0	0	
14	0	0	0	0	514	507	0	0	
15	0	0	0	0	515	508	0	0	
0	0	0	0	0	512	507	0	0	
1	0	0	0	0	512	509	0	0	
2	0	0	0	0	512	509	0	0	
3	0	0	0	0	512	507	0	0	
4	0	0	0	0	512	507	0	0	
5	0	0	0	0	508	509	0	0	
6	0	0	0	0	506	509	0	0	
7	0	0	0	0	509	506	0	0	
8	0	0	0	0	508	508	0	0	
9	0	0	0	0	509	507	0	0	
10	0	0	0	0	508	510	0	0	
11	0	0	0	0	509	510	0	0	
12	0	0	0	0	510	511	0	0	
13	0	0	0	0	511	507	0	0	
14	0	0	0	0	511	507	0	0	
15	0	0	0	0	513	505	0	0	
0	0	0	0	0	513	507	0	0	
1	0	0	0	0	513	506	0	0	
2	0	0	0	0	512	509	0	0	
3	0	0	0	0	513	508	0	0	
4	0	0	0	0	512	508	0	0	
5	0	0	0	0	511	507	0	0	
6	0	0	0	0	513	508	0	0	
7	0	0	0	0	513	508	0	0	
8	0	0	0	0	510	509	0	0	
9	0	0	0	0	509	508	0	0	
10	0	0	0	0	507	506	0	0	
11	0	0	0	0	507	508	0	0	
12	0	0	0	0	507	508	0	0	
13	0	0	0	0	506	508	0	0	
14	0	0	0	0	510	509	0	0	
15	0	0	0	0	511	508	0	0	
0	0	0	0	0	512	509	0	0	
1	0	0	0	0	513	507	0	0	
2	0	0	0	0	512	509	0	0	
3	0	0	0	0	515	508	0	0	
4	0	0	0	0	514	508	0	0	
5	0	0	0	0	515	507	0	0	
6	0	0	0	0	513	507	0	0	
7	0	0	0	0	511	507	0	0	
8	0	0	0	0	512	508	0	0	
9	0	0	0	0	513	507	0	0	
10	0	0	0	0	512	508	0	0	
11	0	0	0	0	510	508	0	0	
12	0	0	0	0	510	509	0	0	
13	0	0	0	0	511	507	0	0	
14	0	0	0	0	511	507	0	0	
15	0	0	0	0	508	505	0	0	
0	0	0	0	0	506	508	0	0	
1	0	0	0	0	508	507	0	0	
2	0	0	0	0	510	509	0	0	
3	0	0	0	0	509	508	0	0	
4	0	0	0	0	511	509	0	0	
5	0	0	0	0	510	507	0	0	
6	0	0	0	0	513	507	0	0	
7	0	0	0	0	511	509	0	0	
8	0	0	0	0	513	508	0	0	
9	0	0	0	0	513	509	0	0	
10	0	0	0	0	515	509	0	0	
11	0	0	0	0	515	510	0	0	
12	0	0	0	0	514	508	0	0	
13	0	0	0	0	512	509	0	0	
14	0	0	0	0	511	508	0	0	
15	0	0	0	0	508	509	0	0	
0	0	0	0	0	509	505	0	0	
1	0	0	0	0	507	508	0	0	
2	0	0	0	0	507	508	0	0	
3	0	0	0	0	508	509	0	0	
4	0	0	0	0	509	509	0	0	
5	0	0	0	0	508	507	0	0	
6	0	0	0	0	509	509	0	0	
7	0	0	0	0	509	508	0	0	
8	0	0	0	0	510	509	0	0	
9	0	0	0	0	512	509	0	0	
10	0	0	0	0	513	507	0	0	
11	0	0	0	0	512	506	0	0	
12	0	0	0	0	514	508	0	0	
13	0	0	0	0	515	508	0	0	
14	0	0	0	0	517	509	0	0	
15	0	0	0	0	512	510	0	0	
0	0	0	0	0	515	508	0	0	
1	0	0	0	0	514	506	0	0	
2	0	0	0	0	512	510	0	0	
3	0	0	0	0	511	507	0	0	
4	0	0	0	0	508	506	0	0	
5	0	0	0	0	508	505	0	0	
6	0	0	0	0	509	508	0	0	
7	0	0	0	0	509	506	0	0	
8	0	0	0	0	508	508	0	0	
9	0	0	0	0	506	508	0	0	
10	0	0	0	0	507	509	0	0	
11	0	0	0	0	507	509	0	0	
12	0	0	0	0	510	508	0	0	
13	0	0	0	0	512	508	0	0	
14	0	0	0	0	512	509	0	0	
15	0	0	0	0	512	507	0	0	
0	0	0	0	0	512	507	0	0	
1	0	0	0	0	514	508	0	0	
2	0	0	0	0	517	509	0	0	
3	0	0	0	0	516	510	0	0	
4	0	0	0	0	516	508	0	0	
5	0	0	0	0	512	508	0	0	
6	0	0	0	0	512	507	0	0	
7	0	0	0	0	511	508	0	0	
8	0	0	0	0	510	508	0	0	
9	0	0	0	0	510	507	0	0	
10	0	0	0	0	507	507	0	0	
11	0	0	0	0	509	507	0	0	
12	0	0	0	0	507	509	0	0	
13	0	0	0	0	506	508	0	0	
14	0	0	0	0	506	509	0	0	
15	0	0	0	0	507	508	0	0	
0	0	0	0	0	507	510	0	0	
1	0	0	0	0	512	509	0	0	
2	0	0	0	0	516	509	0	0	
3	0	0	0	0	515	509	0	0	
4	0	0	0	0	515	508	0	0	
5	0	0	0	0	515	508	0	0	
6	0	0	0	0	514	505	0	0	
7	0	0	0	0	514	508	0	0	
8	0	0	0	0	515	508	0	0	
9	0	0	0	0	515	508	0	0	
10	0	0	0	0	510	506	0	0	
11	0	0	0	0	508	507	0	0	
12	0	0	0	0	510	510	0	0	
13	0	0	0	0	511	508	0	0	
14	0	0	0	0	504	508	0	0	
15	0	0	0	0	509	507	0	0	
0	0	0	0	0	509	508	0	0	
1	0	0	0	0	508	508	0	0	
2	0	0	0	0	507	508	0	0	
3	0	0	0	0	509	508	0	0	
4	0	0	0	0	512	509	0	0	
5	0	0	0	0	511	508	0	0	
6	0	0	0	0	511	510	0	0	
7	0	0	0	0	511	508	0	0	
8	0	0	0	0	515	507	0	0	
9	0	0	0	0	513	509	0	0	
10	0	0	0	0	513	508	0	0	
11	0	0	0	0	514	508	0	0	
12	0	0	0	0	513	507	0	0	
13	0	0	0	0	511	507	0	0	
14	0	0	0	0	510	508	0	0	
15	0	0	0	0	511	506	0	0	
0	0	0	0	0	510	510	0	0	
1	0	0	0	0	509	507	0	0	
2	0	0	0	0	508	509	0	0	
3	0	0	0	0	508	508	0	0	
4	0	0	0	0	508	508	0	0	
5	0	0	0	0	508	508	0	0	
6	0	0	0	0	508	507	0	0	
7	0	0	0	0	511	507	0	0	
8	0	0	0	0	510	508	0	0	
9	0	0	0	0	511	508	0	0	
10	0	0	0	0	511	508	0	0	
11	0	0	0	0	513	509	0	0	
12	0	0	0	0	514	509	0	0	
13	0	0	0	0	513	507	0	0	
14	0	0	0	0	514	510	0	0	
15	0	0	0	0	514	508	0	0	
0	0	0	0	0	512	506	0	0	
1	0	0	0	0	513	507	0	0	
2	0	0	0	0	512	508	0	0	
3	0	0	0	0	510	508	0	0	
4	0	0	0	0	509	508	0	0	
5	0	0	0	0	508	510	0	0	
6	0	0	0	0	509	508	0	0	
7	0	0	0	0	509	510	0	0	
8	0	0	0	0	510	510	0	0	
9	0	0	0	0	510	508	0	0	
10	0	0	0	0	510	508	0	0	
11	0	0	0	0	508	505	0	0	
12	0	0	0	0	511	509	0	0	
13	0	0	0	0	509	506	0	0	
14	0	0	0	0	512	507	0	0	
15	0	0	0	0	512	509	0	0	
0	0	0	0	0	511	510	0	0	
1	0	0	0	0	514	507	0	0	
2	0	0	0	0	516	508	0	0	
3	0	0	0	0	516	509	0	0	
4	0	0	0	0	515	510	0	0	
5	0	0	0	0	510	509	0	0	
6	0	0	0	0	511	508	0	0	
7	0	0	0	0	510	510	0	0	
8	0	0	0	0	510	506	0	0	
9	0	0	0	0	511	506	0	0	
10	0	0	0	0	510	508	0	0	
11	0	0	0	0	507	507	0	0	
12	0	0	0	0	508	508	0	0	
13	0	0	0	0	507	509	0	0	
14	0	0	0	0	509	509	0	0	
15	0	0	0	0	509	507	0	0	
0	0	0	0	0	513	510	0	0	
1	0	0	0	0	518	510	0	0	
2	0	0	0	0	514	508	0	0	
3	0	0	0	0	512	509	0	0	
4	0	0	0	0	512	507	0	0	
5	0	0	0	0	514	508	0	0	
6	0	0	0	0	515	507	0	0	
7	0	0	0	0	515	508	0	0	
8	0	0	0	0	514	509	0	0	
9	0	0	0	0	513	510	0	0	
10	0	0	0	0	511	508	0	0	
11	0	0	0	0	508	507	0	0	
12	0	0	0	0	509	508	0	0	
13	0	0	0	0	508	508	0	0	
14	0	0	0	0	507	508	0	0	
15	0	0	0	0	507	510	0	0	
0	0	0	0	0	507	507	0	0	
1	0	0	0	0	509	508	0	0	
2	0	0	0	0	511	507	0	0	
3	0	0	0	0	511	507	0	0	
4	0	0	0	0	511	507	0	0	
5	0	0	0	0	512	506	0	0	
6	0	0	0	0	511	508	0	0	
7	0	0	0	0	509	509	0	0	
8	0	0	0	0	506	509	0	0	
9	0	0	0	0	512	511	0	0	
10	0	0	0	0	515	508	0	0	
11	0	0	0	0	516	508	0	0	
12	0	0	0	0	515	508	0	0	
13	0	0	0	0	512	508	0	0	
14	0	0	0	0	514	508	0	0	
15	0	0	0	0	512	509	0	0	
0	0	0	0	0	508	508	0	0	
1	0	0	0	0	511	509	0	0	
2	0	0	0	0	508	508	0	0	
3	0	0	0	0	510	506	0	0	
4	0	0	0	0	511	509	0	0	
5	0	0	0	0	507	507	0	0	
6	0	0	0	0	509	510	0	0	
7	0	0	0	0	509	507	0	0	
8	0	0	0	0	511	508	0	0	
9	0	0	0	0	513	508	0	0	
10	0	0	0	0	513	509	0	0	
11	0	0	0	0	512	507	0	0	
12	0	0	0	0	515	507	0	0	
13	0	0	0	0	515	507	0	0	
14	0	0	0	0	514	507	0	0	
15	0	0	0	0	511	508	0	0	
0	0	0	0	0	511	508	0	0	
1	0	0	0	0	516	508	0	0	
2	0	0	0	0	508	507	0	0	
3	0	0	0	0	504	508	0	0	
4	0	0	0	0	509	506	0	0	
5	0	0	0	0	509	508	0	0	
6	0	0	0	0	508	509	0	0	
7	0	0	0	0	510	509	0	0	
8	0	0	0	0	508	511	0	0	
9	0	0	0	0	509	508	0	0	
10	0	0	0	0	509	507	0	0	
11	0	0	0	0	510	509	0	0	
12	0	0	0	0	511	508	0	0	
13	0	0	0	0	511	508	0	0	
14	0	0	0	0	515	509	0	0	
15	0	0	0	0	514	508	0	0	
0	0	0	0	0	511	508	0	0	
1	0	0	0	0	513	508	0	0	
2	0	0	0	0	516	508	0	0	
3	0	0	0	0	516	507	0	0	
4	0	0	0	0	513	505	0	0	
5	0	0	0	0	513	509	0	0	
6	0	0	0	0	513	511	0	0	
7	0	0	0	0	512	507	0	0	
8	0	0	0	0	510	508	0	0	
9	0	0	0	0	509	507	0	0	
10	0	0	0	0	507	508	0	0	
11	0	0	0	0	508	509	0	0	
12	0	0	0	0	507	507	0	0	
13	0	0	0	0	507	508	0	0	
14	0	0	0	0	509	508	0	0	
15	0	0	0	0	508	508	0	0	
0	0	0	0	0	510	509	0	0	
1	0	0	0	0	511	510	0	0	
2	0	0	0	0	511	506	0	0	
3	0	0	0	0	515	508	0	0	
4	0	0	0	0	516	508	0	0	
5	0	0	0	0	515	510	0	0	
6	0	0	0	0	512	508	0	0	
7	0	0	0	0	513	508	0	0	
8	0	0	0	0	511	510	0	0	
9	0	0	0	0	513	508	0	0	
10	0	0	0	0	513	508	0	0	
11	0	0	0	0	511	508	0	0	
12	0	0	0	0	512	508	0	0	
13	0	0	0	0	510	506	0	0	
14	0	0	0	0	509	505	0	0	
15	0	0	0	0	508	508	0	0	
0	0	0	0	0	511	510	0	0	
1	0	0	0	0	503	508	0	0	
2	0	0	0	0	501	509	0	0	
3	0	0	0	0	509	510	0	0	
4	0	0	0	0	512	510	0	0	
5	0	0	0	0	513	508	0	0	
6	0	0	0	0	515	508	0	0	
7	0	0	0	0	519	508	0	0	
8	0	0	0	0	516	506	0	0	
9	0	0	0	0	511	507	0	0	
10	0	0	0	0	507	508	0	0	
11	0	0	0	0	509	509	0	0	
12	0	0	0	0	511	508	0	0	
13	0	0	0	0	504	507	0	0	
14	0	0	0	0	505	508	0	0	
15	0	0	0	0	507	509	0	0	
0	0	0	0	0	511	508	0	0	
1	0	0	0	0	510	507	0	0	
2	0	0	0	0	511	508	0	0	
3	0	0	0	0	513	508	0	0	
4	0	0	0	0	513	508	0	0	
5	0	0	0	0	512	508	0	0	
6	0	0	0	0	514	508	0	0	
7	0	0	0	0	510	507	0	0	
8	0	0	0	0	508	508	0	0	
9	0	0	0	0	508	510	0	0	
10	0	0	0	0	512	509	0	0	
11	0	0	0	0	513	508	0	0	
12	0	0	0	0	522	508	0	0	
13	0	0	0	0	526	507	0	0	
14	0	0	0	0	516	505	0	0	
15	0	0	0	0	512	506	0	0	
0	0	0	0	0	511	509	0	0	
1	0	0	0	0	512	509	0	0	
2	0	0	0	0	511	509	0	0	
3	0	0	0	0	509	508	0	0	
4	0	0	0	0	510	508	0	0	
5	0	0	0	0	503	510	0	0	
6	0	0	0	0	508	508	0	0	
7	0	0	0	0	507	506	0	0	
8	0	0	0	0	507	508	0	0	
9	0	0	0	0	505	505	0	0	
10	0	0	0	0	507	507	0	0	
11	0	0	0	0	507	508	0	0	
12	0	0	0	0	510	508	0	0	
13	0	0	0	0	512	510	0	0	
14	0	0	0	0	515	508	0	0	
15	0	0	0	0	515	509	0	0	
0	0	0	0	0	515	508	0	0	
1	0	0	0	0	513	508	0	0	
2	0	0	0	0	511	507	0	0	
3	0	0	0	0	508	508	0	0	
4	0	0	0	0	510	507	0	0	
5	0	0	0	0	515	508	0	0	
6	0	0	0	0	513	508	0	0	
7	0	0	0	0	512	507	0	0	
8	0	0	0	0	514	508	0	0	
9	0	0	0	0	511	507	0	0	
10	0	0	0	0	510	507	0	0	
11	0	0	0	0	510	509	0	0	
12	0	0	0	0	512	510	0	0	
13	0	0	0	0	511	508	0	0	
14	0	0	0	0	510	509	0	0	
15	0	0	0	0	513	509	0	0	
0	0	0	0	0	507	508	0	0	
1	0	0	0	0	506	509	0	0	
2	0	0	0	0	508	507	0	0	
3	0	0	0	0	509	509	0	0	
4	0	0	0	0	510	508	0	0	
5	0	0	0	0	511	508	0	0	
6	0	0	0	0	507	508	0	0	
7	0	0	0	0	504	507	0	0	
8	0	0	0	0	507	511	0	0	
9	0	0	0	0	512	510	0	0	
10	0	0	0	0	512	507	0	0	
11	0	0	0	0	516	507	0	0	
12	0	0	0	0	519	507	0	0	
13	0	0	0	0	526	510	0	0	
14	0	0	0	0	513	506	0	0	
15	0	0	0	0	508	505	0	0	
0	0	0	0	0	507	507	0	0	
1	0	0	0	0	507	505	0	0	
2	0	0	0	0	507	506	0	0	
3	0	0	0	0	508	507	0	0	
4	0	0	0	0	510	508	0	0	
5	0	0	0	0	509	508	0	0	
6	0	0	0	0	513	508	0	0	
7	0	0	0	0	511	508	0	0	
8	0	0	0	0	513	508	0	0	
9	0	0	0	0	516	510	0	0	
10	0	0	0	0	519	509	0	0	
11	0	0	0	0	518	508	0	0	
12	0	0	0	0	515	507	0	0	
13	0	0	0	0	516	508	0	0	
14	0	0	0	0	515	509	0	0	
15	0	0	0	0	505	508	0	0	
0	0	0	0	0	501	510	0	0	
1	0	0	0	0	499	507	0	0	
2	0	0	0	0	504	508	0	0	
3	0	0	0	0	509	507	0	0	
4	0	0	0	0	509	508	0	0	
5	0	0	0	0	508	508	0	0	
6	0	0	0	0	511	508	0	0	
7	0	0	0	0	514	510	0	0	
8	0	0	0	0	513	508	0	0	
9	0	0	0	0	513	508	0	0	
10	0	0	0	0	512	508	0	0	
11	0	0	0	0	511	510	0	0	
12	0	0	0	0	513	510	0	0	
13	0	0	0	0	513	507	0	0	
14	0	0	0	0	513	507	0	0	
15	0	0	0	0	513	505	0	0	
0	0	0	0	0	513	507	0	0	
1	0	0	0	0	514	507	0	0	
2	0	0	0	0	513	507	0	0	
3	0	0	0	0	511	509	0	0	
4	0	0	0	0	516	509	0	0	
5	0	0	0	0	515	508	0	0	
6	0	0	0	0	503	508	0	0	
7	0	0	0	0	500	510	0	0	
8	0	0	0	0	502	509	0	0	
9	0	0	0	0	506	509	0	0	
10	0	0	0	0	508	508	0	0	
11	0	0	0	0	504	508	0	0	
12	0	0	0	0	506	507	0	0	
13	0	0	0	0	512	509	0	0	
14	0	0	0	0	508	508	0	0	
15	0	0	0	0	509	508	0	0	
0	0	0	0	0	512	511	0	0	
1	0	0	0	0	515	509	0	0	
2	0	0	0	0	526	508	0	0	
3	0	0	0	0	517	508	0	0	
4	0	0	0	0	511	509	0	0	
5	0	0	0	0	514	508	0	0	
6	0	0	0	0	523	507	0	0	
7	0	0	0	0	513	505	0	0	
8	0	0	0	0	505	505	0	0	
9	0	0	0	0	512	508	0	0	
10	0	0	0	0	514	508	0	0	
11	0	0	0	0	512	506	0	0	
12	0	0	0	0	514	508	0	0	
13	0	0	0	0	511	508	0	0	
14	0	0	0	0	510	509	0	0	
15	0	0	0	0	506	507	0	0	
0	0	0	0	0	506	508	0	0	
1	0	0	0	0	507	510	0	0	
2	0	0	0	0	508	511	0	0	
3	0	0	0	0	512	509	0	0	
4	0	0	0	0	509	508	0	0	
5	0	0	0	0	508	507	0	0	
6	0	0	0	0	508	509	0	0	
7	0	0	0	0	511	508	0	0	
8	0	0	0	0	513	509	0	0	
9	0	0	0	0	513	509	0	0	
10	0	0	0	0	512	507	0	0	
11	0	0	0	0	510	508	0	0	
12	0	0	0	0	510	507	0	0	
13	0	0	0	0	511	508	0	0	
14	0	0	0	0	505	506	0	0	
15	0	0	0	0	504	510	0	0	
0	0	0	0	0	507	509	0	0	
1	0	0	0	0	510	508	0	0	
2	0	0	0	0	511	508	0	0	
3	0	0	0	0	513	508	0	0	
4	0	0	0	0	509	504	0	0	
5	0	0	0	0	508	505	0	0	
6	0	0	0	0	520	508	0	0	
7	0	0	0	0	519	509	0	0	
8	0	0	0	0	515	510	0	0	
9	0	0	0	0	511	508	0	0	
10	0	0	0	0	513	508	0	0	
11	0	0	0	0	514	508	0	0	
12	0	0	0	0	517	508	0	0	
13	0	0	0	0	515	510	0	0	
14	0	0	0	0	524	509	0	0	
15	0	0	0	0	515	506	0	0	
0	0	0	0	0	508	505	0	0	
1	0	0	0	0	504	508	0	0	
2	0	0	0	0	504	508	0	0	
3	0	0	0	0	507	507	0	0	
4	0	0	0	0	504	510	0	0	
5	0	0	0	0	504	510	0	0	
6	0	0	0	0	508	510	0	0	
7	0	0	0	0	510	508	0	0	
8	0	0	0	0	505	509	0	0	
9	0	0	0	0	503	509	0	0	
10	0	0	0	0	499	507	0	0	
11	0	0	0	0	499	509	0	0	
12	0	0	0	0	525	508	0	0	
13	0	0	0	0	536	505	0	0	
14	0	0	0	0	523	505	0	0	
15	0	0	0	0	509	505	0	0	
0	0	0	0	0	507	508	0	0	
1	0	0	0	0	509	509	0	0	
2	0	0	0	0	509	508	0	0	
3	0	0	0	0	510	506	0	0	
4	0	0	0	0	512	507	0	0	
5	0	0	0	0	515	507	0	0	
6	0	0	0	0	519	509	0	0	
7	0	0	0	0	516	507	0	0	
8	0	0	0	0	511	509	0	0	
9	0	0	0	0	522	509	0	0	
10	0	0	0	0	508	508	0	0	
11	0	0	0	0	498	509	0	0	
12	0	0	0	0	505	508	0	0	
13	0	0	0	0	515	508	0	0	
14	0	0	0	0	512	509	0	0	
15	0	0	0	0	511	511	0	0	
0	0	0	0	0	511	510	0	0	
1	0	0	0	0	513	508	0	0	
2	0	0	0	0	511	509	0	0	
3	0	0	0	0	515	506	0	0	
4	0	0	0	0	513	505	0	0	
5	0	0	0	0	506	507	0	0	
6	0	0	0	0	505	509	0	0	
7	0	0	0	0	505	505	0	0	
8	0	0	0	0	504	508	0	0	
9	0	0	0	0	509	509	0	0	
10	0	0	0	0	516	508	0	0	
11	0	0	0	0	522	510	0	0	
12	0	0	0	0	516	508	0	0	
13	0	0	0	0	519	509	0	0	
14	0	0	0	0	515	507	0	0	
15	0	0	0	0	511	508	0	0	
0	0	0	0	0	507	510	0	0	
1	0	0	0	0	510	509	0	0	
2	0	0	0	0	514	508	0	0	
3	0	0	0	0	511	508	0	0	
4	0	0	0	0	505	509	0	0	
5	0	0	0	0	505	509	0	0	
6	0	0	0	0	507	508	0	0	
7	0	0	0	0	511	511	0	0	
8	0	0	0	0	499	508	0	0	
9	0	0	0	0	495	507	0	0	
10	0	0	0	0	496	506	0	0	
11	0	0	0	0	509	506	0	0	
12	0	0	0	0	531	508	0	0	
13	0	0	0	0	549	509	0	0	
14	0	0	0	0	527	508	0	0	
15	0	0	0	0	519	507	0	0	
0	0	0	0	0	502	508	0	0	
1	0	0	0	0	495	507	0	0	
2	0	0	0	0	495	508	0	0	
3	0	0	0	0	498	507	0	0	
4	0	0	0	0	501	507	0	0	
5	0	0	0	0	531	510	0	0	
6	0	0	0	0	524	510	0	0	
7	0	0	0	0	538	508	0	0	
8	0	0	0	0	537	507	0	0	
9	0	0	0	0	531	507	0	0	
10	0	0	0	0	516	506	0	0	
11	0	0	0	0	510	511	0	0	
12	0	0	0	0	503	509	0	0	
13	0	0	0	0	484	507	0	0	
14	0	0	0	0	489	510	0	0	
15	0	0	0	0	496	510	0	0	
0	0	0	0	0	499	509	0	0	
1	0	0	0	0	512	507	0	0	
2	0	0	0	0	501	505	0	0	
3	0	0	0	0	494	506	0	0	
4	0	0	0	0	499	510	0	0	
5	0	0	0	0	504	508	0	0	
6	0	0	0	0	503	505	0	0	
7	0	0	0	0	511	507	0	0	
8	0	0	0	0	515	509	0	0	
9	0	0	0	0	517	509	0	0	
10	0	0	0	0	529	510	0	0	
11	0	0	0	0	535	510	0	0	
12	0	0	0	0	523	509	0	0	
13	0	0	0	0	512	508	0	0	
14	0	0	0	0	509	508	0	0	
15	0	0	0	0	507	506	0	0	
0	0	0	0	0	527	506	0	0	
1	0	0	0	0	513	506	0	0	
2	0	0	0	0	499	507	0	0	
3	0	0	0	0	507	508	0	0	
4	0	0	0	0	529	509	0	0	
5	0	0	0	0	529	510	0	0	
6	0	0	0	0	506	509	0	0	
7	0	0	0	0	489	510	0	0	
8	0	0	0	0	502	511	0	0	
9	0	0	0	0	506	510	0	0	
10	0	0	0	0	509	507	0	0	
11	0	0	0	0	514	506	0	0	
12	0	0	0	0	531	509	0	0	
13	0	0	0	0	527	507	0	0	
14	0	0	0	0	515	508	0	0	
15	0	0	0	0	518	508	0	0	
0	0	0	0	0	521	507	0	0	
1	0	0	0	0	519	510	0	0	
2	0	0	0	0	507	511	0	0	
3	0	0	0	0	498	510	0	0	
4	0	0	0	0	492	508	0	0	
5	0	0	0	0	490	507	0	0	
6	0	0	0	0	503	508	13	0	
7	0	0	0	0	511	507	17	0	
8	0	0	0	0	512	508	19	0	
9	0	0	0	0	511	508	14	0	
10	0	0	0	0	508	508	14	0	
11	0	0	0	0	510	508	15	0	
12	0	0	0	0	516	509	19	0	
13	0	0	0	0	511	508	20	0	
14	0	0	0	0	508	505	21	0	
15	0	0	0	0	503	505	21	0	
0	0	0	0	0	505	507	19	0	
1	0	0	0	0	519	509	22	0	
2	0	0	0	0	523	509	24	0	
3	0	0	0	0	527	509	24	0	
4	0	0	0	0	527	509	24	0	
5	0	0	0	0	507	510	26	0	
6	0	0	0	0	502	507	27	0	
7	0	0	0	0	502	507	26	0	
8	0	0	0	0	502	510	24	0	
9	0	0	0	0	504	507	23	0	
10	0	0	0	0	507	509	24	0	
11	0	0	0	0	504	508	29	0	
12	0	0	0	0	518	508	29	0	
13	0	0	0	0	524	507	28	0	
14	0	0	0	0	501	504	28	0	
15	0	0	0	0	508	509	27	0	
0	0	0	0	0	510	507	28	0	
1	0	0	0	0	529	510	30	0	
2	0	0	0	0	521	511	30	0	
3	0	0	0	0	510	507	29	0	
4	0	0	0	0	514	506	28	0	
5	0	0	0	0	508	507	29	0	
6	0	0	0	0	500	505	31	0	
7	0	0	0	0	503	507	31	0	
8	0	0	0	0	511	508	32	0	
9	0	0	0	0	505	507	32	0	
10	0	0	0	0	511	510	32	0	
11	0	0	0	0	537	511	33	0	
12	0	0	0	0	509	510	33	0	
13	0	0	0	0	488	508	33	0	
14	0	0	0	0	511	509	33	0	
15	0	0	0	0	529	508	34	0	
0	0	0	0	0	547	509	34	0	
1	0	0	0	0	542	509	35	0	
2	0	0	0	0	530	508	35	0	
3	0	0	0	0	515	506	36	0	
4	0	0	0	0	473	505	37	0	
5	0	0	0	0	477	505	38	0	
6	0	0	0	0	489	505	39	0	
7	0	0	0	0	481	507	40	0	
8	0	0	0	0	493	510	41	0	
9	0	0	0	0	503	508	43	0	
10	0	0	0	0	496	508	42	0	
11	0	0	0	0	523	509	42	0	
12	0	0	0	0	540	507	42	0	
13	0	0	0	0	521	508	41	0	
14	0	0	0	0	505	510	43	0	
15	0	0	0	0	503	506	44	0	
0	0	0	0	0	499	509	43	0	
1	0	0	0	0	501	508	44	0	
2	0	0	0	0	510	509	45	0	
3	0	0	0	0	515	507	48	0	
4	0	0	0	0	532	502	48	0	
5	0	0	0	0	548	507	46	0	
6	0	0	0	0	543	511	47	0	
7	0	0	0	0	530	512	47	0	
8	0	0	0	0	501	514	47	0	
9	0	0	0	0	497	508	47	0	
10	0	0	0	0	502	508	47	0	
11	0	0	0	0	501	507	47	0	
12	0	0	0	0	504	508	48	0	
13	0	0	0	0	502	507	49	0	
14	0	0	0	0	507	506	49	0	
15	0	0	0	0	508	508	48	0	
0	0	0	0	0	511	508	48	0	
1	0	0	0	0	512	505	48	0	
2	0	0	0	0	513	505	48	0	
3	0	0	0	0	524	508	48	0	
4	0	0	0	0	527	510	47	0	
5	0	0	0	0	500	508	47	0	
6	0	0	0	0	500	509	48	0	
7	0	0	0	0	503	510	48	0	
8	0	0	0	0	499	508	49	0	
9	0	0	0	0	503	510	49	0	
10	0	0	0	0	509	507	50	0	
11	0	0	0	0	521	508	52	0	
12	0	0	0	0	519	508	53	0	
13	0	0	0	0	515	506	54	0	
14	0	0	0	0	528	507	53	0	
15	0	0	0	0	540	507	53	0	
0	0	0	0	0	511	505	53	0	
1	0	0	0	0	487	505	53	0	
2	0	0	0	0	495	511	54	0	
3	0	0	0	0	497	511	53	0	
4	0	0	0	0	503	509	53	0	
5	0	0	0	0	498	509	54	0	
6	0	0	0	0	502	510	53	0	
7	0	0	0	0	509	506	53	0	
8	0	0	0	0	527	504	54	0	
9	0	0	0	0	535	505	55	0	
10	0	0	0	0	526	509	56	0	
11	0	0	0	0	510	510	56	0	
12	0	0	0	0	512	508	57	0	
13	0	0	0	0	505	512	58	0	
14	0	0	0	0	510	518	58	0	
15	0	0	0	0	505	514	58	0	
0	0	0	0	0	507	503	58	0	
1	0	0	0	0	509	499	58	0	
2	0	0	0	0	512	502	58	0	
3	0	0	0	0	515	497	57	0	
4	0	0	0	0	511	502	58	0	
5	0	0	0	0	500	508	58	0	
6	0	0	0	0	506	512	57	0	
7	0	0	0	0	514	510	58	0	
8	0	0	0	0	528	511	59	0	
9	0	0	0	0	529	518	58	0	
10	0	0	0	0	518	518	59	0	
11	0	0	0	0	502	513	58	0	
12	0	0	0	0	506	513	58	0	
13	0	0	0	0	506	510	58	0	
14	0	0	0	0	512	506	57	0	
15	0	0	0	0	518	504	58	0	
0	0	0	0	0	505	505	60	0	
1	0	0	0	0	513	503	59	0	
2	0	0	0	0	512	498	59	0	
3	0	0	0	0	513	498	59	0	
4	0	0	0	0	512	503	60	0	
5	0	0	0	0	511	508	62	0	
6	0	0	0	0	507	510	63	0	
7	0	0	0	0	496	509	63	0	
8	0	0	0	0	500	512	63	0	
9	0	0	0	0	515	511	64	0	
10	0	0	0	0	513	516	64	0	
11	0	0	0	0	514	515	64	0	
12	0	0	0	0	528	511	64	0	
13	0	0	0	0	531	509	63	0	
14	0	0	0	0	513	504	64	0	
15	0	0	0	0	511	503	63	0	
0	0	0	0	0	512	508	64	0	
1	0	0	0	0	510	509	64	0	
2	0	0	0	0	500	502	64	0	
3	0	0	0	0	496	505	65	0	
4	0	0	0	0	497	504	65	0	
5	0	0	0	0	500	507	66	0	
6	0	0	0	0	508	507	67	0	
7	0	0	0	0	519	509	69	0	
8	0	0	0	0	520	507	77	0	
9	0	0	0	0	513	505	79	0	
10	0	0	0	0	513	504	81	0	
11	0	0	0	0	510	509	80	0	
12	0	0	0	0	512	505	79	0	
13	0	0	0	0	514	506	81	0	
14	0	0	0	0	509	514	81	0	
15	0	0	0	0	502	520	82	0	
0	0	0	0	0	506	524	84	0	
1	0	0	0	0	509	516	83	0	
2	0	0	0	0	512	515	85	0	
3	0	0	0	0	521	509	84	0	
4	0	0	0	0	516	501	85	0	
5	0	0	0	0	515	505	85	0	
6	0	0	0	0	510	499	85	0	
7	0	0	0	0	503	499	87	0	
8	0	0	0	0	503	508	87	0	
9	0	0	0	0	499	494	87	0	
10	0	0	0	0	507	501	87	0	
11	0	0	0	0	515	512	88	0	
12	0	0	0	0	504	510	89	0	
13	0	0	0	0	500	507	92	0	
14	0	0	0	0	530	503	94	0	
15	0	0	0	0	537	495	97	0	
0	0	0	0	0	520	509	99	0	
1	0	0	0	0	514	521	101	0	
2	0	0	0	0	512	518	105	0	
3	0	0	0	0	510	503	102	0	
4	0	0	0	0	503	510	108	0	
5	0	0	0	0	509	518	114	0	
6	0	0	0	0	523	521	119	0	
7	0	0	0	0	523	511	121	0	
8	0	0	0	0	521	513	124	0	
9	0	0	0	0	517	503	126	0	
10	0	0	0	0	510	493	125	0	
11	0	0	0	0	494	509	129	0	
12	0	0	0	0	494	508	132	0	
13	0	0	0	0	503	508	133	0	
14	0	0	0	0	505	501	137	0	
15	0	0	0	0	511	502	139	0	
0	0	0	0	0	510	502	146	0	
1	0	0	0	0	499	505	151	0	
2	0	0	0	0	506	509	152	0	
3	0	0	0	0	508	487	153	0	
4	0	0	0	0	506	502	155	0	
5	0	0	0	0	512	514	159	0	
6	0	0	0	0	520	526	159	0	
7	0	0	0	0	523	512	160	0	
8	0	0	0	0	515	521	162	0	
9	0	0	0	0	515	528	161	0	
10	0	0	0	0	515	528	164	0	
11	0	0	0	0	521	521	165	0	
12	0	0	0	0	522	502	168	0	
13	0	0	0	0	508	489	172	0	
14	0	0	0	0	506	489	170	0	
15	0	0	0	0	502	493	169	0	
0	0	0	0	0	516	505	170	0	
1	0	0	0	0	520	494	170	0	
2	0	0	0	0	514	481	174	0	
3	0	0	0	0	507	496	174	0	
4	0	0	0	0	497	515	175	0	
5	0	0	0	0	507	523	176	0	
6	0	0	0	0	510	523	174	0	
7	0	0	0	0	517	534	175	0	
8	0	0	0	0	511	524	176	0	
9	0	0	0	0	499	530	174	0	
10	0	0	0	0	499	532	175	0	
11	0	0	0	0	507	519	174	0	
12	0	0	0	0	507	475	176	0	
13	0	0	0	0	494	466	175	0	
14	0	0	0	0	486	477	177	0	
15	0	0	0	0	491	484	178	0	
0	0	0	0	0	497	510	178	1	
1	0	0	0	0	503	516	187	5	
2	0	0	0	0	513	531	192	6	
3	0	0	0	0	522	507	194	20	
4	0	0	0	0	515	509	196	26	
5	0	0	0	0	508	515	197	31	
6	0	0	0	0	511	523	200	40	
7	0	0	0	0	516	533	199	43	
8	0	0	0	0	519	535	200	47	
9	0	0	0	0	526	529	200	48	
10	0	0	0	0	526	505	200	52	
11	0	0	0	0	530	493	199	53	
12	0	0	0	0	529	495	199	51	
13	0	0	0	0	523	494	203	50	
14	0	0	0	0	515	496	205	50	
15	0	0	0	0	511	500	203	53	
0	0	0	0	0	512	507	203	57	
1	0	0	0	0	512	513	200	60	
2	0	0	0	0	520	521	205	67	
3	0	0	0	0	516	504	203	73	
4	0	0	0	0	520	495	207	78	
5	0	0	0	0	514	512	208	79	
6	0	0	0	0	518	505	208	79	
7	0	0	0	0	524	513	206	81	
8	0	0	0	0	532	512	208	83	
9	0	0	0	0	524	496	211	83	
10	0	0	0	0	518	489	213	87	
11	0	0	0	0	510	516	216	89	
12	0	0	0	0	510	517	219	88	
13	0	0	0	0	516	515	220	91	
14	0	0	0	0	508	507	221	90	
15	0	0	0	0	499	498	220	91	
0	0	0	0	0	499	499	218	92	
1	0	0	0	0	511	508	219	92	
2	0	0	0	0	516	513	217	92	
3	0	0	0	0	518	515	219	95	
4	0	0	0	0	514	516	220	98	
5	0	0	0	0	507	511	220	99	
6	0	0	0	0	503	502	220	100	
7	0	0	0	0	497	518	220	97	
8	0	0	0	0	503	520	223	99	
9	0	0	0	0	504	513	224	99	
10	0	0	0	0	515	503	225	100	
11	0	0	0	0	513	502	225	102	
12	0	0	0	0	514	507	226	103	
13	0	0	0	0	513	510	226	106	
14	0	0	0	0	505	488	226	107	
15	0	0	0	0	489	484	229	106	
0	0	0	0	0	491	498	230	107	
1	0	0	0	0	493	527	227	107	
2	0	0	0	0	496	527	227	105	
3	0	0	0	0	503	511	227	108	
4	0	0	0	0	498	503	228	109	
5	0	0	0	0	509	506	227	108	
6	0	0	0	0	512	503	228	110	
7	0	0	0	0	523	504	230	112	
8	0	0	0	0	535	516	231	111	
9	0	0	0	0	539	510	231	113	
10	0	0	0	0	523	507	228	115	
11	0	0	0	0	529	507	228	116	
12	0	0	0	0	515	506	227	118	
13	0	0	0	0	504	508	226	120	
14	0	0	0	0	507	511	226	123	
15	0	0	0	0	504	509	224	123	
0	0	0	0	0	500	498	225	125	
1	0	0	0	0	506	503	225	129	
2	0	0	0	0	507	500	230	129	
3	0	0	0	0	502	510	230	131	
4	0	0	0	0	499	516	230	135	
5	0	0	0	0	496	516	232	137	
6	0	0	0	0	502	509	242	138	
7	0	0	0	0	510	512	241	138	
8	0	0	0	0	511	507	239	135	
9	0	0	0	0	512	505	241	135	
10	0	0	0	0	511	511	241	138	
11	0	0	0	0	515	507	247	140	
12	0	0	0	0	515	516	249	139	
13	0	0	0	0	517	508	249	138	
14	0	0	0	0	515	508	244	142	
15	0	0	0	0	513	496	246	140	
0	0	0	0	0	519	499	248	139	
1	0	0	0	0	516	509	249	138	
2	0	0	0	0	517	508	247	139	
3	0	0	0	0	514	512	248	143	
4	0	0	0	0	506	508	248	143	
5	0	0	0	0	503	511	246	143	
6	0	0	0	0	516	518	245	142	
7	0	0	0	0	534	505	244	142	
8	0	0	0	0	517	501	245	143	
9	0	0	0	0	500	498	247	145	
10	0	0	0	0	506	509	247	143	
11	0	0	0	0	509	514	249	143	
12	0	0	0	0	507	508	250	143	
13	0	0	0	0	493	511	254	143	
14	0	0	0	0	485	519	250	144	
15	0	0	0	0	496	510	252	146	
0	0	0	0	0	511	505	251	147	
1	0	0	0	0	517	504	249	148	
2	0	0	0	0	520	504	251	147	
3	0	0	0	0	524	503	251	148	
4	0	0	0	0	519	515	253	149	
5	0	0	0	0	511	519	253	150	
6	0	0	0	0	511	514	255	149	
7	0	0	0	0	513	504	253	150	
8	0	0	0	0	510	508	253	150	
9	0	0	0	0	513	504	254	151	
10	0	0	0	0	502	503	255	151	
11	0	0	0	0	499	504	253	150	
12	0	0	0	0	510	496	252	150	
13	0	0	0	0	525	507	252	149	
14	0	0	0	0	517	509	253	152	
15	0	0	0	0	511	508	253	152	
0	0	0	0	0	502	510	252	151	
1	0	0	0	0	511	508	250	152	
2	0	0	0	0	514	512	250	151	
3	0	0	0	0	510	510	251	149	
4	0	0	0	0	512	505	250	150	
5	0	0	0	0	514	505	249	149	
6	0	0	0	0	523	507	247	150	
7	0	0	0	0	519	505	248	148	
8	0	0	0	0	513	510	245	148	
9	0	0	0	0	509	512	245	147	
10	0	0	0	0	500	519	243	144	
11	0	0	0	0	500	511	242	142	
12	0	0	0	0	503	507	242	142	
13	0	0	0	0	519	502	245	141	
14	0	0	0	0	532	508	247	142	
15	0	0	0	0	527	513	250	140	
0	0	0	0	0	504	510	247	141	
1	0	0	0	0	508	505	247	141	
2	0	0	0	0	505	504	247	140	
3	0	0	0	0	504	507	248	142	
4	0	0	0	0	508	506	248	139	
5	0	0	0	0	508	508	248	140	
6	0	0	0	0	508	500	251	140	
7	0	0	0	0	509	513	251	139	
8	0	0	0	0	512	508	252	135	
9	0	0	0	0	527	515	252	135	
10	0	0	0	0	514	516	252	132	
11	0	0	0	0	503	504	254	130	
12	0	0	0	0	503	513	254	130	
13	0	0	0	0	512	507	255	130	
14	0	0	0	0	520	496	255	129	
15	0	0	0	0	516	506	257	128	
0	0	0	0	0	514	516	257	129	
1	0	0	0	0	521	512	256	130	
2	0	0	0	0	527	513	255	130	
3	0	0	0	0	511	509	255	131	
4	0	0	0	0	509	503	256	131	
5	0	0	0	0	499	503	256	131	
6	0	0	0	0	489	504	255	133	
7	0	0	0	0	485	507	256	131	
8	0	0	0	0	485	510	256	131	
9	0	0	0	0	488	503	257	131	
10	0	0	0	0	512	504	256	132	
11	0	0	0	0	542	508	256	130	
12	0	0	0	0	537	501	257	129	
13	0	0	0	0	520	494	256	129	
14	0	0	0	0	504	504	256	130	
15	0	0	0	0	510	513	255	130	
0	0	0	0	0	516	515	255	129	
1	0	0	0	0	511	529	256	132	
2	0	0	0	0	514	523	258	132	
3	0	0	0	0	511	513	257	132	
4	0	0	0	0	515	503	258	134	
5	0	0	0	0	506	505	258	132	
6	0	0	0	0	513	514	257	132	
7	0	0	0	0	513	510	256	134	
8	0	0	0	0	505	501	257	134	
9	0	0	0	0	507	501	254	134	
10	0	0	0	0	514	510	255	135	
11	0	0	0	0	528	506	254	136	
12	0	0	0	0	521	508	253	136	
13	0	0	0	0	515	501	255	135	
14	0	0	0	0	516	508	252	134	
15	0	0	0	0	510	515	253	135	
0	0	0	0	0	507	515	252	136	
1	0	0	0	0	489	514	249	136	
2	0	0	0	0	484	502	252	137	
3	0	0	0	0	493	506	253	136	
4	0	0	0	0	503	512	254	135	
5	0	0	0	0	506	510	252	136	
6	0	0	0	0	509	498	253	134	
7	0	0	0	0	517	499	253	134	
8	0	0	0	0	518	506	253	134	
9	0	0	0	0	517	512	256	134	
10	0	0	0	0	514	510	257	131	
11	0	0	0	0	529	516	257	130	
12	0	0	0	0	528	509	257	130	
13	0	0	0	0	524	497	258	131	
14	0	0	0	0	516	505	259	131	
15	0	0	0	0	519	515	259	131	
0	0	0	0	0	502	511	260	131	
1	0	0	0	0	496	504	265	131	
2	0	0	0	0	498	504	270	132	
3	0	0	0	0	500	508	274	131	
4	0	0	0	0	496	512	275	133	
5	0	0	0	0	512	513	274	132	
6	0	0	0	0	524	500	277	132	
7	0	0	0	0	529	508	278	132	
8	0	0	0	0	527	512	276	132	
9	0	0	0	0	527	508	277	132	
10	0	0	0	0	526	504	278	134	
11	0	0	0	0	517	505	276	133	
12	0	0	0	0	497	512	276	134	
13	0	0	0	0	478	506	279	134	
14	0	0	0	0	479	503	276	135	
15	0	0	0	0	517	506	275	134	
0	0	0	0	0	527	509	279	134	
1	0	0	0	0	516	519	280	133	
2	0	0	0	0	520	511	282	134	
3	0	0	0	0	515	506	284	134	
4	0	0	0	0	507	512	281	134	
5	0	0	0	0	504	507	282	134	
6	0	0	0	0	504	510	283	135	
7	0	0	0	0	507	510	285	134	
8	0	0	0	0	511	500	289	134	
9	0	0	0	0	517	499	287	135	
10	0	0	0	0	520	507	288	135	
11	0	0	0	0	513	509	288	135	
12	0	0	0	0	511	511	290	136	
13	0	0	0	0	509	502	292	136	
14	0	0	0	0	504	512	295	136	
15	0	0	0	0	506	523	293	136	
0	0	0	0	0	508	523	295	136	
1	0	0	0	0	513	508	294	137	
2	0	0	0	0	518	505	295	137	
3	0	0	0	0	513	503	293	137	
4	0	0	0	0	510	495	293	138	
5	0	0	0	0	507	493	296	137	
6	0	0	0	0	508	496	300	138	
7	0	0	0	0	510	505	300	139	
8	0	0	0	0	502	508	300	139	
9	0	0	0	0	504	508	299	138	
10	0	0	0	0	513	522	302	138	
11	0	0	0	0	516	515	304	139	
12	0	0	0	0	524	513	305	139	
13	0	0	0	0	526	512	304	138	
14	0	0	0	0	521	509	305	138	
15	0	0	0	0	512	505	307	139	
0	0	0	0	0	508	507	308	138	
1	0	0	0	0	502	506	311	139	
2	0	0	0	0	495	504	312	138	
3	0	0	0	0	504	504	315	138	
4	0	0	0	0	506	512	314	139	
5	0	0	0	0	512	516	312	140	
6	0	0	0	0	510	516	312	140	
7	0	0	0	0	513	506	312	138	
8	0	0	0	0	512	500	311	139	
9	0	0	0	0	506	504	312	139	
10	0	0	0	0	510	509	315	139	
11	0	0	0	0	513	506	316	140	
12	0	0	0	0	515	511	316	140	
13	0	0	0	0	508	508	314	139	
14	0	0	0	0	510	508	313	140	
15	0	0	0	0	520	508	312	141	
0	0	0	0	0	527	511	313	140	
1	0	0	0	0	524	509	313	140	
2	0	0	0	0	514	506	313	140	
3	0	0	0	0	515	510	313	141	
4	0	0	0	0	510	508	314	142	
5	0	0	0	0	504	511	312	140	
6	0	0	0	0	503	504	311	143	
7	0	0	0	0	505	504	312	143	
8	0	0	0	0	502	507	313	139	
9	0	0	0	0	508	511	315	140	
10	0	0	0	0	512	509	314	141	
11	0	0	0	0	513	508	316	140	
12	0	0	0	0	511	504	318	143	
13	0	0	0	0	500	505	319	141	
14	0	0	0	0	503	513	318	143	
15	0	0	0	0	507	518	318	143	
0	0	0	0	0	499	515	317	144	
1	0	0	0	0	490	506	316	144	
2	0	0	0	0	504	496	315	144	
3	0	0	0	0	529	499	313	144	
4	0	0	0	0	543	514	312	145	
5	0	0	0	0	534	515	313	145	
6	0	0	0	0	516	507	314	145	
7	0	0	0	0	508	507	319	146	
8	0	0	0	0	504	507	319	146	
9	0	0	0	0	512	502	321	146	
10	0	0	0	0	512	504	320	146	
11	0	0	0	0	505	502	321	145	
12	0	0	0	0	502	507	321	146	
13	0	0	0	0	501	519	320	146	
14	0	0	0	0	509	518	321	147	
15	0	0	0	0	529	516	319	147	
0	0	0	0	0	536	515	319	148	
1	0	0	0	0	531	507	322	148	
2	0	0	0	0	513	499	321	148	
3	0	0	0	0	508	499	322	150	
4	0	0	0	0	509	507	323	150	
5	0	0	0	0	508	508	323	152	
6	0	0	0	0	505	507	324	151	
7	0	0	0	0	498	510	323	150	
8	0	0	0	0	497	513	323	151	
9	0	0	0	0	499	512	325	152	
10	0	0	0	0	514	508	326	152	
11	0	0	0	0	530	503	326	153	
12	0	0	0	0	528	506	327	152	
13	0	0	0	0	501	507	326	152	
14	0	0	0	0	501	519	324	155	
15	0	0	0	0	503	507	325	158	
0	0	0	0	0	504	507	327	155	
1	0	0	0	0	506	500	327	155	
2	0	0	0	0	515	509	327	155	
3	0	0	0	0	511	502	326	156	
4	0	0	0	0	523	496	325	158	
5	0	0	0	0	519	507	325	159	
6	0	0	0	0	517	515	325	158	
7	0	0	0	0	510	513	327	158	
8	0	0	0	0	502	515	327	159	
9	0	0	0	0	501	510	327	159	
10	0	0	0	0	505	506	327	161	
11	0	0	0	0	509	504	328	161	
12	0	0	0	0	511	507	331	162	
13	0	0	0	0	501	512	330	162	
14	0	0	0	0	500	507	331	163	
15	0	0	0	0	504	505	334	164	
0	0	0	0	0	512	511	337	164	
1	0	0	0	0	525	513	337	163	
2	0	0	0	0	520	507	339	163	
3	0	0	0	0	509	505	337	164	
4	0	0	0	0	515	508	335	165	
5	0	0	0	0	519	509	339	164	
6	0	0	0	0	513	505	340	163	
7	0	0	0	0	505	509	340	164	
8	0	0	0	0	512	513	340	164	
9	0	0	0	0	515	504	340	164	
10	0	0	0	0	517	507	342	163	
11	0	0	0	0	518	505	341	163	
12	0	0	0	0	521	505	339	164	
13	0	0	0	0	522	508	340	166	
14	0	0	0	0	518	509	338	165	
15	0	0	0	0	508	512	339	164	
0	0	0	0	0	502	506	339	167	
1	0	0	0	0	504	507	337	168	
2	0	0	0	0	498	508	339	168	
3	0	0	0	0	502	514	340	168	
4	0	0	0	0	516	510	339	167	
5	0	0	0	0	511	500	339	166	
6	0	0	0	0	513	500	340	167	
7	0	0	0	0	515	498	339	168	
8	0	0	0	0	522	507	340	169	
9	0	0	0	0	511	511	339	167	
10	0	0	0	0	500	517	339	167	
11	0	0	0	0	496	512	339	166	
12	0	0	0	0	496	516	340	166	
13	0	0	0	0	491	513	341	165	
14	0	0	0	0	504	509	341	166	
15	0	0	0	0	529	504	341	165	
0	0	0	0	0	537	503	339	165	
1	0	0	0	0	541	515	339	165	
2	0	0	0	0	530	512	340	165	
3	0	0	0	0	505	506	338	164	
4	0	0	0	0	498	506	339	166	
5	0	0	0	0	506	509	339	165	
6	0	0	0	0	505	508	340	165	
7	0	0	0	0	511	500	339	165	
8	0	0	0	0	507	499	338	166	
9	0	0	0	0	511	505	338	164	
10	0	0	0	0	512	515	341	164	
11	0	0	0	0	515	515	339	163	
12	0	0	0	0	516	509	339	161	
13	0	0	0	0	503	501	339	162	
14	0	0	0	0	498	509	339	162	
15	0	0	0	0	496	508	339	159	
0	0	0	0	0	499	505	340	162	
1	0	0	0	0	506	504	341	161	
2	0	0	0	0	513	502	342	160	
3	0	0	0	0	519	504	343	161	
4	0	0	0	0	515	513	344	160	
5	0	0	0	0	519	513	343	162	
6	0	0	0	0	529	509	342	162	
7	0	0	0	0	523	508	341	162	
8	0	0	0	0	521	514	341	162	
9	0	0	0	0	492	511	342	162	
10	0	0	0	0	479	511	343	161	
11	0	0	0	0	479	510	344	159	
12	0	0	0	0	511	511	343	157	
13	0	0	0	0	519	509	344	160	
14	0	0	0	0	524	504	342	157	
15	0	0	0	0	527	494	344	158	
0	0	0	0	0	526	507	344	159	
1	0	0	0	0	524	515	344	160	
2	0	0	0	0	527	511	343	160	
3	0	0	0	0	512	489	342	160	
4	0	0	0	0	508	496	342	162	
5	0	0	0	0	519	512	344	161	
6	0	0	0	0	515	508	343	160	
7	0	0	0	0	511	511	342	159	
8	0	0	0	0	511	503	343	160	
9	0	0	0	0	516	506	343	161	
10	0	0	0	0	520	521	345	161	
11	0	0	0	0	516	516	343	163	
12	0	0	0	0	511	513	345	161	
13	0	0	0	0	509	509	347	163	
14	0	0	0	0	504	509	347	162	
15	0	0	0	0	502	499	347	163	
0	0	0	0	0	495	509	347	163	
1	0	0	0	0	489	515	347	163	
2	0	0	0	0	496	514	349	162	
3	0	0	0	0	500	516	349	163	
4	0	0	0	0	509	504	349	164	
5	0	0	0	0	527	495	349	164	
6	0	0	0	0	515	498	350	166	
7	0	0	0	0	511	509	350	165	
8	0	0	0	0	500	515	351	165	
9	0	0	0	0	505	515	351	166	
10	0	0	0	0	523	504	349	166	
11	0	0	0	0	525	498	351	166	
12	0	0	0	0	509	497	349	166	
13	0	0	0	0	512	513	350	167	
14	0	0	0	0	519	518	349	167	
15	0	0	0	0	519	510	351	167	
0	0	0	0	0	514	507	352	167	
1	0	0	0	0	504	509	352	165	
2	0	0	0	0	492	507	354	165	
3	0	0	0	0	509	508	354	166	
4	0	0	0	0	505	501	355	166	
5	0	0	0	0	498	500	356	167	
6	0	0	0	0	498	504	355	167	
7	0	0	0	0	514	515	356	167	
8	0	0	0	0	527	526	356	168	
9	0	0	0	0	533	516	356	167	
10	0	0	0	0	521	509	356	167	
11	0	0	0	0	512	506	356	168	
12	0	0	0	0	509	505	357	169	
13	0	0	0	0	500	512	357	169	
14	0	0	0	0	489	505	357	170	
15	0	0	0	0	499	498	358	169	
0	0	0	0	0	508	510	359	170	
1	0	0	0	0	514	507	358	169	
2	0	0	0	0	521	500	359	168	
3	0	0	0	0	533	511	359	170	
4	0	0	0	0	536	503	359	169	
5	0	0	0	0	510	498	359	170	
6	0	0	0	0	500	509	360	169	
7	0	0	0	0	510	519	359	169	
8	0	0	0	0	519	514	359	169	
9	0	0	0	0	517	508	358	169	
10	0	0	0	0	516	508	360	168	
11	0	0	0	0	520	513	361	169	
12	0	0	0	0	519	511	360	168	
13	0	0	0	0	505	507	360	168	
14	0	0	0	0	502	506	362	169	
15	0	0	0	0	496	510	361	169	
0	0	0	0	0	499	502	361	168	
1	0	0	0	0	512	494	361	168	
2	0	0	0	0	507	502	362	169	
3	0	0	0	0	504	519	364	169	
4	0	0	0	0	515	520	364	168	
5	0	0	0	0	528	508	363	170	
6	0	0	0	0	497	504	364	168	
7	0	0	0	0	469	505	364	168	
8	0	0	0	0	465	509	365	167	
9	0	0	0	0	483	509	364	169	
10	0	0	0	0	496	507	364	167	
11	0	0	0	0	508	508	365	167	
12	0	0	0	0	546	504	364	167	
13	0	0	0	0	583	498	364	169	
14	0	0	0	0	608	508	364	169	
15	0	0	0	0	569	517	364	169	
0	0	0	0	0	511	516	366	167	
1	0	0	0	0	489	510	366	168	
2	0	0	0	0	504	507	365	168	
3	0	0	0	0	516	508	365	169	
4	0	0	0	0	497	510	365	169	
5	0	0	0	0	492	504	364	169	
6	0	0	0	0	502	508	364	169	
7	0	0	0	0	504	504	366	169	
8	0	0	0	0	510	505	366	168	
9	0	0	0	0	516	508	365	168	
10	0	0	0	0	508	510	364	169	
11	0	0	0	0	506	511	365	169	
12	0	0	0	0	483	509	365	169	
13	0	0	0	0	487	511	364	169	
14	0	0	0	0	504	514	365	171	
15	0	0	0	0	510	508	367	170	
0	0	0	0	0	496	504	366	169	
1	0	0	0	0	503	505	367	170	
2	0	0	0	0	521	505	368	170	
3	0	0	0	0	518	507	367	170	
4	0	0	0	0	499	506	367	171	
5	0	0	0	0	494	505	367	171	
6	0	0	0	0	508	511	368	171	
7	0	0	0	0	516	517	369	171	
8	0	0	0	0	508	515	369	172	
9	0	0	0	0	514	504	369	172	
10	0	0	0	0	512	500	369	172	
11	0	0	0	0	521	503	370	172	
12	0	0	0	0	534	504	370	171	
13	0	0	0	0	518	499	370	171	
14	0	0	0	0	534	500	371	172	
15	0	0	0	0	543	518	371	172	
0	0	0	0	0	534	529	371	171	
1	0	0	0	0	508	515	370	171	
2	0	0	0	0	493	508	371	172	
3	0	0	0	0	492	507	370	171	
4	0	0	0	0	479	501	370	171	
5	0	0	0	0	489	508	370	171	
6	0	0	0	0	519	513	369	171	
7	0	0	0	0	533	510	369	172	
8	0	0	0	0	511	498	370	170	
9	0	0	0	0	514	498	369	169	
10	0	0	0	0	513	505	370	170	
11	0	0	0	0	529	511	371	170	
12	0	0	0	0	527	520	370	170	
13	0	0	0	0	519	509	370	171	
14	0	0	0	0	530	501	369	171	
15	0	0	0	0	524	508	368	170	
0	0	0	0	0	490	508	369	171	
1	0	0	0	0	485	505	369	170	
2	0	0	0	0	486	500	368	169	
3	0	0	0	0	475	507	369	168	
4	0	0	0	0	474	518	369	167	
5	0	0	0	0	479	519	368	167	
6	0	0	0	0	486	513	368	168	
7	0	0	0	0	492	507	368	167	
8	0	0	0	0	515	506	366	168	
9	0	0	0	0	546	504	366	168	
10	0	0	0	0	561	505	366	168	
11	0	0	0	0	550	508	367	167	
12	0	0	0	0	513	508	367	167	
13	0	0	0	0	500	503	368	167	
14	0	0	0	0	513	503	367	168	
15	0	0	0	0	521	514	366	167	
0	0	0	0	0	513	516	365	168	
1	0	0	0	0	509	509	364	167	
2	0	0	0	0	511	505	363	168	
3	0	0	0	0	504	495	362	168	
4	0	0	0	0	515	513	362	169	
5	0	0	0	0	534	510	361	168	
6	0	0	0	0	527	504	361	168	
7	0	0	0	0	526	509	361	168	
8	0	0	0	0	511	513	362	169	
9	0	0	0	0	498	508	362	169	
10	0	0	0	0	496	501	363	168	
11	0	0	0	0	497	506	363	167	
12	0	0	0	0	502	518	363	167	
13	0	0	0	0	510	511	360	167	
14	0	0	0	0	512	503	361	165	
15	0	0	0	0	508	501	361	166	
0	0	0	0	0	512	512	357	166	
1	0	0	0	0	510	517	358	165	
2	0	0	0	0	519	502	356	166	
3	0	0	0	0	537	500	354	165	
4	0	0	0	0	539	510	353	167	
5	0	0	0	0	510	518	354	166	
6	0	0	0	0	475	516	353	167	
7	0	0	0	0	484	516	355	166	
8	0	0	0	0	496	516	354	166	
9	0	0	0	0	511	506	353	167	
10	0	0	0	0	512	501	354	166	
11	0	0	0	0	522	503	353	166	
12	0	0	0	0	516	509	353	166	
13	0	0	0	0	507	515	353	165	
14	0	0	0	0	501	504	352	165	
15	0	0	0	0	499	499	353	165	
0	0	0	0	0	497	497	352	165	
1	0	0	0	0	486	500	352	163	
2	0	0	0	0	492	506	352	160	
3	0	0	0	0	511	502	350	161	
4	0	0	0	0	521	502	351	159	
5	0	0	0	0	533	512	349	157	
6	0	0	0	0	562	519	349	158	
7	0	0	0	0	552	507	350	157	
8	0	0	0	0	527	509	349	155	
9	0	0	0	0	519	517	349	155	
10	0	0	0	0	497	524	348	156	
11	0	0	0	0	484	510	346	156	
12	0	0	0	0	514	507	345	156	
13	0	0	0	0	520	507	343	155	
14	0	0	0	0	513	506	344	155	
15	0	0	0	0	503	506	342	155	
0	0	0	0	0	505	508	343	156	
1	0	0	0	0	508	510	348	156	
2	0	0	0	0	507	506	347	156	
3	0	0	0	0	504	500	346	156	
4	0	0	0	0	502	501	344	157	
5	0	0	0	0	511	504	347	156	
6	0	0	0	0	506	504	345	156	
7	0	0	0	0	508	513	346	157	
8	0	0	0	0	498	512	343	156	
9	0	0	0	0	495	512	344	155	
10	0	0	0	0	495	512	343	155	
11	0	0	0	0	496	512	344	156	
12	0	0	0	0	504	512	344	156	
13	0	0	0	0	530	508	340	155	
14	0	0	0	0	528	508	342	155	
15	0	0	0	0	536	502	338	155	
0	0	0	0	0	543	488	337	155	
1	0	0	0	0	522	501	332	154	
2	0	0	0	0	519	513	334	153	
3	0	0	0	0	518	508	335	153	
4	0	0	0	0	498	506	334	153	
5	0	0	0	0	489	511	335	152	
6	0	0	0	0	494	516	335	153	
7	0	0	0	0	506	519	335	152	
8	0	0	0	0	507	507	327	152	
9	0	0	0	0	518	505	326	151	
10	0	0	0	0	524	507	323	150	
11	0	0	0	0	510	507	324	149	
12	0	0	0	0	510	511	324	149	
13	0	0	0	0	499	504	325	151	
14	0	0	0	0	498	506	324	151	
15	0	0	0	0	508	514	324	150	
0	0	0	0	0	507	506	330	152	
1	0	0	0	0	513	502	331	151	
2	0	0	0	0	527	504	331	151	
3	0	0	0	0	533	509	329	151	
4	0	0	0	0	515	526	321	149	
5	0	0	0	0	524	525	320	149	
6	0	0	0	0	513	509	319	148	
7	0	0	0	0	512	499	318	148	
8	0	0	0	0	517	501	315	148	
9	0	0	0	0	506	495	316	148	
10	0	0	0	0	497	498	318	148	
11	0	0	0	0	493	512	316	148	
12	0	0	0	0	477	510	315	148	
13	0	0	0	0	485	507	313	148	
14	0	0	0	0	500	505	313	149	
15	0	0	0	0	531	511	314	147	
0	0	0	0	0	540	512	314	149	
1	0	0	0	0	577	511	315	148	
2	0	0	0	0	548	518	311	149	
3	0	0	0	0	542	508	310	149	
4	0	0	0	0	516	504	308	149	
5	0	0	0	0	472	508	306	147	
6	0	0	0	0	457	510	307	148	
7	0	0	0	0	472	498	310	147	
8	0	0	0	0	505	499	308	148	
9	0	0	0	0	520	510	308	146	
10	0	0	0	0	522	509	305	147	
11	0	0	0	0	527	507	301	147	
12	0	0	0	0	519	512	299	147	
13	0	0	0	0	506	509	299	145	
14	0	0	0	0	510	502	299	147	
15	0	0	0	0	506	495	300	146	
0	0	0	0	0	489	496	299	147	
1	0	0	0	0	500	513	299	144	
2	0	0	0	0	490	515	298	146	
3	0	0	0	0	498	507	296	146	
4	0	0	0	0	504	506	296	145	
5	0	0	0	0	528	513	296	144	
6	0	0	0	0	561	515	295	143	
7	0	0	0	0	541	518	295	144	
8	0	0	0	0	524	522	292	145	
9	0	0	0	0	514	513	294	144	
10	0	0	0	0	505	514	295	144	
11	0	0	0	0	504	511	295	145	
12	0	0	0	0	507	487	292	145	
13	0	0	0	0	511	502	291	145	
14	0	0	0	0	499	503	290	146	
15	0	0	0	0	493	506	289	145	
0	0	0	0	0	496	513	289	146	
1	0	0	0	0	501	504	287	146	
2	0	0	0	0	492	503	287	147	
3	0	0	0	0	502	495	288	148	
4	0	0	0	0	526	498	290	148	
5	0	0	0	0	548	512	289	148	
6	0	0	0	0	548	521	288	148	
7	0	0	0	0	521	520	291	148	
8	0	0	0	0	516	518	292	148	
9	0	0	0	0	501	512	292	149	
10	0	0	0	0	494	512	290	150	
11	0	0	0	0	491	503	289	151	
12	0	0	0	0	492	504	290	151	
13	0	0	0	0	516	497	290	153	
14	0	0	0	0	516	503	287	153	
15	0	0	0	0	499	506	288	153	
0	0	0	0	0	505	517	287	154	
1	0	0	0	0	493	517	287	154	
2	0	0	0	0	496	516	286	154	
3	0	0	0	0	501	506	287	153	
4	0	0	0	0	524	511	290	153	
5	0	0	0	0	537	510	288	153	
6	0	0	0	0	557	503	287	154	
7	0	0	0	0	561	499	287	153	
8	0	0	0	0	519	508	287	153	
9	0	0	0	0	499	508	287	153	
10	0	0	0	0	494	510	287	154	
11	0	0	0	0	487	505	289	155	
12	0	0	0	0	498	502	290	155	
13	0	0	0	0	511	504	291	155	
14	0	0	0	0	498	502	291	155	
15	0	0	0	0	492	507	289	156	
0	0	0	0	0	508	514	290	155	
1	0	0	0	0	536	510	289	154	
2	0	0	0	0	544	505	290	154	
3	0	0	0	0	528	502	289	153	
4	0	0	0	0	519	506	289	155	
5	0	0	0	0	503	521	290	152	
6	0	0	0	0	505	516	288	152	
7	0	0	0	0	500	510	290	150	
8	0	0	0	0	508	506	288	149	
9	0	0	0	0	507	499	290	150	
10	0	0	0	0	495	504	289	150	
11	0	0	0	0	501	511	291	151	
12	0	0	0	0	525	513	292	152	
13	0	0	0	0	522	514	290	152	
14	0	0	0	0	510	512	283	150	
15	0	0	0	0	524	510	287	152	
0	0	0	0	0	527	508	284	152	
1	0	0	0	0	501	504	284	153	
2	0	0	0	0	489	502	288	152	
3	0	0	0	0	485	497	288	153	
4	0	0	0	0	495	505	287	155	
5	0	0	0	0	503	512	288	154	
6	0	0	0	0	525	512	289	153	
7	0	0	0	0	542	514	289	154	
8	0	0	0	0	555	511	289	154	
9	0	0	0	0	536	504	290	153	
10	0	0	0	0	506	500	289	156	
11	0	0	0	0	494	509	289	158	
12	0	0	0	0	481	508	288	156	
13	0	0	0	0	498	509	284	159	
14	0	0	0	0	511	514	287	159	
15	0	0	0	0	492	515	286	161	
0	0	0	0	0	496	512	286	162	
1	0	0	0	0	509	510	287	162	
2	0	0	0	0	504	503	286	161	
3	0	0	0	0	508	499	287	163	
4	0	0	0	0	514	505	286	164	
5	0	0	0	0	512	511	286	164	
6	0	0	0	0	526	508	286	165	
7	0	0	0	0	529	505	287	164	
8	0	0	0	0	524	507	289	166	
9	0	0	0	0	511	506	290	168	
10	0	0	0	0	497	508	291	171	
11	0	0	0	0	505	507	293	173	
12	0	0	0	0	513	507	294	171	
13	0	0	0	0	515	507	292	171	
14	0	0	0	0	510	508	291	172	
15	0	0	0	0	502	506	291	171	
0	0	0	0	0	497	512	290	172	
1	0	0	0	0	499	509	293	172	
2	0	0	0	0	507	499	291	172	
3	0	0	0	0	520	502	292	175	
4	0	0	0	0	527	507	291	175	
5	0	0	0	0	505	513	292	174	
6	0	0	0	0	505	521	294	173	
7	0	0	0	0	523	516	295	175	
8	0	0	0	0	525	513	293	175	
9	0	0	0	0	521	505	295	174	
10	0	0	0	0	519	503	294	175	
11	0	0	0	0	537	508	295	174	
12	0	0	0	0	523	505	294	175	
13	0	0	0	0	506	504	294	175	
14	0	0	0	0	506	506	293	176	
15	0	0	0	0	512	503	296	174	
0	0	0	0	0	500	508	293	175	
1	0	0	0	0	499	512	294	175	
2	0	0	0	0	508	505	296	175	
3	0	0	0	0	510	508	291	177	
4	0	0	0	0	510	506	291	177	
5	0	0	0	0	510	504	291	176	
6	0	0	0	0	501	501	292	177	
7	0	0	0	0	489	507	294	176	
8	0	0	0	0	496	508	292	177	
9	0	0	0	0	504	516	292	179	
10	0	0	0	0	515	520	291	178	
11	0	0	0	0	519	521	295	177	
12	0	0	0	0	517	509	295	178	
13	0	0	0	0	506	507	294	179	
14	0	0	0	0	511	510	293	179	
15	0	0	0	0	522	503	293	179	
0	0	0	0	0	512	501	292	179	
1	0	0	0	0	520	508	292	178	
2	0	0	0	0	529	505	293	177	
3	0	0	0	0	520	503	293	178	
4	0	0	0	0	526	508	293	179	
5	0	0	0	0	507	513	294	178	
6	0	0	0	0	492	517	292	178	
7	0	0	0	0	494	509	294	176	
8	0	0	0	0	511	503	294	177	
9	0	0	0	0	508	496	293	176	
10	0	0	0	0	514	499	295	176	
11	0	0	0	0	538	509	294	175	
12	0	0	0	0	529	512	295	175	
13	0	0	0	0	531	512	295	175	
14	0	0	0	0	516	505	295	176	
15	0	0	0	0	499	518	295	175	
0	0	0	0	0	493	515	296	175	
1	0	0	0	0	515	508	295	175	
2	0	0	0	0	504	511	295	175	
3	0	0	0	0	482	511	295	176	
4	0	0	0	0	479	511	295	177	
5	0	0	0	0	521	514	295	177	
6	0	0	0	0	529	501	295	177	
7	0	0	0	0	526	495	298	177	
8	0	0	0	0	511	496	298	176	
9	0	0	0	0	493	503	297	176	
10	0	0	0	0	497	508	297	177	
11	0	0	0	0	492	508	298	176	
12	0	0	0	0	489	513	297	177	
13	0	0	0	0	494	511	297	178	
14	0	0	0	0	515	510	297	178	
15	0	0	0	0	534	510	300	178	
0	0	0	0	0	543	512	299	178	
1	0	0	0	0	532	505	299	178	
2	0	0	0	0	526	507	297	177	
3	0	0	0	0	510	512	296	178	
4	0	0	0	0	502	515	296	178	
5	0	0	0	0	504	511	297	179	
6	0	0	0	0	508	507	299	179	
7	0	0	0	0	507	507	299	179	
8	0	0	0	0	505	502	299	178	
9	0	0	0	0	506	510	297	179	
10	0	0	0	0	499	504	299	180	
11	0	0	0	0	495	503	295	180	
12	0	0	0	0	498	499	295	180	
13	0	0	0	0	509	503	293	181	
14	0	0	0	0	511	510	291	181	
15	0	0	0	0	514	502	290	181	
0	0	0	0	0	524	512	290	182	
1	0	0	0	0	527	519	289	182	
2	0	0	0	0	508	518	287	182	
3	0	0	0	0	509	510	285	183	
4	0	0	0	0	513	507	286	183	
5	0	0	0	0	528	507	283	183	
6	0	0	0	0	532	505	285	184	
7	0	0	0	0	515	501	285	184	
8	0	0	0	0	518	508	284	184	
9	0	0	0	0	533	508	284	184	
10	0	0	0	0	531	507	284	185	
11	0	0	0	0	496	513	284	185	
12	0	0	0	0	490	513	283	185	
13	0	0	0	0	508	507	284	185	
14	0	0	0	0	504	505	284	185	
15	0	0	0	0	493	505	284	186	
0	0	0	0	0	510	509	286	187	
1	0	0	0	0	522	516	287	187	
2	0	0	0	0	518	513	285	187	
3	0	0	0	0	512	507	284	186	
4	0	0	0	0	521	501	284	186	
5	0	0	0	0	526	503	280	186	
6	0	0	0	0	509	512	280	187	
7	0	0	0	0	493	511	279	187	
8	0	0	0	0	481	504	277	187	
9	0	0	0	0	494	497	279	188	
10	0	0	0	0	498	505	278	188	
11	0	0	0	0	501	519	276	188	
12	0	0	0	0	505	514	275	189	
13	0	0	0	0	510	502	273	189	
14	0	0	0	0	527	498	270	189	
15	0	0	0	0	551	503	268	191	
0	0	0	0	0	538	510	268	188	
1	0	0	0	0	524	511	267	189	
2	0	0	0	0	513	503	265	188	
3	0	0	0	0	492	504	264	188	
4	0	0	0	0	488	512	263	188	
5	0	0	0	0	496	516	263	188	
6	0	0	0	0	520	522	261	191	
7	0	0	0	0	509	516	259	192	
8	0	0	0	0	502	510	259	191	
9	0	0	0	0	507	503	259	191	
10	0	0	0	0	530	507	259	191	
11	0	0	0	0	519	502	259	194	
12	0	0	0	0	510	499	259	192	
13	0	0	0	0	513	501	258	192	
14	0	0	0	0	523	512	257	192	
15	0	0	0	0	512	521	257	194	
0	0	0	0	0	516	515	257	194	
1	0	0	0	0	508	509	256	192	
2	0	0	0	0	504	517	257	191	
3	0	0	0	0	501	508	257	192	
4	0	0	0	0	491	504	256	191	
5	0	0	0	0	492	494	255	192	
6	0	0	0	0	496	492	257	192	
7	0	0	0	0	495	504	258	191	
8	0	0	0	0	509	513	258	192	
9	0	0	0	0	523	509	257	192	
10	0	0	0	0	538	512	256	192	
11	0	0	0	0	551	508	256	191	
12	0	0	0	0	547	508	255	191	
13	0	0	0	0	533	510	256	191	
14	0	0	0	0	511	515	257	192	
15	0	0	0	0	507	516	258	192	
0	0	0	0	0	498	512	261	192	
1	0	0	0	0	488	506	260	192	
2	0	0	0	0	482	505	262	192	
3	0	0	0	0	483	504	262	194	
4	0	0	0	0	499	512	264	191	
5	0	0	0	0	521	516	265	191	
6	0	0	0	0	525	505	264	193	
7	0	0	0	0	518	505	262	192	
8	0	0	0	0	522	505	262	192	
9	0	0	0	0	510	495	261	192	
10	0	0	0	0	502	510	261	193	
11	0	0	0	0	500	518	262	192	
12	0	0	0	0	487	500	262	192	
13	0	0	0	0	497	500	263	194	
14	0	0	0	0	514	503	262	194	
15	0	0	0	0	522	507	262	193	
0	0	0	0	0	540	509	262	194	
1	0	0	0	0	547	513	262	193	
2	0	0	0	0	541	516	262	195	
3	0	0	0	0	511	512	262	194	
4	0	0	0	0	499	509	263	194	
5	0	0	0	0	479	503	263	195	
6	0	0	0	0	495	510	264	194	
7	0	0	0	0	517	516	264	194	
8	0	0	0	0	520	510	265	194	
9	0	0	0	0	512	504	263	194	
10	0	0	0	0	520	506	264	193	
11	0	0	0	0	501	508	263	193	
12	0	0	0	0	493	507	263	194	
13	0	0	0	0	493	506	262	195	
14	0	0	0	0	508	506	263	198	
15	0	0	0	0	518	501	263	196	
0	0	0	0	0	526	507	263	195	
1	0	0	0	0	547	511	263	195	
2	0	0	0	0	519	518	263	196	
3	0	0	0	0	503	517	263	196	
4	0	0	0	0	502	515	264	197	
5	0	0	0	0	514	509	264	198	
6	0	0	0	0	521	503	264	199	
7	0	0	0	0	503	502	261	199	
8	0	0	0	0	489	504	263	198	
9	0	0	0	0	495	508	261	199	
10	0	0	0	0	502	508	260	199	
11	0	0	0	0	512	506	260	199	
12	0	0	0	0	517	508	259	201	
13	0	0	0	0	527	506	259	200	
14	0	0	0	0	528	504	259	199	
15	0	0	0	0	529	507	258	199	
0	0	0	0	0	517	513	257	200	
1	0	0	0	0	519	511	257	199	
2	0	0	0	0	510	512	258	199	
3	0	0	0	0	496	510	257	198	
4	0	0	0	0	501	506	258	199	
5	0	0	0	0	505	504	258	200	
6	0	0	0	0	496	502	257	200	
7	0	0	0	0	510	507	255	200	
8	0	0	0	0	508	515	256	200	
9	0	0	0	0	507	508	255	199	
10	0	0	0	0	518	511	255	199	
11	0	0	0	0	514	508	254	199	
12	0	0	0	0	518	509	255	199	
13	0	0	0	0	515	510	253	199	
14	0	0	0	0	509	515	254	199	
15	0	0	0	0	502	518	253	199	
0	0	0	0	0	491	510	252	198	
1	0	0	0	0	488	496	252	197	
2	0	0	0	0	499	492	252	196	
3	0	0	0	0	501	493	252	196	
4	0	0	0	0	516	508	249	195	
5	0	0	0	0	534	512	246	196	
6	0	0	0	0	537	519	246	196	
7	0	0	0	0	527	512	245	195	
8	0	0	0	0	523	514	246	195	
9	0	0	0	0	518	510	246	195	
10	0	0	0	0	519	507	246	195	
11	0	0	0	0	522	508	247	194	
12	0	0	0	0	524	509	248	193	
13	0	0	0	0	499	504	247	193	
14	0	0	0	0	498	504	246	194	
15	0	0	0	0	511	500	246	193	
0	0	0	0	0	507	504	246	192	
1	0	0	0	0	514	512	246	190	
2	0	0	0	0	504	515	246	191	
3	0	0	0	0	499	506	246	191	
4	0	0	0	0	513	507	246	190	
5	0	0	0	0	509	507	246	190	
6	0	0	0	0	509	507	246	190	
7	0	0	0	0	507	508	246	190	
8	0	0	0	0	508	510	246	190	
9	0	0	0	0	510	507	246	191	
10	0	0	0	0	507	511	247	191	
11	0	0	0	0	506	509	247	191	
12	0	0	0	0	512	509	248	192	
13	0	0	0	0	519	510	248	191	
14	0	0	0	0	518	510	249	191	
15	0	0	0	0	507	507	249	191	
0	0	0	0	0	514	507	250	193	
1	0	0	0	0	509	507	249	192	
2	0	0	0	0	510	508	249	191	
3	0	0	0	0	509	508	250	191	
4	0	0	0	0	506	509	251	192	
5	0	0	0	0	510	506	252	191	
6	0	0	0	0	517	508	250	191	
7	0	0	0	0	514	505	251	191	
8	0	0	0	0	509	508	252	192	
9	0	0	0	0	512	511	252	192	
10	0	0	0	0	511	511	251	192	
11	0	0	0	0	503	506	252	194	
12	0	0	0	0	499	508	252	192	
13	0	0	0	0	504	508	252	192	
14	0	0	0	0	507	507	252	192	
15	0	0	0	0	517	510	253	192	
0	0	0	0	0	515	507	252	191	
1	0	0	0	0	518	510	251	191	
2	0	0	0	0	514	510	252	190	
3	0	0	0	0	510	505	252	190	
4	0	0	0	0	523	506	252	189	
5	0	0	0	0	536	507	252	188	
6	0	0	0	0	515	507	252	187	
7	0	0	0	0	507	510	253	187	
8	0	0	0	0	508	511	253	187	
9	0	0	0	0	502	505	252	187	
10	0	0	0	0	503	506	252	187	
11	0	0	0	0	508	509	252	187	
12	0	0	0	0	518	514	251	186	
13	0	0	0	0	506	510	252	185	
14	0	0	0	0	506	505	252	185	
15	0	0	0	0	512	510	252	185	
0	0	0	0	0	524	508	252	185	
1	0	0	0	0	523	505	251	184	
2	0	0	0	0	511	505	251	184	
3	0	0	0	0	498	505	251	185	
4	0	0	0	0	499	507	251	184	
5	0	0	0	0	497	508	251	184	
6	0	0	0	0	502	505	251	184	
7	0	0	0	0	525	506	251	183	
8	0	0	0	0	514	509	251	182	
9	0	0	0	0	507	511	251	181	
10	0	0	0	0	494	512	251	181	
11	0	0	0	0	501	510	252	180	
12	0	0	0	0	519	512	252	181	
13	0	0	0	0	522	509	251	181	
14	0	0	0	0	515	508	252	182	
15	0	0	0	0	526	508	252	181	
0	0	0	0	0	542	505	252	180	
1	0	0	0	0	542	507	252	180	
2	0	0	0	0	521	507	251	180	
3	0	0	0	0	501	509	252	180	
4	0	0	0	0	487	509	252	180	
5	0	0	0	0	494	504	252	179	
6	0	0	0	0	501	504	252	180	
7	0	0	0	0	504	511	252	180	
8	0	0	0	0	506	509	252	179	
9	0	0	0	0	509	505	251	180	
10	0	0	0	0	509	504	252	179	
11	0	0	0	0	507	505	251	179	
12	0	0	0	0	511	506	252	178	
13	0	0	0	0	514	512	251	177	
14	0	0	0	0	510	514	251	174	
15	0	0	0	0	511	510	251	173	
0	0	0	0	0	512	507	249	172	
1	0	0	0	0	509	510	249	170	
2	0	0	0	0	511	511	250	169	
3	0	0	0	0	511	505	249	168	
4	0	0	0	0	508	501	248	168	
5	0	0	0	0	500	508	248	167	
6	0	0	0	0	502	507	248	167	
7	0	0	0	0	501	506	247	167	
8	0	0	0	0	516	510	247	166	
9	0	0	0	0	523	506	248	166	
10	0	0	0	0	555	509	248	166	
11	0	0	0	0	548	512	248	165	
12	0	0	0	0	521	515	248	165	
13	0	0	0	0	502	504	249	165	
14	0	0	0	0	502	507	249	164	
15	0	0	0	0	503	510	248	164	
0	0	0	0	0	508	504	250	163	
1	0	0	0	0	507	499	250	162	
2	0	0	0	0	503	509	250	162	
3	0	0	0	0	488	509	249	161	
4	0	0	0	0	501	509	251	161	
5	0	0	0	0	505	511	251	159	
6	0	0	0	0	514	508	252	159	
7	0	0	0	0	503	508	252	160	
8	0	0	0	0	500	514	252	159	
9	0	0	0	0	506	513	255	159	
10	0	0	0	0	520	509	255	159	
11	0	0	0	0	531	510	257	159	
12	0	0	0	0	520	502	258	159	
13	0	0	0	0	517	503	259	159	
14	0	0	0	0	519	501	262	159	
15	0	0	0	0	505	510	263	158	
0	0	0	0	0	502	510	263	158	
1	0	0	0	0	511	510	265	157	
2	0	0	0	0	521	509	264	156	
3	0	0	0	0	507	509	265	155	
4	0	0	0	0	501	504	267	155	
5	0	0	0	0	498	507	268	154	
6	0	0	0	0	506	507	270	155	
7	0	0	0	0	511	508	269	155	
8	0	0	0	0	507	511	270	155	
9	0	0	0	0	514	507	271	154	
10	0	0	0	0	519	513	272	152	
11	0	0	0	0	526	515	272	152	
12	0	0	0	0	512	516	272	151	
13	0	0	0	0	514	509	271	151	
14	0	0	0	0	527	505	271	152	
15	0	0	0	0	531	503	272	150	
0	0	0	0	0	513	508	273	150	
1	0	0	0	0	513	508	272	150	
2	0	0	0	0	516	505	273	150	
3	0	0	0	0	509	500	273	149	
4	0	0	0	0	504	508	273	148	
5	0	0	0	0	502	509	272	147	
6	0	0	0	0	500	510	273	147	
7	0	0	0	0	501	512	273	145	
8	0	0	0	0	501	508	273	143	
9	0	0	0	0	507	509	274	144	
10	0	0	0	0	506	510	274	141	
11	0	0	0	0	510	508	273	142	
12	0	0	0	0	512	508	272	142	
13	0	0	0	0	512	506	273	142	
14	0	0	0	0	527	505	272	142	
15	0	0	0	0	521	508	272	142	
0	0	0	0	0	525	512	271	142	
1	0	0	0	0	521	511	271	142	
2	0	0	0	0	498	508	271	141	
3	0	0	0	0	489	507	271	141	
4	0	0	0	0	494	503	270	140	
5	0	0	0	0	510	499	270	141	
6	0	0	0	0	525	504	271	143	
7	0	0	0	0	530	511	270	144	
8	0	0	0	0	520	510	269	144	
9	0	0	0	0	520	511	269	143	
10	0	0	0	0	523	510	270	143	
11	0	0	0	0	513	512	269	145	
12	0	0	0	0	491	510	268	144	
13	0	0	0	0	487	511	268	143	
14	0	0	0	0	508	508	268	143	
15	0	0	0	0	509	503	269	144	
0	0	0	0	0	510	505	269	144	
1	0	0	0	0	509	511	269	144	
2	0	0	0	0	504	509	268	144	
3	0	0	0	0	505	507	269	145	
4	0	0	0	0	503	506	269	145	
5	0	0	0	0	512	505	269	144	
6	0	0	0	0	519	506	268	145	
7	0	0	0	0	514	510	268	145	
8	0	0	0	0	516	508	268	144	
9	0	0	0	0	519	509	268	144	
10	0	0	0	0	508	510	267	144	
11	0	0	0	0	504	509	268	143	
12	0	0	0	0	511	513	269	143	
13	0	0	0	0	513	512	268	142	
14	0	0	0	0	512	508	270	141	
15	0	0	0	0	512	504	270	141	
0	0	0	0	0	515	506	271	141	
1	0	0	0	0	517	509	270	141	
2	0	0	0	0	528	508	271	139	
3	0	0	0	0	519	506	270	139	
4	0	0	0	0	509	508	270	139	
5	0	0	0	0	501	509	270	138	
6	0	0	0	0	505	507	271	137	
7	0	0	0	0	505	505	271	136	
8	0	0	0	0	511	509	271	136	
9	0	0	0	0	507	509	270	135	
10	0	0	0	0	511	504	270	134	
11	0	0	0	0	506	499	271	134	
12	0	0	0	0	504	508	271	135	
13	0	0	0	0	513	514	270	133	
14	0	0	0	0	508	518	270	132	
15	0	0	0	0	511	510	269	132	
0	0	0	0	0	513	509	270	133	
1	0	0	0	0	516	505	269	131	
2	0	0	0	0	522	505	270	131	
3	0	0	0	0	525	508	268	131	
4	0	0	0	0	513	502	267	130	
5	0	0	0	0	500	504	267	132	
6	0	0	0	0	492	507	264	132	
7	0	0	0	0	495	508	263	131	
8	0	0	0	0	491	507	263	131	
9	0	0	0	0	502	512	263	131	
10	0	0	0	0	528	508	262	130	
11	0	0	0	0	546	511	263	131	
12	0	0	0	0	547	508	263	130	
13	0	0	0	0	529	512	263	130	
14	0	0	0	0	511	513	262	129	
15	0	0	0	0	505	507	262	128	
0	0	0	0	0	505	510	262	129	
1	0	0	0	0	499	509	261	128	
2	0	0	0	0	498	505	263	127	
3	0	0	0	0	494	503	263	127	
4	0	0	0	0	505	507	262	126	
5	0	0	0	0	519	505	263	126	
6	0	0	0	0	521	508	264	125	
7	0	0	0	0	519	509	264	123	
8	0	0	0	0	516	510	264	124	
9	0	0	0	0	513	508	265	124	
10	0	0	0	0	511	508	263	124	
11	0	0	0	0	509	505	263	123	
12	0	0	0	0	503	506	263	123	
13	0	0	0	0	508	509	262	123	
14	0	0	0	0	504	509	263	124	
15	0	0	0	0	508	508	262	124	
0	0	0	0	0	506	505	261	122	
1	0	0	0	0	508	507	262	122	
2	0	0	0	0	503	508	261	122	
3	0	0	0	0	504	511	262	122	
4	0	0	0	0	510	511	263	123	
5	0	0	0	0	508	505	262	123	
6	0	0	0	0	517	510	263	123	
7	0	0	0	0	523	511	262	123	
8	0	0	0	0	527	508	262	123	
9	0	0	0	0	520	508	263	122	
10	0	0	0	0	513	508	264	121	
11	0	0	0	0	510	512	264	121	
12	0	0	0	0	511	509	264	121	
13	0	0	0	0	508	508	264	122	
14	0	0	0	0	502	505	264	122	
15	0	0	0	0	499	506	261	122	
0	0	0	0	0	497	506	259	121	
1	0	0	0	0	499	506	259	122	
2	0	0	0	0	502	507	259	122	
3	0	0	0	0	513	507	256	123	
4	0	0	0	0	537	508	255	123	
5	0	0	0	0	532	509	256	123	
6	0	0	0	0	534	508	254	123	
7	0	0	0	0	527	512	254	122	
8	0	0	0	0	506	510	252	122	
9	0	0	0	0	503	507	251	121	
10	0	0	0	0	497	509	248	120	
11	0	0	0	0	504	509	248	121	
12	0	0	0	0	506	508	248	121	
13	0	0	0	0	511	508	248	120	
14	0	0	0	0	512	508	246	120	
15	0	0	0	0	508	506	243	120	
0	0	0	0	0	511	506	242	119	
1	0	0	0	0	509	506	243	119	
2	0	0	0	0	511	508	242	118	
3	0	0	0	0	509	508	241	118	
4	0	0	0	0	511	509	242	118	
5	0	0	0	0	510	508	241	118	
6	0	0	0	0	510	507	241	118	
7	0	0	0	0	509	508	238	119	
8	0	0	0	0	510	508	236	118	
9	0	0	0	0	510	511	234	118	
10	0	0	0	0	510	509	234	118	
11	0	0	0	0	510	509	234	118	
12	0	0	0	0	509	509	231	118	
13	0	0	0	0	506	509	231	118	
14	0	0	0	0	508	508	229	119	
15	0	0	0	0	515	507	230	117	
0	0	0	0	0	514	508	228	118	
1	0	0	0	0	511	509	226	117	
2	0	0	0	0	513	510	226	117	
3	0	0	0	0	511	506	226	116	
4	0	0	0	0	511	508	226	118	
5	0	0	0	0	522	505	224	118	
6	0	0	0	0	515	503	224	118	
7	0	0	0	0	511	505	225	119	
8	0	0	0	0	505	507	224	119	
9	0	0	0	0	506	508	223	118	
10	0	0	0	0	505	511	223	118	
11	0	0	0	0	514	508	224	119	
12	0	0	0	0	518	508	224	118	
13	0	0	0	0	514	509	223	118	
14	0	0	0	0	506	510	222	116	
15	0	0	0	0	506	510	221	117	
0	0	0	0	0	510	509	220	117	
1	0	0	0	0	518	507	218	117	
2	0	0	0	0	516	508	219	117	
3	0	0	0	0	510	509	220	116	
4	0	0	0	0	513	510	217	116	
5	0	0	0	0	513	507	217	115	
6	0	0	0	0	509	506	217	116	
7	0	0	0	0	511	507	218	115	
8	0	0	0	0	510	507	216	115	
9	0	0	0	0	510	505	216	116	
10	0	0	0	0	511	507	215	114	
11	0	0	0	0	511	508	216	114	
12	0	0	0	0	512	510	215	112	
13	0	0	0	0	511	508	215	111	
14	0	0	0	0	508	503	214	111	
15	0	0	0	0	511	503	214	110	
0	0	0	0	0	510	509	213	109	
1	0	0	0	0	508	507	213	109	
2	0	0	0	0	512	513	211	108	
3	0	0	0	0	504	509	210	109	
4	0	0	0	0	504	509	210	108	
5	0	0	0	0	507	510	210	109	
6	0	0	0	0	512	512	210	109	
7	0	0	0	0	515	511	209	108	
8	0	0	0	0	515	511	208	108	
9	0	0	0	0	511	505	209	109	
10	0	0	0	0	511	505	208	109	
11	0	0	0	0	511	504	209	108	
12	0	0	0	0	515	502	208	107	
13	0	0	0	0	516	508	209	106	
14	0	0	0	0	515	510	208	105	
15	0	0	0	0	519	508	208	104	
0	0	0	0	0	512	509	208	103	
1	0	0	0	0	509	507	208	102	
2	0	0	0	0	508	511	208	102	
3	0	0	0	0	508	508	207	101	
4	0	0	0	0	509	505	205	102	
5	0	0	0	0	511	506	204	102	
6	0	0	0	0	508	507	205	101	
7	0	0	0	0	508	508	204	102	
8	0	0	0	0	509	511	202	101	
9	0	0	0	0	509	508	200	101	
10	0	0	0	0	507	508	201	101	
11	0	0	0	0	510	512	198	101	
12	0	0	0	0	512	512	198	99	
13	0	0	0	0	517	507	198	100	
14	0	0	0	0	513	505	198	102	
15	0	0	0	0	513	505	197	101	
0	0	0	0	0	511	506	196	99	
1	0	0	0	0	513	509	195	99	
2	0	0	0	0	507	506	193	98	
3	0	0	0	0	509	507	192	99	
4	0	0	0	0	512	507	190	98	
5	0	0	0	0	513	507	189	97	
6	0	0	0	0	518	508	189	96	
7	0	0	0	0	516	509	187	97	
8	0	0	0	0	512	510	187	95	
9	0	0	0	0	505	510	186	94	
10	0	0	0	0	505	508	186	95	
11	0	0	0	0	507	508	183	95	
12	0	0	0	0	505	509	183	95	
13	0	0	0	0	509	509	183	95	
14	0	0	0	0	509	509	183	96	
15	0	0	0	0	507	508	184	96	
0	0	0	0	0	510	509	183	96	
1	0	0	0	0	514	507	184	96	
2	0	0	0	0	515	502	182	96	
3	0	0	0	0	515	499	182	96	
4	0	0	0	0	510	504	183	97	
5	0	0	0	0	516	508	182	97	
6	0	0	0	0	513	510	183	97	
7	0	0	0	0	511	512	182	97	
8	0	0	0	0	509	510	181	97	
9	0	0	0	0	513	509	182	96	
10	0	0	0	0	513	508	182	97	
11	0	0	0	0	513	510	180	96	
12	0	0	0	0	511	510	180	96	
13	0	0	0	0	509	509	181	96	
14	0	0	0	0	504	507	184	96	
15	0	0	0	0	506	508	185	95	
0	0	0	0	0	505	507	186	95	
1	0	0	0	0	508	508	186	96	
2	0	0	0	0	508	508	188	96	
3	0	0	0	0	509	509	187	96	
4	0	0	0	0	513	509	188	96	
5	0	0	0	0	519	510	190	96	
6	0	0	0	0	520	508	189	96	
7	0	0	0	0	515	510	189	95	
8	0	0	0	0	515	508	190	96	
9	0	0	0	0	512	508	188	95	
10	0	0	0	0	504	507	186	95	
11	0	0	0	0	504	508	185	95	
12	0	0	0	0	509	508	186	94	
13	0	0	0	0	514	511	187	95	
14	0	0	0	0	515	507	186	95	
15	0	0	0	0	525	508	185	96	
0	0	0	0	0	515	509	185	96	
1	0	0	0	0	517	507	185	96	
2	0	0	0	0	511	507	185	95	
3	0	0	0	0	504	508	184	95	
4	0	0	0	0	505	506	183	95	
5	0	0	0	0	507	510	183	95	
6	0	0	0	0	508	507	180	94	
7	0	0	0	0	508	509	180	92	
8	0	0	0	0	510	510	179	91	
9	0	0	0	0	511	508	179	91	
10	0	0	0	0	510	509	176	91	
11	0	0	0	0	513	506	175	90	
12	0	0	0	0	508	506	174	89	
13	0	0	0	0	508	509	174	89	
14	0	0	0	0	509	509	175	89	
15	0	0	0	0	510	508	174	89	
0	0	0	0	0	511	509	175	89	
1	0	0	0	0	511	509	173	89	
2	0	0	0	0	513	509	172	89	
3	0	0	0	0	519	510	171	88	
4	0	0	0	0	526	510	168	88	
5	0	0	0	0	515	508	167	89	
6	0	0	0	0	505	504	167	88	
7	0	0	0	0	501	506	166	87	
8	0	0	0	0	501	506	167	86	
9	0	0	0	0	504	509	164	83	
10	0	0	0	0	511	510	164	82	
11	0	0	0	0	510	508	163	81	
12	0	0	0	0	508	509	163	79	
13	0	0	0	0	511	508	162	76	
14	0	0	0	0	511	513	163	74	
15	0	0	0	0	515	510	161	71	
0	0	0	0	0	511	509	160	70	
1	0	0	0	0	511	504	159	68	
2	0	0	0	0	513	505	158	63	
3	0	0	0	0	512	504	156	59	
4	0	0	0	0	511	506	157	56	
5	0	0	0	0	512	506	157	55	
6	0	0	0	0	512	508	156	49	
7	0	0	0	0	513	509	157	48	
8	0	0	0	0	515	510	156	46	
9	0	0	0	0	513	508	154	44	
10	0	0	0	0	508	509	155	41	
11	0	0	0	0	507	510	154	41	
12	0	0	0	0	507	508	151	40	
13	0	0	0	0	508	508	150	39	
14	0	0	0	0	507	509	149	30	
15	0	0	0	0	507	510	149	26	
0	0	0	0	0	507	508	145	12	
1	0	0	0	0	508	505	141	14	
2	0	0	0	0	509	506	139	12	
3	0	0	0	0	514	508	137	13	
4	0	0	0	0	515	507	140	7	
5	0	0	0	0	519	508	134	5	
6	0	0	0	0	515	508	133	4	
7	0	0	0	0	508	509	134	2	
8	0	0	0	0	508	507	132	0	
9	0	0	0	0	510	507	129	0	
10	0	0	0	0	510	510	127	0	
11	0	0	0	0	510	509	125	0	
12	0	0	0	0	512	507	123	0	
13	0	0	0	0	513	510	122	0	
14	0	0	0	0	516	513	120	0	
15	0	0	0	0	516	510	119	0	
0	0	0	0	0	504	509	115	0	
1	0	0	0	0	511	509	115	0	
2	0	0	0	0	512	509	111	0	
3	0	0	0	0	515	507	108	0	
4	0	0	0	0	515	506	106	0	
5	0	0	0	0	513	508	104	0	
6	0	0	0	0	511	508	102	0	
7	0	0	0	0	514	508	102	0	
8	0	0	0	0	517	509	98	0	
9	0	0	0	0	515	508	97	0	
10	0	0	0	0	511	508	98	0	
11	0	0	0	0	508	508	97	0	
12	0	0	0	0	506	507	97	0	
13	0	0	0	0	507	505	97	0	
14	0	0	0	0	508	507	96	0	
15	0	0	0	0	507	510	96	0	
0	0	0	0	0	515	508	96	0	
1	0	0	0	0	514	507	96	0	
2	0	0	0	0	511	508	95	0	
3	0	0	0	0	513	509	95	0	
4	0	0	0	0	510	509	92	0	
5	0	0	0	0	510	508	91	0	
6	0	0	0	0	509	509	90	0	
7	0	0	0	0	508	508	89	0	
8	0	0	0	0	508	509	89	0	
9	0	0	0	0	504	507	88	0	
10	0	0	0	0	502	508	88	0	
11	0	0	0	0	504	508	87	0	
12	0	0	0	0	508	510	88	0	
13	0	0	0	0	517	509	87	0	
14	0	0	0	0	528	509	88	0	
15	0	0	0	0	537	508	87	0	
0	0	0	0	0	516	510	86	0	
1	0	0	0	0	509	508	85	0	
2	0	0	0	0	502	507	84	0	
3	0	0	0	0	503	508	83	0	
4	0	0	0	0	501	507	83	0	
5	0	0	0	0	503	507	81	0	
6	0	0	0	0	507	506	82	0	
7	0	0	0	0	507	505	81	0	
8	0	0	0	0	509	509	81	0	
9	0	0	0	0	520	510	81	0	
10	0	0	0	0	536	508	80	0	
11	0	0	0	0	508	506	80	0	
12	0	0	0	0	499	508	78	0	
13	0	0	0	0	508	509	76	0	
14	0	0	0	0	504	510	75	0	
15	0	0	0	0	510	508	73	0	
0	0	0	0	0	517	508	73	0	
1	0	0	0	0	518	507	69	0	
2	0	0	0	0	523	509	69	0	
3	0	0	0	0	529	507	68	0	
4	0	0	0	0	516	508	70	0	
5	0	0	0	0	508	507	70	0	
6	0	0	0	0	505	508	70	0	
7	0	0	0	0	506	508	70	0	
8	0	0	0	0	507	508	69	0	
9	0	0	0	0	505	507	70	0	
10	0	0	0	0	507	506	69	0	
11	0	0	0	0	505	509	68	0	
12	0	0	0	0	506	508	69	0	
13	0	0	0	0	505	508	67	0	
14	0	0	0	0	504	507	66	0	
15	0	0	0	0	506	508	66	0	
0	0	0	0	0	511	508	65	0	
1	0	0	0	0	513	508	64	0	
2	0	0	0	0	517	510	64	0	
3	0	0	0	0	518	509	62	0	
4	0	0	0	0	524	506	62	0	
5	0	0	0	0	524	507	61	0	
6	0	0	0	0	516	508	61	0	
7	0	0	0	0	509	507	62	0	
8	0	0	0	0	505	508	61	0	
9	0	0	0	0	503	508	59	0	
10	0	0	0	0	498	507	59	0	
11	0	0	0	0	499	508	58	0	
12	0	0	0	0	503	508	59	0	
13	0	0	0	0	504	509	57	0	
14	0	0	0	0	507	508	57	0	
15	0	0	0	0	514	508	55	0	
0	0	0	0	0	531	507	55	0	
1	0	0	0	0	539	508	54	0	
2	0	0	0	0	520	509	55	0	
3	0	0	0	0	508	508	55	0	
4	0	0	0	0	506	510	51	0	
5	0	0	0	0	507	510	49	0	
6	0	0	0	0	508	508	48	0	
7	0	0	0	0	511	509	44	0	
8	0	0	0	0	511	510	42	0	
9	0	0	0	0	510	508	39	0	
10	0	0	0	0	510	507	38	0	
11	0	0	0	0	511	507	37	0	
12	0	0	0	0	511	507	34	0	
13	0	0	0	0	509	507	31	0	
14	0	0	0	0	512	507	27	0	
15	0	0	0	0	510	508	26	0	
0	0	0	0	0	511	506	23	0	
1	0	0	0	0	514	508	22	0	
2	0	0	0	0	513	508	22	0	
3	0	0	0	0	509	510	20	0	
4	0	0	0	0	507	509	19	0	
5	0	0	0	0	510	509	18	0	
6	0	0	0	0	501	508	18	0	
7	0	0	0	0	503	509	19	0	
8	0	0	0	0	512	508	17	0	
9	0	0	0	0	523	508	15	0	
10	0	0	0	0	521	509	14	0	
11	0	0	0	0	516	509	14	0	
12	0	0	0	0	511	508	12	0	
13	0	0	0	0	513	507	9	0	
14	0	0	0	0	510	510	6	0	
15	0	0	0	0	511	507	7	0	
0	0	0	0	0	512	508	0	0	
1	0	0	0	0	506	507	0	0	
2	0	0	0	0	503	508	0	0	
3	0	0	0	0	504	508	0	0	
4	0	0	0	0	508	507	0	0	
5	0	0	0	0	512	506	0	0	
6	0	0	0	0	511	508	0	0	
7	0	0	0	0	512	508	0	0	
8	0	0	0	0	515	508	0	0	
9	0	0	0	0	520	509	0	0	
10	0	0	0	0	519	509	0	0	
11	0	0	0	0	514	509	0	0	
12	0	0	0	0	508	510	0	0	
13	0	0	0	0	508	508	0	0	
14	0	0	0	0	511	508	0	0	
15	0	0	0	0	511	510	0	0	
0	0	0	0	0	510	508	0	0	
1	0	0	0	0	513	507	0	0	
2	0	0	0	0	511	510	0	0	
3	0	0	0	0	508	508	0	0	
4	0	0	0	0	511	506	0	0	
5	0	0	0	0	509	508	0	0	
6	0	0	0	0	508	508	0	0	
7	0	0	0	0	509	507	0	0	
8	0	0	0	0	511	507	0	0	
9	0	0	0	0	511	508	0	0	
10	0	0	0	0	508	508	0	0	
11	0	0	0	0	508	506	0	0	
12	0	0	0	0	508	509	0	0	
13	0	0	0	0	509	509	0	0	
14	0	0	0	0	510	508	0	0	
15	0	0	0	0	510	508	0	0	
0	0	0	0	0	510	506	0	0	
1	0	0	0	0	514	507	0	0	
2	0	0	0	0	513	508	0	0	
3	0	0	0	0	515	510	0	0	
4	0	0	0	0	517	508	0	0	
5	0	0	0	0	515	508	0	0	
6	0	0	0	0	513	507	0	0	
7	0	0	0	0	513	508	0	0	
8	0	0	0	0	512	509	0	0	
9	0	0	0	0	509	509	0	0	
10	0	0	0	0	509	508	0	0	
11	0	0	0	0	509	510	0	0	
12	0	0	0	0	512	508	0	0	
13	0	0	0	0	510	506	0	0	
14	0	0	0	0	508	510	0	0	
15	0	0	0	0	507	509	0	0	
0	0	0	0	0	509	508	0	0	
1	0	0	0	0	510	509	0	0	
2	0	0	0	0	511	508	0	0	
3	0	0	0	0	510	510	0	0	
4	0	0	0	0	511	509	0	0	
5	0	0	0	0	512	508	0	0	
6	0	0	0	0	512	509	0	0	
7	0	0	0	0	512	507	0	0	
8	0	0	0	0	512	508	0	0	
9	0	0	0	0	516	509	0	0	
10	0	0	0	0	515	508	0	0	
11	0	0	0	0	513	506	0	0	
12	0	0	0	0	513	508	0	0	
13	0	0	0	0	509	506	0	0	
14	0	0	0	0	508	507	0	0	
15	0	0	0	0	508	507	0	0	
0	0	0	0	0	506	508	0	0	
1	0	0	0	0	505	507	0	0	
2	0	0	0	0	508	506	0	0	
3	0	0	0	0	512	508	0	0	
4	0	0	0	0	512	508	0	0	
5	0	0	0	0	510	508	0	0	
6	0	0	0	0	512	508	0	0	
7	0	0	0	0	511	508	0	0	
8	0	0	0	0	514	510	0	0	
9	0	0	0	0	512	508	0	0	
10	0	0	0	0	512	507	0	0	
11	0	0	0	0	515	511	0	0	
12	0	0	0	0	516	508	0	0	
13	0	0	0	0	512	507	0	0	
14	0	0	0	0	512	507	0	0	
15	0	0	0	0	513	509	0	0	
0	0	0	0	0	512	509	0	0	
1	0	0	0	0	511	507	0	0	
2	0	0	0	0	510	507	0	0	
3	0	0	0	0	508	507	0	0	
4	0	0	0	0	506	509	0	0	
5	0	0	0	0	507	508	0	0	
6	0	0	0	0	511	509	0	0	
7	0	0	0	0	509	509	0	0	
8	0	0	0	0	511	507	0	0	
9	0	0	0	0	509	508	0	0	
10	0	0	0	0	510	508	0	0	
11	0	0	0	0	509	508	0	0	
12	0	0	0	0	511	507	0	0	
13	0	0	0	0	514	508	0	0	
14	0	0	0	0	515	509	0	0	
15	0	0	0	0	514	508	0	0	
0	0	0	0	0	511	507	0	0	
1	0	0	0	0	513	507	0	0	
2	0	0	0	0	512	507	0	0	
3	0	0	0	0	512	508	0	0	
4	0	0	0	0	511	509	0	0	
5	0	0	0	0	511	505	0	0	
6	0	0	0	0	511	507	0	0	
7	0	0	0	0	510	508	0	0	
8	0	0	0	0	509	508	0	0	
9	0	0	0	0	507	507	0	0	
10	0	0	0	0	508	509	0	0	
11	0	0	0	0	510	508	0	0	
12	0	0	0	0	509	508	0	0	
13	0	0	0	0	511	506	0	0	
14	0	0	0	0	512	508	0	0	
15	0	0	0	0	511	509	0	0	
0	0	0	0	0	512	509	0	0	
1	0	0	0	0	512	508	0	0	
2	0	0	0	0	512	511	0	0	
3	0	0	0	0	514	507	0	0	
4	0	0	0	0	514	506	0	0	
5	0	0	0	0	513	509	0	0	
6	0	0	0	0	511	507	0	0	
7	0	0	0	0	512	508	0	0	
8	0	0	0	0	513	508	0	0	
9	0	0	0	0	514	508	0	0	
10	0	0	0	0	511	508	0	0	
11	0	0	0	0	511	508	0	0	
12	0	0	0	0	508	507	0	0	
13	0	0	0	0	508	507	0	0	
14	0	0	0	0	510	507	0	0	
15	0	0	0	0	510	508	0	0	
0	0	0	0	0	509	508	0	0	
1	0	0	0	0	511	510	0	0	
2	0	0	0	0	510	509	0	0	
3	0	0	0	0	512	507	0	0	
4	0	0	0	0	513	510	0	0	
5	0	0	0	0	512	509	0	0	
6	0	0	0	0	511	508	0	0	
7	0	0	0	0	513	507	0	0	
8	0	0	0	0	515	508	0	0	
9	0	0	0	0	512	508	0	0	
10	0	0	0	0	513	506	0	0	
11	0	0	0	0	511	507	0	0	
12	0	0	0	0	515	507	0	0	
13	0	0	0	0	511	510	0	0	
14	0	0	0	0	510	508	0	0	
15	0	0	0	0	511	511	0	0	
0	0	0	0	0	509	507	0	0	
1	0	0	0	0	506	508	0	0	
2	0	0	0	0	508	507	0	0	
3	0	0	0	0	511	507	0	0	
4	0	0	0	0	511	508	0	0	
5	0	0	0	0	510	508	0	0	
6	0	0	0	0	511	507	0	0	
7	0	0	0	0	511	508	0	0	
8	0	0	0	0	512	508	0	0	
9	0	0	0	0	512	510	0	0	
10	0	0	0	0	512	509	0	0	
11	0	0	0	0	513	509	0	0	
12	0	0	0	0	514	508	0	0	
13	0	0	0	0	513	507	0	0	
14	0	0	0	0	514	505	0	0	
15	0	0	0	0	512	508	0	0	
0	0	0	0	0	511	507	0	0	
1	0	0	0	0	511	508	0	0	
2	0	0	0	0	510	508	0	0	
3	0	0	0	0	508	509	0	0	
4	0	0	0	0	510	509	0	0	
5	0	0	0	0	509	508	0	0	
6	0	0	0	0	508	508	0	0	
7	0	0	0	0	508	509	0	0	
