# OpenSignals Text File Format. Version 1
# {"20:18:06:13:21:78": {"position": 0, "device": "bitalino_rev", "device name": "20:18:06:13:21:78", "device connection": "BTH20:18:06:13:21:78", "sampling rate": 1000, "resolution": [4, 1, 1, 1, 1, 10, 10, 10, 10], "firmware version": 1281, "comments": "", "keywords": "", "mode": 0, "sync interval": 2, "date": "2023-5-30", "time": "19:59:42.597", "channels": [1, 2, 3, 4], "sensor": ["EMGBITREV", "EMGBITREV", "RAW", "RAW"], "label": ["A1", "A2", "A3", "A4"], "column": ["nSeq", "I1", "I2", "O1", "O2", "A1", "A2", "A3", "A4"], "special": [{}, {}, {}, {}], "digital IO": [0, 0, 1, 1]}}
# EndOfHeader
0	0	0	0	0	511	508	0	0	
1	0	0	0	0	511	509	0	0	
2	0	0	0	0	515	508	0	0	
3	0	0	0	0	513	508	0	0	
4	0	0	0	0	512	507	0	0	
5	0	0	0	0	512	507	0	0	
6	0	0	0	0	508	506	0	0	
7	0	0	0	0	510	506	0	0	
8	0	0	0	0	508	507	0	0	
9	0	0	0	0	510	505	0	0	
10	0	0	0	0	511	508	0	0	
11	0	0	0	0	513	507	0	0	
12	0	0	0	0	510	508	0	0	
13	0	0	0	0	511	508	0	0	
14	0	0	0	0	511	510	0	0	
15	0	0	0	0	512	510	0	0	
0	0	0	0	0	511	510	0	0	
1	0	0	0	0	514	509	0	0	
2	0	0	0	0	512	509	0	0	
3	0	0	0	0	512	509	0	0	
4	0	0	0	0	511	508	0	0	
5	0	0	0	0	512	508	0	0	
6	0	0	0	0	513	508	0	0	
7	0	0	0	0	511	507	0	0	
8	0	0	0	0	512	507	0	0	
9	0	0	0	0	511	505	0	0	
10	0	0	0	0	511	507	0	0	
11	0	0	0	0	509	510	0	0	
12	0	0	0	0	509	507	0	0	
13	0	0	0	0	507	507	0	0	
14	0	0	0	0	512	507	0	0	
15	0	0	0	0	510	507	0	0	
0	0	0	0	0	510	508	0	0	
1	0	0	0	0	510	510	0	0	
2	0	0	0	0	509	510	0	0	
3	0	0	0	0	513	507	0	0	
4	0	0	0	0	512	510	0	0	
5	0	0	0	0	512	509	0	0	
6	0	0	0	0	511	508	0	0	
7	0	0	0	0	511	509	0	0	
8	0	0	0	0	509	508	0	0	
9	0	0	0	0	510	509	0	0	
10	0	0	0	0	508	509	0	0	
11	0	0	0	0	510	507	0	0	
12	0	0	0	0	511	507	0	0	
13	0	0	0	0	515	506	0	0	
14	0	0	0	0	513	508	0	0	
15	0	0	0	0	513	508	0	0	
0	0	0	0	0	511	508	0	0	
1	0	0	0	0	511	506	0	0	
2	0	0	0	0	511	507	0	0	
3	0	0	0	0	508	507	0	0	
4	0	0	0	0	511	508	0	0	
5	0	0	0	0	510	508	0	0	
6	0	0	0	0	512	509	0	0	
7	0	0	0	0	510	510	0	0	
8	0	0	0	0	510	510	0	0	
9	0	0	0	0	509	508	0	0	
10	0	0	0	0	511	510	0	0	
11	0	0	0	0	513	509	0	0	
12	0	0	0	0	512	509	0	0	
13	0	0	0	0	511	507	0	0	
14	0	0	0	0	510	507	0	0	
15	0	0	0	0	510	509	0	0	
0	0	0	0	0	515	507	0	0	
1	0	0	0	0	512	507	0	0	
2	0	0	0	0	513	509	0	0	
3	0	0	0	0	511	505	0	0	
4	0	0	0	0	511	508	0	0	
5	0	0	0	0	510	506	0	0	
6	0	0	0	0	509	508	0	0	
7	0	0	0	0	511	506	0	0	
8	0	0	0	0	512	508	0	0	
9	0	0	0	0	510	509	0	0	
10	0	0	0	0	511	509	0	0	
11	0	0	0	0	511	509	0	0	
12	0	0	0	0	510	509	0	0	
13	0	0	0	0	513	509	0	0	
14	0	0	0	0	513	509	0	0	
15	0	0	0	0	511	509	0	0	
0	0	0	0	0	511	509	0	0	
1	0	0	0	0	512	507	0	0	
2	0	0	0	0	508	507	0	0	
3	0	0	0	0	511	506	0	0	
4	0	0	0	0	511	506	0	0	
5	0	0	0	0	510	506	0	0	
6	0	0	0	0	510	507	0	0	
7	0	0	0	0	511	508	0	0	
8	0	0	0	0	511	507	0	0	
9	0	0	0	0	511	508	0	0	
10	0	0	0	0	511	507	0	0	
11	0	0	0	0	510	504	0	0	
12	0	0	0	0	511	507	0	0	
13	0	0	0	0	510	508	0	0	
14	0	0	0	0	509	509	0	0	
15	0	0	0	0	513	509	0	0	
0	0	0	0	0	511	511	0	0	
1	0	0	0	0	510	511	0	0	
2	0	0	0	0	512	510	0	0	
3	0	0	0	0	513	509	0	0	
4	0	0	0	0	510	509	0	0	
5	0	0	0	0	511	508	0	0	
6	0	0	0	0	513	508	0	0	
7	0	0	0	0	511	508	0	0	
8	0	0	0	0	510	507	0	0	
9	0	0	0	0	512	508	0	0	
10	0	0	0	0	512	507	0	0	
11	0	0	0	0	511	506	0	0	
12	0	0	0	0	510	508	0	0	
13	0	0	0	0	511	507	0	0	
14	0	0	0	0	510	507	0	0	
15	0	0	0	0	511	505	0	0	
0	0	0	0	0	510	507	0	0	
1	0	0	0	0	508	507	0	0	
2	0	0	0	0	512	510	0	0	
3	0	0	0	0	511	508	0	0	
4	0	0	0	0	512	511	0	0	
5	0	0	0	0	513	508	0	0	
6	0	0	0	0	511	508	0	0	
7	0	0	0	0	514	510	0	0	
8	0	0	0	0	511	509	0	0	
9	0	0	0	0	512	509	0	0	
10	0	0	0	0	511	509	0	0	
11	0	0	0	0	511	508	0	0	
12	0	0	0	0	512	507	0	0	
13	0	0	0	0	511	508	0	0	
14	0	0	0	0	511	507	0	0	
15	0	0	0	0	508	508	0	0	
0	0	0	0	0	508	510	0	0	
1	0	0	0	0	510	507	0	0	
2	0	0	0	0	512	506	0	0	
3	0	0	0	0	511	507	0	0	
4	0	0	0	0	513	507	0	0	
5	0	0	0	0	510	507	0	0	
6	0	0	0	0	511	511	0	0	
7	0	0	0	0	511	510	0	0	
8	0	0	0	0	510	508	0	0	
9	0	0	0	0	511	509	0	0	
10	0	0	0	0	512	509	0	0	
11	0	0	0	0	512	511	0	0	
12	0	0	0	0	511	508	0	0	
13	0	0	0	0	510	507	0	0	
14	0	0	0	0	511	510	0	0	
15	0	0	0	0	512	507	0	0	
0	0	0	0	0	515	507	0	0	
1	0	0	0	0	512	508	0	0	
2	0	0	0	0	509	504	0	0	
3	0	0	0	0	511	508	0	0	
4	0	0	0	0	515	508	0	0	
5	0	0	0	0	511	507	0	0	
6	0	0	0	0	510	506	0	0	
7	0	0	0	0	512	508	0	0	
8	0	0	0	0	510	507	0	0	
9	0	0	0	0	510	508	0	0	
10	0	0	0	0	511	509	0	0	
11	0	0	0	0	508	510	0	0	
12	0	0	0	0	509	511	0	0	
13	0	0	0	0	511	508	0	0	
14	0	0	0	0	508	507	0	0	
15	0	0	0	0	509	508	0	0	
0	0	0	0	0	510	508	0	0	
1	0	0	0	0	511	508	0	0	
2	0	0	0	0	511	508	0	0	
3	0	0	0	0	512	508	0	0	
4	0	0	0	0	514	507	0	0	
5	0	0	0	0	514	507	0	0	
6	0	0	0	0	512	507	0	0	
7	0	0	0	0	510	507	0	0	
8	0	0	0	0	510	507	0	0	
9	0	0	0	0	510	508	0	0	
10	0	0	0	0	510	508	0	0	
11	0	0	0	0	512	508	0	0	
12	0	0	0	0	511	508	0	0	
13	0	0	0	0	509	507	0	0	
14	0	0	0	0	510	508	0	0	
15	0	0	0	0	509	508	0	0	
0	0	0	0	0	511	507	0	0	
1	0	0	0	0	510	509	0	0	
2	0	0	0	0	513	508	0	0	
3	0	0	0	0	511	509	0	0	
4	0	0	0	0	508	507	0	0	
5	0	0	0	0	511	511	0	0	
6	0	0	0	0	515	507	0	0	
7	0	0	0	0	513	508	0	0	
8	0	0	0	0	511	508	0	0	
9	0	0	0	0	512	508	0	0	
10	0	0	0	0	512	508	0	0	
11	0	0	0	0	512	507	0	0	
12	0	0	0	0	512	507	0	0	
13	0	0	0	0	512	507	0	0	
14	0	0	0	0	511	507	0	0	
15	0	0	0	0	511	507	0	0	
0	0	0	0	0	512	508	0	0	
1	0	0	0	0	512	509	0	0	
2	0	0	0	0	510	508	0	0	
3	0	0	0	0	511	510	0	0	
4	0	0	0	0	511	509	0	0	
5	0	0	0	0	507	508	0	0	
6	0	0	0	0	510	509	0	0	
7	0	0	0	0	512	509	0	0	
8	0	0	0	0	511	507	0	0	
9	0	0	0	0	511	509	0	0	
10	0	0	0	0	511	508	0	0	
11	0	0	0	0	510	509	0	0	
12	0	0	0	0	509	507	0	0	
13	0	0	0	0	511	507	0	0	
14	0	0	0	0	510	507	0	0	
15	0	0	0	0	512	507	0	0	
0	0	0	0	0	511	508	0	0	
1	0	0	0	0	513	508	0	0	
2	0	0	0	0	513	508	0	0	
3	0	0	0	0	512	508	0	0	
4	0	0	0	0	510	507	0	0	
5	0	0	0	0	509	507	0	0	
6	0	0	0	0	511	510	0	0	
7	0	0	0	0	511	507	0	0	
8	0	0	0	0	510	511	0	0	
9	0	0	0	0	511	509	0	0	
10	0	0	0	0	511	508	0	0	
11	0	0	0	0	510	508	0	0	
12	0	0	0	0	510	508	0	0	
13	0	0	0	0	513	510	0	0	
14	0	0	0	0	511	508	0	0	
15	0	0	0	0	511	508	0	0	
0	0	0	0	0	513	507	0	0	
1	0	0	0	0	512	507	0	0	
2	0	0	0	0	513	509	0	0	
3	0	0	0	0	509	507	0	0	
4	0	0	0	0	511	508	0	0	
5	0	0	0	0	511	507	0	0	
6	0	0	0	0	510	507	0	0	
7	0	0	0	0	511	507	0	0	
8	0	0	0	0	509	508	0	0	
9	0	0	0	0	509	510	0	0	
10	0	0	0	0	513	510	0	0	
11	0	0	0	0	512	509	0	0	
12	0	0	0	0	510	507	0	0	
13	0	0	0	0	510	508	0	0	
14	0	0	0	0	513	510	0	0	
15	0	0	0	0	512	508	0	0	
0	0	0	0	0	509	509	0	0	
1	0	0	0	0	510	510	0	0	
2	0	0	0	0	509	508	0	0	
3	0	0	0	0	512	508	0	0	
4	0	0	0	0	515	508	0	0	
5	0	0	0	0	511	507	0	0	
6	0	0	0	0	513	507	0	0	
7	0	0	0	0	509	506	0	0	
8	0	0	0	0	510	506	0	0	
9	0	0	0	0	510	508	0	0	
10	0	0	0	0	510	506	0	0	
11	0	0	0	0	511	505	0	0	
12	0	0	0	0	510	508	0	0	
13	0	0	0	0	509	510	0	0	
14	0	0	0	0	508	510	0	0	
15	0	0	0	0	510	508	0	0	
0	0	0	0	0	510	508	0	0	
1	0	0	0	0	510	509	0	0	
2	0	0	0	0	511	509	0	0	
3	0	0	0	0	512	507	0	0	
4	0	0	0	0	512	508	0	0	
5	0	0	0	0	514	508	0	0	
6	0	0	0	0	512	506	0	0	
7	0	0	0	0	513	506	0	0	
8	0	0	0	0	510	507	0	0	
9	0	0	0	0	509	507	0	0	
10	0	0	0	0	512	508	0	0	
11	0	0	0	0	513	508	0	0	
12	0	0	0	0	512	508	0	0	
13	0	0	0	0	511	509	0	0	
14	0	0	0	0	510	508	0	0	
15	0	0	0	0	510	507	0	0	
0	0	0	0	0	510	508	0	0	
1	0	0	0	0	510	508	0	0	
2	0	0	0	0	509	511	0	0	
3	0	0	0	0	512	508	0	0	
4	0	0	0	0	511	510	0	0	
5	0	0	0	0	509	511	0	0	
6	0	0	0	0	515	509	0	0	
7	0	0	0	0	513	511	0	0	
8	0	0	0	0	512	510	0	0	
9	0	0	0	0	508	507	0	0	
10	0	0	0	0	511	508	0	0	
11	0	0	0	0	513	504	0	0	
12	0	0	0	0	510	507	0	0	
13	0	0	0	0	511	507	0	0	
14	0	0	0	0	512	508	0	0	
15	0	0	0	0	513	508	0	0	
0	0	0	0	0	512	508	0	0	
1	0	0	0	0	511	507	0	0	
2	0	0	0	0	511	507	0	0	
3	0	0	0	0	511	508	0	0	
4	0	0	0	0	512	508	0	0	
5	0	0	0	0	511	508	0	0	
6	0	0	0	0	508	510	0	0	
7	0	0	0	0	511	510	0	0	
8	0	0	0	0	510	509	0	0	
9	0	0	0	0	511	509	0	0	
10	0	0	0	0	511	508	0	0	
11	0	0	0	0	511	508	0	0	
12	0	0	0	0	510	508	0	0	
13	0	0	0	0	511	509	0	0	
14	0	0	0	0	511	508	0	0	
15	0	0	0	0	511	507	0	0	
0	0	0	0	0	509	507	0	0	
1	0	0	0	0	513	507	0	0	
2	0	0	0	0	513	507	0	0	
3	0	0	0	0	513	508	0	0	
4	0	0	0	0	512	505	0	0	
5	0	0	0	0	509	509	0	0	
6	0	0	0	0	511	508	0	0	
7	0	0	0	0	512	506	0	0	
8	0	0	0	0	512	507	0	0	
9	0	0	0	0	508	509	0	0	
10	0	0	0	0	511	510	0	0	
11	0	0	0	0	511	509	0	0	
12	0	0	0	0	512	510	0	0	
13	0	0	0	0	513	508	0	0	
14	0	0	0	0	510	509	0	0	
15	0	0	0	0	511	508	0	0	
0	0	0	0	0	511	507	0	0	
1	0	0	0	0	512	510	0	0	
2	0	0	0	0	511	508	0	0	
3	0	0	0	0	512	505	0	0	
4	0	0	0	0	512	507	0	0	
5	0	0	0	0	510	506	0	0	
6	0	0	0	0	507	506	0	0	
7	0	0	0	0	508	508	0	0	
8	0	0	0	0	511	508	0	0	
9	0	0	0	0	510	508	0	0	
10	0	0	0	0	511	507	0	0	
11	0	0	0	0	509	509	0	0	
12	0	0	0	0	510	508	0	0	
13	0	0	0	0	513	508	0	0	
14	0	0	0	0	511	509	0	0	
15	0	0	0	0	512	508	0	0	
0	0	0	0	0	513	510	0	0	
1	0	0	0	0	513	510	0	0	
2	0	0	0	0	508	508	0	0	
3	0	0	0	0	510	508	0	0	
4	0	0	0	0	513	510	0	0	
5	0	0	0	0	512	509	0	0	
6	0	0	0	0	512	508	0	0	
7	0	0	0	0	509	507	0	0	
8	0	0	0	0	511	507	0	0	
9	0	0	0	0	512	507	0	0	
10	0	0	0	0	510	507	0	0	
11	0	0	0	0	512	506	0	0	
12	0	0	0	0	512	508	0	0	
13	0	0	0	0	511	506	0	0	
14	0	0	0	0	511	507	0	0	
15	0	0	0	0	510	508	0	0	
0	0	0	0	0	507	510	0	0	
1	0	0	0	0	509	511	0	0	
2	0	0	0	0	511	509	0	0	
3	0	0	0	0	512	508	0	0	
4	0	0	0	0	513	507	0	0	
5	0	0	0	0	513	509	0	0	
6	0	0	0	0	512	507	0	0	
7	0	0	0	0	512	509	0	0	
8	0	0	0	0	512	509	0	0	
9	0	0	0	0	511	509	0	0	
10	0	0	0	0	511	508	0	0	
11	0	0	0	0	511	505	0	0	
12	0	0	0	0	511	507	0	0	
13	0	0	0	0	509	507	0	0	
14	0	0	0	0	508	507	0	0	
15	0	0	0	0	509	507	0	0	
0	0	0	0	0	511	509	0	0	
1	0	0	0	0	514	507	0	0	
2	0	0	0	0	513	505	0	0	
3	0	0	0	0	510	507	0	0	
4	0	0	0	0	509	508	0	0	
5	0	0	0	0	508	509	0	0	
6	0	0	0	0	509	509	0	0	
7	0	0	0	0	509	509	0	0	
8	0	0	0	0	510	510	0	0	
9	0	0	0	0	513	508	0	0	
10	0	0	0	0	512	507	0	0	
11	0	0	0	0	511	508	0	0	
12	0	0	0	0	511	508	0	0	
13	0	0	0	0	510	509	0	0	
14	0	0	0	0	511	510	0	0	
15	0	0	0	0	513	506	0	0	
0	0	0	0	0	511	509	0	0	
1	0	0	0	0	512	507	0	0	
2	0	0	0	0	512	507	0	0	
3	0	0	0	0	510	508	0	0	
4	0	0	0	0	511	508	0	0	
5	0	0	0	0	514	506	0	0	
6	0	0	0	0	513	507	0	0	
7	0	0	0	0	512	507	0	0	
8	0	0	0	0	511	508	0	0	
9	0	0	0	0	511	509	0	0	
10	0	0	0	0	509	507	0	0	
11	0	0	0	0	513	508	0	0	
12	0	0	0	0	513	508	0	0	
13	0	0	0	0	510	510	0	0	
14	0	0	0	0	514	508	0	0	
15	0	0	0	0	509	509	0	0	
0	0	0	0	0	510	511	0	0	
1	0	0	0	0	510	507	0	0	
2	0	0	0	0	513	506	0	0	
3	0	0	0	0	512	507	0	0	
4	0	0	0	0	512	510	0	0	
5	0	0	0	0	512	508	0	0	
6	0	0	0	0	510	507	0	0	
7	0	0	0	0	509	506	0	0	
8	0	0	0	0	512	508	0	0	
9	0	0	0	0	509	508	0	0	
10	0	0	0	0	511	507	0	0	
11	0	0	0	0	512	506	0	0	
12	0	0	0	0	510	506	0	0	
13	0	0	0	0	511	507	0	0	
14	0	0	0	0	509	509	0	0	
15	0	0	0	0	512	508	0	0	
0	0	0	0	0	514	508	0	0	
1	0	0	0	0	511	510	0	0	
2	0	0	0	0	512	510	0	0	
3	0	0	0	0	513	508	0	0	
4	0	0	0	0	512	510	0	0	
5	0	0	0	0	511	509	0	0	
6	0	0	0	0	509	507	0	0	
7	0	0	0	0	509	508	0	0	
8	0	0	0	0	513	509	0	0	
9	0	0	0	0	510	507	0	0	
10	0	0	0	0	508	507	0	0	
11	0	0	0	0	510	508	0	0	
12	0	0	0	0	511	507	0	0	
13	0	0	0	0	510	508	0	0	
14	0	0	0	0	511	509	0	0	
15	0	0	0	0	511	507	0	0	
0	0	0	0	0	510	506	0	0	
1	0	0	0	0	509	509	0	0	
2	0	0	0	0	513	506	0	0	
3	0	0	0	0	512	510	0	0	
4	0	0	0	0	512	508	0	0	
5	0	0	0	0	512	508	0	0	
6	0	0	0	0	512	507	0	0	
7	0	0	0	0	512	507	0	0	
8	0	0	0	0	510	509	0	0	
9	0	0	0	0	509	507	0	0	
10	0	0	0	0	510	510	0	0	
11	0	0	0	0	511	509	0	0	
12	0	0	0	0	513	507	0	0	
13	0	0	0	0	511	506	0	0	
14	0	0	0	0	513	507	0	0	
15	0	0	0	0	511	507	0	0	
0	0	0	0	0	513	506	0	0	
1	0	0	0	0	511	508	0	0	
2	0	0	0	0	511	507	0	0	
3	0	0	0	0	512	507	0	0	
4	0	0	0	0	511	508	0	0	
5	0	0	0	0	511	510	0	0	
6	0	0	0	0	512	510	0	0	
7	0	0	0	0	508	508	0	0	
8	0	0	0	0	510	508	0	0	
9	0	0	0	0	511	508	0	0	
10	0	0	0	0	509	509	0	0	
11	0	0	0	0	508	511	0	0	
12	0	0	0	0	509	508	0	0	
13	0	0	0	0	511	508	0	0	
14	0	0	0	0	512	507	0	0	
15	0	0	0	0	511	508	0	0	
0	0	0	0	0	512	508	0	0	
1	0	0	0	0	511	506	0	0	
2	0	0	0	0	509	506	0	0	
3	0	0	0	0	513	509	0	0	
4	0	0	0	0	512	508	0	0	
5	0	0	0	0	511	510	0	0	
6	0	0	0	0	511	505	0	0	
7	0	0	0	0	512	507	0	0	
8	0	0	0	0	512	507	0	0	
9	0	0	0	0	510	509	0	0	
10	0	0	0	0	510	508	0	0	
11	0	0	0	0	512	510	0	0	
12	0	0	0	0	513	509	0	0	
13	0	0	0	0	511	510	0	0	
14	0	0	0	0	509	508	0	0	
15	0	0	0	0	511	507	0	0	
0	0	0	0	0	509	509	0	0	
1	0	0	0	0	509	508	0	0	
2	0	0	0	0	511	507	0	0	
3	0	0	0	0	510	507	0	0	
4	0	0	0	0	512	505	0	0	
5	0	0	0	0	513	507	0	0	
6	0	0	0	0	514	507	0	0	
7	0	0	0	0	512	506	0	0	
8	0	0	0	0	511	509	0	0	
9	0	0	0	0	512	508	0	0	
10	0	0	0	0	510	507	0	0	
11	0	0	0	0	511	508	0	0	
12	0	0	0	0	509	509	0	0	
13	0	0	0	0	508	508	0	0	
14	0	0	0	0	508	508	0	0	
15	0	0	0	0	508	507	0	0	
0	0	0	0	0	511	509	0	0	
1	0	0	0	0	509	511	0	0	
2	0	0	0	0	512	509	0	0	
3	0	0	0	0	513	509	0	0	
4	0	0	0	0	510	508	0	0	
5	0	0	0	0	510	509	0	0	
6	0	0	0	0	514	508	0	0	
7	0	0	0	0	513	507	0	0	
8	0	0	0	0	509	508	0	0	
9	0	0	0	0	508	508	0	0	
10	0	0	0	0	512	506	0	0	
11	0	0	0	0	512	508	0	0	
12	0	0	0	0	509	507	0	0	
13	0	0	0	0	512	508	0	0	
14	0	0	0	0	511	507	0	0	
15	0	0	0	0	513	506	0	0	
0	0	0	0	0	510	508	0	0	
1	0	0	0	0	510	508	0	0	
2	0	0	0	0	512	509	0	0	
3	0	0	0	0	513	508	0	0	
4	0	0	0	0	512	508	0	0	
5	0	0	0	0	513	506	0	0	
6	0	0	0	0	511	508	0	0	
7	0	0	0	0	511	510	0	0	
8	0	0	0	0	508	508	0	0	
9	0	0	0	0	509	511	0	0	
10	0	0	0	0	513	508	0	0	
11	0	0	0	0	512	507	0	0	
12	0	0	0	0	512	508	0	0	
13	0	0	0	0	510	505	0	0	
14	0	0	0	0	508	507	0	0	
15	0	0	0	0	511	508	0	0	
0	0	0	0	0	510	506	0	0	
1	0	0	0	0	510	507	0	0	
2	0	0	0	0	513	507	0	0	
3	0	0	0	0	512	510	0	0	
4	0	0	0	0	511	510	0	0	
5	0	0	0	0	511	509	0	0	
6	0	0	0	0	511	509	0	0	
7	0	0	0	0	510	507	0	0	
8	0	0	0	0	508	510	0	0	
9	0	0	0	0	512	508	0	0	
10	0	0	0	0	512	508	0	0	
11	0	0	0	0	513	508	0	0	
12	0	0	0	0	513	508	0	0	
13	0	0	0	0	510	511	0	0	
14	0	0	0	0	511	509	0	0	
15	0	0	0	0	515	507	0	0	
0	0	0	0	0	514	511	0	0	
1	0	0	0	0	511	507	0	0	
2	0	0	0	0	509	505	0	0	
3	0	0	0	0	510	506	0	0	
4	0	0	0	0	515	507	0	0	
5	0	0	0	0	510	509	0	0	
6	0	0	0	0	511	508	0	0	
7	0	0	0	0	510	507	0	0	
8	0	0	0	0	512	508	0	0	
9	0	0	0	0	511	508	0	0	
10	0	0	0	0	506	508	0	0	
11	0	0	0	0	509	510	0	0	
12	0	0	0	0	508	510	0	0	
13	0	0	0	0	510	511	0	0	
14	0	0	0	0	513	508	0	0	
15	0	0	0	0	515	508	0	0	
0	0	0	0	0	511	509	0	0	
1	0	0	0	0	505	509	0	0	
2	0	0	0	0	511	507	0	0	
3	0	0	0	0	512	509	0	0	
4	0	0	0	0	512	508	0	0	
5	0	0	0	0	513	507	0	0	
6	0	0	0	0	510	508	0	0	
7	0	0	0	0	511	507	0	0	
8	0	0	0	0	511	506	0	0	
9	0	0	0	0	509	506	0	0	
10	0	0	0	0	510	508	0	0	
11	0	0	0	0	512	509	0	0	
12	0	0	0	0	510	508	0	0	
13	0	0	0	0	508	508	0	0	
14	0	0	0	0	511	508	0	0	
15	0	0	0	0	510	509	0	0	
0	0	0	0	0	512	511	0	0	
1	0	0	0	0	511	508	0	0	
2	0	0	0	0	511	510	0	0	
3	0	0	0	0	512	508	0	0	
4	0	0	0	0	512	507	0	0	
5	0	0	0	0	510	508	0	0	
6	0	0	0	0	510	509	0	0	
7	0	0	0	0	513	508	0	0	
8	0	0	0	0	513	506	0	0	
9	0	0	0	0	511	508	0	0	
10	0	0	0	0	512	509	0	0	
11	0	0	0	0	510	506	0	0	
12	0	0	0	0	512	505	0	0	
13	0	0	0	0	510	510	0	0	
14	0	0	0	0	510	508	0	0	
15	0	0	0	0	513	508	0	0	
0	0	0	0	0	512	506	0	0	
1	0	0	0	0	510	510	0	0	
2	0	0	0	0	511	509	0	0	
3	0	0	0	0	511	508	0	0	
4	0	0	0	0	511	510	0	0	
5	0	0	0	0	509	509	0	0	
6	0	0	0	0	508	507	0	0	
7	0	0	0	0	510	508	0	0	
8	0	0	0	0	509	508	0	0	
9	0	0	0	0	512	510	0	0	
10	0	0	0	0	512	508	0	0	
11	0	0	0	0	512	508	0	0	
12	0	0	0	0	510	506	0	0	
13	0	0	0	0	511	509	0	0	
14	0	0	0	0	511	508	0	0	
15	0	0	0	0	511	507	0	0	
0	0	0	0	0	515	508	0	0	
1	0	0	0	0	514	508	0	0	
2	0	0	0	0	512	508	0	0	
3	0	0	0	0	511	507	0	0	
4	0	0	0	0	510	506	0	0	
5	0	0	0	0	511	508	0	0	
6	0	0	0	0	511	508	0	0	
7	0	0	0	0	512	508	0	0	
8	0	0	0	0	512	511	0	0	
9	0	0	0	0	506	510	0	0	
10	0	0	0	0	509	508	0	0	
11	0	0	0	0	513	510	0	0	
12	0	0	0	0	514	508	0	0	
13	0	0	0	0	508	509	0	0	
14	0	0	0	0	510	505	0	0	
15	0	0	0	0	514	508	0	0	
0	0	0	0	0	509	508	0	0	
1	0	0	0	0	511	507	0	0	
2	0	0	0	0	512	507	0	0	
3	0	0	0	0	512	507	0	0	
4	0	0	0	0	510	508	0	0	
5	0	0	0	0	510	508	0	0	
6	0	0	0	0	510	509	0	0	
7	0	0	0	0	511	508	0	0	
8	0	0	0	0	511	508	0	0	
9	0	0	0	0	510	509	0	0	
10	0	0	0	0	511	509	0	0	
11	0	0	0	0	512	510	0	0	
12	0	0	0	0	510	509	0	0	
13	0	0	0	0	511	508	0	0	
14	0	0	0	0	511	508	0	0	
15	0	0	0	0	512	509	0	0	
0	0	0	0	0	512	508	0	0	
1	0	0	0	0	510	510	0	0	
2	0	0	0	0	511	507	0	0	
3	0	0	0	0	511	506	0	0	
4	0	0	0	0	512	506	0	0	
5	0	0	0	0	511	508	0	0	
6	0	0	0	0	511	508	0	0	
7	0	0	0	0	510	507	0	0	
8	0	0	0	0	510	508	0	0	
9	0	0	0	0	510	507	0	0	
10	0	0	0	0	509	508	0	0	
11	0	0	0	0	513	505	0	0	
12	0	0	0	0	511	508	0	0	
13	0	0	0	0	509	508	0	0	
14	0	0	0	0	511	510	0	0	
15	0	0	0	0	510	510	0	0	
0	0	0	0	0	512	511	0	0	
1	0	0	0	0	511	509	0	0	
2	0	0	0	0	511	507	0	0	
3	0	0	0	0	510	509	0	0	
4	0	0	0	0	511	509	0	0	
5	0	0	0	0	511	508	0	0	
6	0	0	0	0	513	507	0	0	
7	0	0	0	0	511	505	0	0	
8	0	0	0	0	508	507	0	0	
9	0	0	0	0	513	506	0	0	
10	0	0	0	0	513	505	0	0	
11	0	0	0	0	509	508	0	0	
12	0	0	0	0	508	507	0	0	
13	0	0	0	0	511	508	0	0	
14	0	0	0	0	510	508	0	0	
15	0	0	0	0	510	508	0	0	
0	0	0	0	0	514	507	0	0	
1	0	0	0	0	512	508	0	0	
2	0	0	0	0	509	510	0	0	
3	0	0	0	0	513	510	0	0	
4	0	0	0	0	511	510	0	0	
5	0	0	0	0	512	508	0	0	
6	0	0	0	0	513	509	0	0	
7	0	0	0	0	511	508	0	0	
8	0	0	0	0	510	510	0	0	
9	0	0	0	0	512	508	0	0	
10	0	0	0	0	511	508	0	0	
11	0	0	0	0	510	505	0	0	
12	0	0	0	0	512	508	0	0	
13	0	0	0	0	511	505	0	0	
14	0	0	0	0	512	508	0	0	
15	0	0	0	0	511	508	0	0	
0	0	0	0	0	509	506	0	0	
1	0	0	0	0	510	506	0	0	
2	0	0	0	0	511	506	0	0	
3	0	0	0	0	512	507	0	0	
4	0	0	0	0	509	508	0	0	
5	0	0	0	0	508	511	0	0	
6	0	0	0	0	507	509	0	0	
7	0	0	0	0	509	507	0	0	
8	0	0	0	0	508	508	0	0	
9	0	0	0	0	511	508	0	0	
10	0	0	0	0	512	509	0	0	
11	0	0	0	0	513	509	0	0	
12	0	0	0	0	511	509	0	0	
13	0	0	0	0	512	508	0	0	
14	0	0	0	0	511	509	0	0	
15	0	0	0	0	510	508	0	0	
0	0	0	0	0	511	508	0	0	
1	0	0	0	0	512	506	0	0	
2	0	0	0	0	512	506	0	0	
3	0	0	0	0	512	507	0	0	
4	0	0	0	0	511	508	0	0	
5	0	0	0	0	509	507	0	0	
6	0	0	0	0	511	507	0	0	
7	0	0	0	0	510	508	0	0	
8	0	0	0	0	510	506	0	0	
9	0	0	0	0	512	508	0	0	
10	0	0	0	0	512	509	0	0	
11	0	0	0	0	512	508	0	0	
12	0	0	0	0	510	508	0	0	
13	0	0	0	0	512	508	0	0	
14	0	0	0	0	510	510	0	0	
15	0	0	0	0	511	511	0	0	
0	0	0	0	0	510	511	0	0	
1	0	0	0	0	509	509	0	0	
2	0	0	0	0	512	508	0	0	
3	0	0	0	0	511	508	0	0	
4	0	0	0	0	511	504	0	0	
5	0	0	0	0	513	505	0	0	
6	0	0	0	0	514	507	0	0	
7	0	0	0	0	513	506	0	0	
8	0	0	0	0	511	508	0	0	
9	0	0	0	0	511	506	0	0	
10	0	0	0	0	511	508	0	0	
11	0	0	0	0	512	508	0	0	
12	0	0	0	0	510	508	0	0	
13	0	0	0	0	511	508	0	0	
14	0	0	0	0	511	511	0	0	
15	0	0	0	0	507	509	0	0	
0	0	0	0	0	509	508	0	0	
1	0	0	0	0	510	507	0	0	
2	0	0	0	0	509	508	0	0	
3	0	0	0	0	510	508	0	0	
4	0	0	0	0	511	507	0	0	
5	0	0	0	0	510	509	0	0	
6	0	0	0	0	513	509	0	0	
7	0	0	0	0	509	508	0	0	
8	0	0	0	0	513	507	0	0	
9	0	0	0	0	516	508	0	0	
10	0	0	0	0	514	506	0	0	
11	0	0	0	0	511	506	0	0	
12	0	0	0	0	511	507	0	0	
13	0	0	0	0	513	508	0	0	
14	0	0	0	0	510	504	0	0	
15	0	0	0	0	512	506	0	0	
0	0	0	0	0	511	508	0	0	
1	0	0	0	0	511	507	0	0	
2	0	0	0	0	509	509	0	0	
3	0	0	0	0	511	510	0	0	
4	0	0	0	0	511	509	0	0	
5	0	0	0	0	509	510	0	0	
6	0	0	0	0	511	508	0	0	
7	0	0	0	0	510	508	0	0	
8	0	0	0	0	512	510	0	0	
9	0	0	0	0	510	508	0	0	
10	0	0	0	0	511	509	0	0	
11	0	0	0	0	510	507	0	0	
12	0	0	0	0	513	507	0	0	
13	0	0	0	0	511	508	0	0	
14	0	0	0	0	510	508	0	0	
15	0	0	0	0	511	508	0	0	
0	0	0	0	0	513	508	0	0	
1	0	0	0	0	512	507	0	0	
2	0	0	0	0	509	507	0	0	
3	0	0	0	0	508	508	0	0	
4	0	0	0	0	513	508	0	0	
5	0	0	0	0	511	510	0	0	
6	0	0	0	0	511	510	0	0	
7	0	0	0	0	512	508	0	0	
8	0	0	0	0	511	508	0	0	
9	0	0	0	0	510	508	0	0	
10	0	0	0	0	510	508	0	0	
11	0	0	0	0	511	510	0	0	
12	0	0	0	0	509	508	0	0	
13	0	0	0	0	509	508	0	0	
14	0	0	0	0	513	507	0	0	
15	0	0	0	0	509	508	0	0	
0	0	0	0	0	510	508	0	0	
1	0	0	0	0	512	508	0	0	
2	0	0	0	0	512	506	0	0	
3	0	0	0	0	512	507	0	0	
4	0	0	0	0	511	507	0	0	
5	0	0	0	0	513	507	0	0	
6	0	0	0	0	512	505	0	0	
7	0	0	0	0	513	508	0	0	
8	0	0	0	0	508	508	0	0	
9	0	0	0	0	507	506	0	0	
10	0	0	0	0	510	510	0	0	
11	0	0	0	0	510	508	0	0	
12	0	0	0	0	509	508	0	0	
13	0	0	0	0	512	509	0	0	
14	0	0	0	0	513	508	0	0	
15	0	0	0	0	513	510	0	0	
0	0	0	0	0	513	508	0	0	
1	0	0	0	0	513	509	0	0	
2	0	0	0	0	513	509	0	0	
3	0	0	0	0	514	507	0	0	
4	0	0	0	0	512	506	0	0	
5	0	0	0	0	513	507	0	0	
6	0	0	0	0	512	507	0	0	
7	0	0	0	0	510	507	0	0	
8	0	0	0	0	511	509	0	0	
9	0	0	0	0	510	507	0	0	
10	0	0	0	0	509	508	0	0	
11	0	0	0	0	509	505	0	0	
12	0	0	0	0	510	506	0	0	
13	0	0	0	0	509	508	0	0	
14	0	0	0	0	507	511	0	0	
15	0	0	0	0	510	510	0	0	
0	0	0	0	0	511	509	0	0	
1	0	0	0	0	513	509	0	0	
2	0	0	0	0	510	508	0	0	
3	0	0	0	0	513	509	0	0	
4	0	0	0	0	512	508	0	0	
5	0	0	0	0	511	507	0	0	
6	0	0	0	0	511	509	0	0	
7	0	0	0	0	513	507	0	0	
8	0	0	0	0	512	507	0	0	
9	0	0	0	0	506	508	0	0	
10	0	0	0	0	511	507	0	0	
11	0	0	0	0	512	508	0	0	
12	0	0	0	0	510	508	0	0	
13	0	0	0	0	509	507	0	0	
14	0	0	0	0	512	506	0	0	
15	0	0	0	0	512	505	0	0	
0	0	0	0	0	509	506	0	0	
1	0	0	0	0	512	510	0	0	
2	0	0	0	0	509	508	0	0	
3	0	0	0	0	512	509	0	0	
4	0	0	0	0	511	510	0	0	
5	0	0	0	0	509	510	0	0	
6	0	0	0	0	509	510	0	0	
7	0	0	0	0	511	508	0	0	
8	0	0	0	0	511	509	0	0	
9	0	0	0	0	511	508	0	0	
10	0	0	0	0	510	506	0	0	
11	0	0	0	0	510	508	0	0	
12	0	0	0	0	513	507	0	0	
13	0	0	0	0	512	505	0	0	
14	0	0	0	0	511	508	0	0	
15	0	0	0	0	509	508	0	0	
0	0	0	0	0	509	504	0	0	
1	0	0	0	0	511	508	0	0	
2	0	0	0	0	512	508	0	0	
3	0	0	0	0	514	505	0	0	
4	0	0	0	0	512	508	0	0	
5	0	0	0	0	512	508	0	0	
6	0	0	0	0	512	510	0	0	
7	0	0	0	0	512	508	0	0	
8	0	0	0	0	511	510	0	0	
9	0	0	0	0	510	509	0	0	
10	0	0	0	0	511	506	0	0	
11	0	0	0	0	508	509	0	0	
12	0	0	0	0	510	509	0	0	
13	0	0	0	0	510	508	0	0	
14	0	0	0	0	509	509	0	0	
15	0	0	0	0	512	508	0	0	
0	0	0	0	0	515	507	0	0	
1	0	0	0	0	509	508	0	0	
2	0	0	0	0	510	504	0	0	
3	0	0	0	0	513	507	0	0	
4	0	0	0	0	512	507	0	0	
5	0	0	0	0	515	510	0	0	
6	0	0	0	0	511	506	0	0	
7	0	0	0	0	510	508	0	0	
8	0	0	0	0	510	509	0	0	
9	0	0	0	0	507	508	0	0	
10	0	0	0	0	507	509	0	0	
11	0	0	0	0	509	508	0	0	
12	0	0	0	0	510	509	0	0	
13	0	0	0	0	511	510	0	0	
14	0	0	0	0	510	506	0	0	
15	0	0	0	0	511	510	0	0	
0	0	0	0	0	515	508	0	0	
1	0	0	0	0	513	508	0	0	
2	0	0	0	0	511	507	0	0	
3	0	0	0	0	514	507	0	0	
4	0	0	0	0	511	506	0	0	
5	0	0	0	0	511	508	0	0	
6	0	0	0	0	508	508	0	0	
7	0	0	0	0	513	506	0	0	
8	0	0	0	0	510	507	0	0	
9	0	0	0	0	508	508	0	0	
10	0	0	0	0	510	508	0	0	
11	0	0	0	0	512	507	0	0	
12	0	0	0	0	510	507	0	0	
13	0	0	0	0	509	508	0	0	
14	0	0	0	0	510	511	0	0	
15	0	0	0	0	510	509	0	0	
0	0	0	0	0	511	509	0	0	
1	0	0	0	0	511	509	0	0	
2	0	0	0	0	512	508	0	0	
3	0	0	0	0	511	507	0	0	
4	0	0	0	0	511	508	0	0	
5	0	0	0	0	511	509	0	0	
6	0	0	0	0	512	508	0	0	
7	0	0	0	0	512	509	0	0	
8	0	0	0	0	509	508	0	0	
9	0	0	0	0	511	509	0	0	
10	0	0	0	0	510	508	0	0	
11	0	0	0	0	509	506	0	0	
12	0	0	0	0	508	507	0	0	
13	0	0	0	0	513	506	0	0	
14	0	0	0	0	511	508	0	0	
15	0	0	0	0	511	508	0	0	
0	0	0	0	0	513	508	0	0	
1	0	0	0	0	510	509	0	0	
2	0	0	0	0	510	508	0	0	
3	0	0	0	0	508	509	0	0	
4	0	0	0	0	507	508	0	0	
5	0	0	0	0	509	508	0	0	
6	0	0	0	0	513	511	0	0	
7	0	0	0	0	511	507	0	0	
8	0	0	0	0	513	509	0	0	
9	0	0	0	0	512	508	0	0	
10	0	0	0	0	510	509	0	0	
11	0	0	0	0	513	508	0	0	
12	0	0	0	0	511	508	0	0	
13	0	0	0	0	510	506	0	0	
14	0	0	0	0	512	507	0	0	
15	0	0	0	0	510	504	0	0	
0	0	0	0	0	511	508	0	0	
1	0	0	0	0	511	508	0	0	
2	0	0	0	0	511	508	0	0	
3	0	0	0	0	513	508	0	0	
4	0	0	0	0	511	507	0	0	
5	0	0	0	0	509	508	0	0	
6	0	0	0	0	512	512	0	0	
7	0	0	0	0	510	506	0	0	
8	0	0	0	0	510	508	0	0	
9	0	0	0	0	514	508	0	0	
10	0	0	0	0	512	510	0	0	
11	0	0	0	0	511	508	0	0	
12	0	0	0	0	513	509	0	0	
13	0	0	0	0	509	507	0	0	
14	0	0	0	0	510	508	0	0	
15	0	0	0	0	510	507	0	0	
0	0	0	0	0	510	508	0	0	
1	0	0	0	0	508	506	0	0	
2	0	0	0	0	510	506	0	0	
3	0	0	0	0	512	505	0	0	
4	0	0	0	0	512	508	0	0	
5	0	0	0	0	515	508	0	0	
6	0	0	0	0	514	508	0	0	
7	0	0	0	0	512	507	0	0	
8	0	0	0	0	508	507	0	0	
9	0	0	0	0	510	511	0	0	
10	0	0	0	0	511	508	0	0	
11	0	0	0	0	513	508	0	0	
12	0	0	0	0	509	511	0	0	
13	0	0	0	0	511	511	0	0	
14	0	0	0	0	513	510	0	0	
15	0	0	0	0	512	508	0	0	
0	0	0	0	0	512	507	0	0	
1	0	0	0	0	511	508	0	0	
2	0	0	0	0	509	508	0	0	
3	0	0	0	0	511	509	0	0	
4	0	0	0	0	511	508	0	0	
5	0	0	0	0	510	507	0	0	
6	0	0	0	0	513	505	0	0	
7	0	0	0	0	510	508	0	0	
8	0	0	0	0	510	511	0	0	
9	0	0	0	0	508	508	0	0	
10	0	0	0	0	505	506	0	0	
11	0	0	0	0	510	508	0	0	
12	0	0	0	0	512	507	0	0	
13	0	0	0	0	510	508	0	0	
14	0	0	0	0	512	508	0	0	
15	0	0	0	0	515	509	0	0	
0	0	0	0	0	513	509	0	0	
1	0	0	0	0	511	508	0	0	
2	0	0	0	0	510	510	0	0	
3	0	0	0	0	515	508	0	0	
4	0	0	0	0	513	509	0	0	
5	0	0	0	0	511	509	0	0	
6	0	0	0	0	506	509	0	0	
7	0	0	0	0	510	507	0	0	
8	0	0	0	0	511	508	0	0	
9	0	0	0	0	512	506	0	0	
10	0	0	0	0	511	507	0	0	
11	0	0	0	0	512	508	0	0	
12	0	0	0	0	513	509	0	0	
13	0	0	0	0	510	508	0	0	
14	0	0	0	0	508	508	0	0	
15	0	0	0	0	511	506	0	0	
0	0	0	0	0	515	507	0	0	
1	0	0	0	0	512	509	0	0	
2	0	0	0	0	510	508	0	0	
3	0	0	0	0	511	509	0	0	
4	0	0	0	0	511	510	0	0	
5	0	0	0	0	512	510	0	0	
6	0	0	0	0	510	511	0	0	
7	0	0	0	0	511	507	0	0	
8	0	0	0	0	510	508	0	0	
9	0	0	0	0	511	508	0	0	
10	0	0	0	0	510	509	0	0	
11	0	0	0	0	510	506	0	0	
12	0	0	0	0	512	507	0	0	
13	0	0	0	0	513	508	0	0	
14	0	0	0	0	511	506	0	0	
15	0	0	0	0	510	506	0	0	
0	0	0	0	0	511	506	0	0	
1	0	0	0	0	510	510	0	0	
2	0	0	0	0	510	508	0	0	
3	0	0	0	0	511	508	0	0	
4	0	0	0	0	512	509	0	0	
5	0	0	0	0	511	508	0	0	
6	0	0	0	0	513	510	0	0	
7	0	0	0	0	511	508	0	0	
8	0	0	0	0	510	508	0	0	
9	0	0	0	0	510	511	0	0	
10	0	0	0	0	508	510	0	0	
11	0	0	0	0	511	509	0	0	
12	0	0	0	0	511	508	0	0	
13	0	0	0	0	508	508	0	0	
14	0	0	0	0	510	508	0	0	
15	0	0	0	0	511	506	0	0	
0	0	0	0	0	511	507	0	0	
1	0	0	0	0	512	507	0	0	
2	0	0	0	0	513	508	0	0	
3	0	0	0	0	516	507	0	0	
4	0	0	0	0	511	510	0	0	
5	0	0	0	0	509	507	0	0	
6	0	0	0	0	517	508	0	0	
7	0	0	0	0	512	507	0	0	
8	0	0	0	0	511	507	0	0	
9	0	0	0	0	512	507	0	0	
10	0	0	0	0	511	509	0	0	
11	0	0	0	0	509	510	0	0	
12	0	0	0	0	509	509	0	0	
13	0	0	0	0	508	508	0	0	
14	0	0	0	0	510	509	0	0	
15	0	0	0	0	512	509	0	0	
0	0	0	0	0	508	509	0	0	
1	0	0	0	0	511	508	0	0	
2	0	0	0	0	509	510	0	0	
3	0	0	0	0	511	507	0	0	
4	0	0	0	0	514	507	0	0	
5	0	0	0	0	516	505	0	0	
6	0	0	0	0	510	508	0	0	
7	0	0	0	0	512	507	0	0	
8	0	0	0	0	511	506	0	0	
9	0	0	0	0	509	508	0	0	
10	0	0	0	0	507	507	0	0	
11	0	0	0	0	510	508	0	0	
12	0	0	0	0	511	508	0	0	
13	0	0	0	0	511	508	0	0	
14	0	0	0	0	511	510	0	0	
15	0	0	0	0	510	511	0	0	
0	0	0	0	0	510	509	0	0	
1	0	0	0	0	511	508	0	0	
2	0	0	0	0	512	508	0	0	
3	0	0	0	0	512	507	0	0	
4	0	0	0	0	511	508	0	0	
5	0	0	0	0	508	509	0	0	
6	0	0	0	0	512	508	0	0	
7	0	0	0	0	514	507	0	0	
8	0	0	0	0	512	508	0	0	
9	0	0	0	0	513	506	0	0	
10	0	0	0	0	512	508	0	0	
11	0	0	0	0	514	508	0	0	
12	0	0	0	0	509	507	0	0	
13	0	0	0	0	509	507	0	0	
14	0	0	0	0	509	507	0	0	
15	0	0	0	0	509	507	0	0	
0	0	0	0	0	509	508	0	0	
1	0	0	0	0	507	509	0	0	
2	0	0	0	0	507	509	0	0	
3	0	0	0	0	511	508	0	0	
4	0	0	0	0	511	507	0	0	
5	0	0	0	0	507	509	0	0	
6	0	0	0	0	507	509	0	0	
7	0	0	0	0	509	508	0	0	
8	0	0	0	0	512	510	0	0	
9	0	0	0	0	515	508	0	0	
10	0	0	0	0	513	508	0	0	
11	0	0	0	0	510	510	0	0	
12	0	0	0	0	512	506	0	0	
13	0	0	0	0	515	507	0	0	
14	0	0	0	0	520	506	0	0	
15	0	0	0	0	517	505	0	0	
0	0	0	0	0	513	507	0	0	
1	0	0	0	0	508	509	0	0	
2	0	0	0	0	509	509	0	0	
3	0	0	0	0	510	508	0	0	
4	0	0	0	0	511	508	0	0	
5	0	0	0	0	508	508	0	0	
6	0	0	0	0	508	510	0	0	
7	0	0	0	0	511	508	0	0	
8	0	0	0	0	511	508	0	0	
9	0	0	0	0	508	509	0	0	
10	0	0	0	0	512	509	0	0	
11	0	0	0	0	512	509	0	0	
12	0	0	0	0	512	508	0	0	
13	0	0	0	0	514	508	0	0	
14	0	0	0	0	511	508	0	0	
15	0	0	0	0	515	507	0	0	
0	0	0	0	0	512	507	0	0	
1	0	0	0	0	508	507	0	0	
2	0	0	0	0	508	508	0	0	
3	0	0	0	0	512	507	0	0	
4	0	0	0	0	508	508	0	0	
5	0	0	0	0	508	506	0	0	
6	0	0	0	0	510	506	0	0	
7	0	0	0	0	507	507	0	0	
8	0	0	0	0	504	507	0	0	
9	0	0	0	0	508	508	0	0	
10	0	0	0	0	509	510	0	0	
11	0	0	0	0	506	510	0	0	
12	0	0	0	0	511	508	0	0	
13	0	0	0	0	514	508	0	0	
14	0	0	0	0	516	508	0	0	
15	0	0	0	0	518	510	0	0	
0	0	0	0	0	516	510	0	0	
1	0	0	0	0	517	509	0	0	
2	0	0	0	0	512	508	0	0	
3	0	0	0	0	510	509	0	0	
4	0	0	0	0	511	506	0	0	
5	0	0	0	0	509	509	0	0	
6	0	0	0	0	512	507	0	0	
7	0	0	0	0	508	506	0	0	
8	0	0	0	0	509	506	0	0	
9	0	0	0	0	510	509	0	0	
10	0	0	0	0	510	507	0	0	
11	0	0	0	0	511	504	0	0	
12	0	0	0	0	511	508	0	0	
13	0	0	0	0	510	509	0	0	
14	0	0	0	0	511	510	0	0	
15	0	0	0	0	510	511	0	0	
0	0	0	0	0	509	511	0	0	
1	0	0	0	0	510	509	0	0	
2	0	0	0	0	511	507	0	0	
3	0	0	0	0	511	508	0	0	
4	0	0	0	0	511	508	0	0	
5	0	0	0	0	512	508	0	0	
6	0	0	0	0	513	510	0	0	
7	0	0	0	0	513	508	0	0	
8	0	0	0	0	511	507	0	0	
9	0	0	0	0	508	508	0	0	
10	0	0	0	0	511	507	0	0	
11	0	0	0	0	511	508	0	0	
12	0	0	0	0	511	507	0	0	
13	0	0	0	0	511	508	0	0	
14	0	0	0	0	509	507	0	0	
15	0	0	0	0	509	506	0	0	
0	0	0	0	0	511	507	0	0	
1	0	0	0	0	512	508	0	0	
2	0	0	0	0	511	508	0	0	
3	0	0	0	0	511	509	0	0	
4	0	0	0	0	511	509	0	0	
5	0	0	0	0	510	508	0	0	
6	0	0	0	0	513	510	0	0	
7	0	0	0	0	513	510	0	0	
8	0	0	0	0	512	508	0	0	
9	0	0	0	0	510	510	0	0	
10	0	0	0	0	511	508	0	0	
11	0	0	0	0	512	507	0	0	
12	0	0	0	0	510	507	0	0	
13	0	0	0	0	511	508	0	0	
14	0	0	0	0	510	507	0	0	
15	0	0	0	0	509	508	0	0	
0	0	0	0	0	511	508	0	0	
1	0	0	0	0	512	506	0	0	
2	0	0	0	0	513	505	0	0	
3	0	0	0	0	511	508	0	0	
4	0	0	0	0	514	509	0	0	
5	0	0	0	0	511	510	0	0	
6	0	0	0	0	509	509	0	0	
7	0	0	0	0	509	509	0	0	
8	0	0	0	0	509	509	0	0	
9	0	0	0	0	508	509	0	0	
10	0	0	0	0	511	510	0	0	
11	0	0	0	0	509	506	0	0	
12	0	0	0	0	513	509	0	0	
13	0	0	0	0	511	509	0	0	
14	0	0	0	0	511	508	0	0	
15	0	0	0	0	511	507	0	0	
0	0	0	0	0	509	509	0	0	
1	0	0	0	0	509	508	0	0	
2	0	0	0	0	510	507	0	0	
3	0	0	0	0	512	507	0	0	
4	0	0	0	0	511	509	0	0	
5	0	0	0	0	512	509	0	0	
6	0	0	0	0	510	504	0	0	
7	0	0	0	0	512	507	0	0	
8	0	0	0	0	511	505	0	0	
9	0	0	0	0	513	509	0	0	
10	0	0	0	0	513	510	0	0	
11	0	0	0	0	510	508	0	0	
12	0	0	0	0	511	511	0	0	
13	0	0	0	0	511	508	0	0	
14	0	0	0	0	511	508	0	0	
15	0	0	0	0	515	508	0	0	
0	0	0	0	0	509	509	0	0	
1	0	0	0	0	509	508	0	0	
2	0	0	0	0	511	508	0	0	
3	0	0	0	0	511	507	0	0	
4	0	0	0	0	511	508	0	0	
5	0	0	0	0	513	507	0	0	
6	0	0	0	0	514	507	0	0	
7	0	0	0	0	511	509	0	0	
8	0	0	0	0	509	507	0	0	
9	0	0	0	0	510	506	0	0	
10	0	0	0	0	510	507	0	0	
11	0	0	0	0	511	507	0	0	
12	0	0	0	0	511	508	0	0	
13	0	0	0	0	510	508	0	0	
14	0	0	0	0	510	510	0	0	
15	0	0	0	0	511	509	0	0	
0	0	0	0	0	510	509	0	0	
1	0	0	0	0	510	508	0	0	
2	0	0	0	0	513	508	0	0	
3	0	0	0	0	513	508	0	0	
4	0	0	0	0	510	508	0	0	
5	0	0	0	0	511	509	0	0	
6	0	0	0	0	513	507	0	0	
7	0	0	0	0	511	506	0	0	
8	0	0	0	0	510	507	0	0	
9	0	0	0	0	508	508	0	0	
10	0	0	0	0	511	507	0	0	
11	0	0	0	0	511	508	0	0	
12	0	0	0	0	514	508	0	0	
13	0	0	0	0	512	507	0	0	
14	0	0	0	0	511	510	0	0	
15	0	0	0	0	512	507	0	0	
0	0	0	0	0	512	505	0	0	
1	0	0	0	0	510	505	0	0	
2	0	0	0	0	512	510	0	0	
3	0	0	0	0	511	508	0	0	
4	0	0	0	0	512	510	0	0	
5	0	0	0	0	512	508	0	0	
6	0	0	0	0	511	508	0	0	
7	0	0	0	0	512	510	0	0	
8	0	0	0	0	510	508	0	0	
9	0	0	0	0	510	510	0	0	
10	0	0	0	0	509	508	0	0	
11	0	0	0	0	513	508	0	0	
12	0	0	0	0	512	506	0	0	
13	0	0	0	0	511	507	0	0	
14	0	0	0	0	511	508	0	0	
15	0	0	0	0	508	506	0	0	
0	0	0	0	0	512	506	0	0	
1	0	0	0	0	511	507	0	0	
2	0	0	0	0	510	507	0	0	
3	0	0	0	0	512	506	0	0	
4	0	0	0	0	510	506	0	0	
5	0	0	0	0	511	508	0	0	
6	0	0	0	0	514	510	0	0	
7	0	0	0	0	511	509	0	0	
8	0	0	0	0	511	508	0	0	
9	0	0	0	0	509	509	0	0	
10	0	0	0	0	510	507	0	0	
11	0	0	0	0	507	509	0	0	
12	0	0	0	0	508	508	0	0	
13	0	0	0	0	506	509	0	0	
14	0	0	0	0	508	508	0	0	
15	0	0	0	0	508	508	0	0	
0	0	0	0	0	513	508	0	0	
1	0	0	0	0	511	508	0	0	
2	0	0	0	0	512	508	0	0	
3	0	0	0	0	515	511	0	0	
4	0	0	0	0	524	507	0	0	
5	0	0	0	0	521	505	0	0	
6	0	0	0	0	513	507	0	0	
7	0	0	0	0	512	506	0	0	
8	0	0	0	0	510	508	0	0	
9	0	0	0	0	509	507	0	0	
10	0	0	0	0	508	510	0	0	
11	0	0	0	0	508	509	0	0	
12	0	0	0	0	505	510	0	0	
13	0	0	0	0	509	508	0	0	
14	0	0	0	0	511	507	0	0	
15	0	0	0	0	511	508	0	0	
0	0	0	0	0	510	507	0	0	
1	0	0	0	0	511	510	0	0	
2	0	0	0	0	511	510	0	0	
3	0	0	0	0	510	508	0	0	
4	0	0	0	0	507	506	0	0	
5	0	0	0	0	513	507	0	0	
6	0	0	0	0	511	507	0	0	
7	0	0	0	0	513	508	0	0	
8	0	0	0	0	512	508	0	0	
9	0	0	0	0	511	508	0	0	
10	0	0	0	0	510	507	0	0	
11	0	0	0	0	513	505	0	0	
12	0	0	0	0	510	508	0	0	
13	0	0	0	0	510	509	0	0	
14	0	0	0	0	512	508	0	0	
15	0	0	0	0	511	508	0	0	
0	0	0	0	0	511	509	0	0	
1	0	0	0	0	509	510	0	0	
2	0	0	0	0	511	509	0	0	
3	0	0	0	0	510	511	0	0	
4	0	0	0	0	509	507	0	0	
5	0	0	0	0	510	509	0	0	
6	0	0	0	0	512	506	0	0	
7	0	0	0	0	511	508	0	0	
8	0	0	0	0	512	507	0	0	
9	0	0	0	0	511	508	0	0	
10	0	0	0	0	512	505	0	0	
11	0	0	0	0	511	506	0	0	
12	0	0	0	0	511	508	0	0	
13	0	0	0	0	511	507	0	0	
14	0	0	0	0	510	507	0	0	
15	0	0	0	0	509	508	0	0	
0	0	0	0	0	512	510	0	0	
1	0	0	0	0	510	507	0	0	
2	0	0	0	0	511	508	0	0	
3	0	0	0	0	509	509	0	0	
4	0	0	0	0	514	509	0	0	
5	0	0	0	0	516	509	0	0	
6	0	0	0	0	512	508	0	0	
7	0	0	0	0	506	508	0	0	
8	0	0	0	0	508	507	0	0	
9	0	0	0	0	506	508	0	0	
10	0	0	0	0	510	508	0	0	
11	0	0	0	0	515	510	0	0	
12	0	0	0	0	514	507	0	0	
13	0	0	0	0	515	506	0	0	
14	0	0	0	0	517	507	0	0	
15	0	0	0	0	513	508	0	0	
0	0	0	0	0	511	506	0	0	
1	0	0	0	0	512	508	0	0	
2	0	0	0	0	508	508	0	0	
3	0	0	0	0	507	505	0	0	
4	0	0	0	0	509	508	0	0	
5	0	0	0	0	508	510	0	0	
6	0	0	0	0	511	510	0	0	
7	0	0	0	0	509	509	0	0	
8	0	0	0	0	509	511	0	0	
9	0	0	0	0	510	507	0	0	
10	0	0	0	0	511	506	0	0	
11	0	0	0	0	512	509	0	0	
12	0	0	0	0	515	508	0	0	
13	0	0	0	0	510	508	0	0	
14	0	0	0	0	510	507	0	0	
15	0	0	0	0	509	507	0	0	
0	0	0	0	0	513	508	0	0	
1	0	0	0	0	513	507	0	0	
2	0	0	0	0	512	506	0	0	
3	0	0	0	0	513	508	0	0	
4	0	0	0	0	512	508	0	0	
5	0	0	0	0	509	507	0	0	
6	0	0	0	0	510	507	0	0	
7	0	0	0	0	506	509	0	0	
8	0	0	0	0	508	509	0	0	
9	0	0	0	0	509	509	0	0	
10	0	0	0	0	514	508	0	0	
11	0	0	0	0	511	511	0	0	
12	0	0	0	0	509	508	0	0	
13	0	0	0	0	513	508	0	0	
14	0	0	0	0	512	507	0	0	
15	0	0	0	0	510	509	0	0	
0	0	0	0	0	510	508	0	0	
1	0	0	0	0	511	507	0	0	
2	0	0	0	0	509	507	0	0	
3	0	0	0	0	513	509	0	0	
4	0	0	0	0	513	508	0	0	
5	0	0	0	0	511	507	0	0	
6	0	0	0	0	509	508	0	0	
7	0	0	0	0	510	507	0	0	
8	0	0	0	0	513	506	0	0	
9	0	0	0	0	511	509	0	0	
10	0	0	0	0	510	505	0	0	
11	0	0	0	0	508	506	0	0	
12	0	0	0	0	510	508	0	0	
13	0	0	0	0	511	509	0	0	
14	0	0	0	0	513	508	0	0	
15	0	0	0	0	513	510	0	0	
0	0	0	0	0	512	511	0	0	
1	0	0	0	0	513	510	0	0	
2	0	0	0	0	511	509	0	0	
3	0	0	0	0	512	508	0	0	
4	0	0	0	0	510	508	0	0	
5	0	0	0	0	510	509	0	0	
6	0	0	0	0	510	508	0	0	
7	0	0	0	0	510	506	0	0	
8	0	0	0	0	510	506	0	0	
9	0	0	0	0	511	507	0	0	
10	0	0	0	0	510	506	0	0	
11	0	0	0	0	510	508	0	0	
12	0	0	0	0	510	508	0	0	
13	0	0	0	0	512	506	0	0	
14	0	0	0	0	512	508	0	0	
15	0	0	0	0	511	505	0	0	
0	0	0	0	0	507	507	0	0	
1	0	0	0	0	510	507	0	0	
2	0	0	0	0	507	509	0	0	
3	0	0	0	0	506	510	0	0	
4	0	0	0	0	513	512	0	0	
5	0	0	0	0	514	511	0	0	
6	0	0	0	0	514	508	0	0	
7	0	0	0	0	516	508	0	0	
8	0	0	0	0	513	508	0	0	
9	0	0	0	0	511	508	0	0	
10	0	0	0	0	515	508	0	0	
11	0	0	0	0	514	506	0	0	
12	0	0	0	0	512	505	0	0	
13	0	0	0	0	512	507	0	0	
14	0	0	0	0	512	507	0	0	
15	0	0	0	0	510	506	0	0	
0	0	0	0	0	511	507	0	0	
1	0	0	0	0	511	508	0	0	
2	0	0	0	0	507	508	0	0	
3	0	0	0	0	508	509	0	0	
4	0	0	0	0	507	509	0	0	
5	0	0	0	0	510	509	0	0	
6	0	0	0	0	509	510	0	0	
7	0	0	0	0	510	508	0	0	
8	0	0	0	0	515	508	0	0	
9	0	0	0	0	513	507	0	0	
10	0	0	0	0	515	509	0	0	
11	0	0	0	0	513	508	0	0	
12	0	0	0	0	511	509	0	0	
13	0	0	0	0	510	510	0	0	
14	0	0	0	0	510	510	0	0	
15	0	0	0	0	511	508	0	0	
0	0	0	0	0	510	507	0	0	
1	0	0	0	0	511	508	0	0	
2	0	0	0	0	509	506	0	0	
3	0	0	0	0	512	507	0	0	
4	0	0	0	0	511	506	0	0	
5	0	0	0	0	511	508	0	0	
6	0	0	0	0	507	508	0	0	
7	0	0	0	0	512	506	0	0	
8	0	0	0	0	511	506	0	0	
9	0	0	0	0	511	508	0	0	
10	0	0	0	0	510	507	0	0	
11	0	0	0	0	511	509	0	0	
12	0	0	0	0	511	509	0	0	
13	0	0	0	0	511	510	0	0	
14	0	0	0	0	512	508	0	0	
15	0	0	0	0	510	508	0	0	
0	0	0	0	0	508	509	0	0	
1	0	0	0	0	509	509	0	0	
2	0	0	0	0	510	509	0	0	
3	0	0	0	0	516	508	0	0	
4	0	0	0	0	514	504	0	0	
5	0	0	0	0	512	507	0	0	
6	0	0	0	0	511	508	0	0	
7	0	0	0	0	510	506	0	0	
8	0	0	0	0	511	508	0	0	
9	0	0	0	0	511	506	0	0	
10	0	0	0	0	507	507	0	0	
11	0	0	0	0	508	508	0	0	
12	0	0	0	0	508	507	0	0	
13	0	0	0	0	512	508	0	0	
14	0	0	0	0	512	509	0	0	
15	0	0	0	0	512	508	0	0	
0	0	0	0	0	512	510	0	0	
1	0	0	0	0	514	509	0	0	
2	0	0	0	0	513	507	0	0	
3	0	0	0	0	510	508	0	0	
4	0	0	0	0	514	508	0	0	
5	0	0	0	0	510	510	0	0	
6	0	0	0	0	512	509	0	0	
7	0	0	0	0	510	505	0	0	
8	0	0	0	0	509	505	0	0	
9	0	0	0	0	511	508	0	0	
10	0	0	0	0	508	507	0	0	
11	0	0	0	0	511	508	0	0	
12	0	0	0	0	512	506	0	0	
13	0	0	0	0	511	508	0	0	
14	0	0	0	0	512	508	0	0	
15	0	0	0	0	510	507	0	0	
0	0	0	0	0	511	507	0	0	
1	0	0	0	0	508	509	0	0	
2	0	0	0	0	509	508	0	0	
3	0	0	0	0	510	508	0	0	
4	0	0	0	0	511	509	0	0	
5	0	0	0	0	511	510	0	0	
6	0	0	0	0	511	508	0	0	
7	0	0	0	0	513	508	0	0	
8	0	0	0	0	511	508	0	0	
9	0	0	0	0	509	509	0	0	
10	0	0	0	0	511	508	0	0	
11	0	0	0	0	511	507	0	0	
12	0	0	0	0	512	505	0	0	
13	0	0	0	0	511	507	0	0	
14	0	0	0	0	513	508	0	0	
15	0	0	0	0	511	509	0	0	
0	0	0	0	0	509	510	0	0	
1	0	0	0	0	509	508	0	0	
2	0	0	0	0	513	508	0	0	
3	0	0	0	0	510	507	0	0	
4	0	0	0	0	509	504	0	0	
5	0	0	0	0	508	510	0	0	
6	0	0	0	0	510	507	0	0	
7	0	0	0	0	511	508	0	0	
8	0	0	0	0	507	508	0	0	
9	0	0	0	0	511	509	0	0	
10	0	0	0	0	515	510	0	0	
11	0	0	0	0	515	508	0	0	
12	0	0	0	0	516	509	0	0	
13	0	0	0	0	513	510	0	0	
14	0	0	0	0	511	508	0	0	
15	0	0	0	0	511	509	0	0	
0	0	0	0	0	511	509	0	0	
1	0	0	0	0	508	507	0	0	
2	0	0	0	0	510	507	0	0	
3	0	0	0	0	509	506	0	0	
4	0	0	0	0	511	508	0	0	
5	0	0	0	0	508	507	0	0	
6	0	0	0	0	508	507	0	0	
7	0	0	0	0	509	506	0	0	
8	0	0	0	0	511	506	0	0	
9	0	0	0	0	510	508	0	0	
10	0	0	0	0	513	508	0	0	
11	0	0	0	0	515	510	0	0	
12	0	0	0	0	513	508	0	0	
13	0	0	0	0	509	510	0	0	
14	0	0	0	0	509	508	0	0	
15	0	0	0	0	511	508	0	0	
0	0	0	0	0	511	507	0	0	
1	0	0	0	0	511	509	0	0	
2	0	0	0	0	510	508	0	0	
3	0	0	0	0	510	510	0	0	
4	0	0	0	0	511	508	0	0	
5	0	0	0	0	511	505	0	0	
6	0	0	0	0	511	508	0	0	
7	0	0	0	0	512	506	0	0	
8	0	0	0	0	511	508	0	0	
9	0	0	0	0	510	508	0	0	
10	0	0	0	0	508	506	0	0	
11	0	0	0	0	512	506	0	0	
12	0	0	0	0	515	509	0	0	
13	0	0	0	0	518	509	0	0	
14	0	0	0	0	515	507	0	0	
15	0	0	0	0	515	509	0	0	
0	0	0	0	0	511	508	0	0	
1	0	0	0	0	510	508	0	0	
2	0	0	0	0	508	510	0	0	
3	0	0	0	0	509	510	0	0	
4	0	0	0	0	510	508	0	0	
5	0	0	0	0	511	508	0	0	
6	0	0	0	0	510	508	0	0	
7	0	0	0	0	509	508	0	0	
8	0	0	0	0	511	507	0	0	
9	0	0	0	0	511	507	0	0	
10	0	0	0	0	511	508	0	0	
11	0	0	0	0	512	507	0	0	
12	0	0	0	0	511	507	0	0	
13	0	0	0	0	509	508	0	0	
14	0	0	0	0	510	507	0	0	
15	0	0	0	0	510	507	0	0	
0	0	0	0	0	511	505	0	0	
1	0	0	0	0	508	509	0	0	
2	0	0	0	0	509	511	0	0	
3	0	0	0	0	510	510	0	0	
4	0	0	0	0	510	509	0	0	
5	0	0	0	0	512	509	0	0	
6	0	0	0	0	511	510	0	0	
7	0	0	0	0	513	508	0	0	
8	0	0	0	0	511	508	0	0	
9	0	0	0	0	510	508	0	0	
10	0	0	0	0	511	508	0	0	
11	0	0	0	0	513	507	0	0	
12	0	0	0	0	511	505	0	0	
13	0	0	0	0	510	509	0	0	
14	0	0	0	0	513	507	0	0	
15	0	0	0	0	510	508	0	0	
0	0	0	0	0	512	505	0	0	
1	0	0	0	0	511	507	0	0	
2	0	0	0	0	510	507	0	0	
3	0	0	0	0	512	509	0	0	
4	0	0	0	0	510	510	0	0	
5	0	0	0	0	510	507	0	0	
6	0	0	0	0	513	509	0	0	
7	0	0	0	0	512	508	0	0	
8	0	0	0	0	510	508	0	0	
9	0	0	0	0	512	508	0	0	
10	0	0	0	0	514	508	0	0	
11	0	0	0	0	512	509	0	0	
12	0	0	0	0	511	506	0	0	
13	0	0	0	0	512	508	0	0	
14	0	0	0	0	511	507	0	0	
15	0	0	0	0	512	506	0	0	
0	0	0	0	0	510	508	0	0	
1	0	0	0	0	511	507	0	0	
2	0	0	0	0	511	508	0	0	
3	0	0	0	0	511	509	0	0	
4	0	0	0	0	511	507	0	0	
5	0	0	0	0	510	506	0	0	
6	0	0	0	0	510	507	0	0	
7	0	0	0	0	512	507	0	0	
8	0	0	0	0	511	508	0	0	
9	0	0	0	0	511	509	0	0	
10	0	0	0	0	509	508	0	0	
11	0	0	0	0	512	507	0	0	
12	0	0	0	0	513	508	0	0	
13	0	0	0	0	512	510	0	0	
14	0	0	0	0	510	510	0	0	
15	0	0	0	0	509	509	0	0	
0	0	0	0	0	508	508	0	0	
1	0	0	0	0	511	511	0	0	
2	0	0	0	0	513	508	0	0	
3	0	0	0	0	515	507	0	0	
4	0	0	0	0	514	507	0	0	
5	0	0	0	0	511	510	0	0	
6	0	0	0	0	513	505	0	0	
7	0	0	0	0	513	507	0	0	
8	0	0	0	0	512	508	0	0	
9	0	0	0	0	509	507	0	0	
10	0	0	0	0	508	506	0	0	
11	0	0	0	0	511	507	0	0	
12	0	0	0	0	511	508	0	0	
13	0	0	0	0	508	509	0	0	
14	0	0	0	0	509	511	0	0	
15	0	0	0	0	510	509	0	0	
0	0	0	0	0	508	510	0	0	
1	0	0	0	0	508	508	0	0	
2	0	0	0	0	513	507	0	0	
3	0	0	0	0	515	510	0	0	
4	0	0	0	0	512	510	0	0	
5	0	0	0	0	510	508	0	0	
6	0	0	0	0	511	508	0	0	
7	0	0	0	0	512	507	0	0	
8	0	0	0	0	510	506	0	0	
9	0	0	0	0	511	508	0	0	
10	0	0	0	0	511	507	0	0	
11	0	0	0	0	511	507	0	0	
12	0	0	0	0	508	507	0	0	
13	0	0	0	0	511	508	0	0	
14	0	0	0	0	511	509	0	0	
15	0	0	0	0	511	508	0	0	
0	0	0	0	0	512	507	0	0	
1	0	0	0	0	511	508	0	0	
2	0	0	0	0	511	508	0	0	
3	0	0	0	0	509	509	0	0	
4	0	0	0	0	510	510	0	0	
5	0	0	0	0	511	509	0	0	
6	0	0	0	0	512	507	0	0	
7	0	0	0	0	512	508	0	0	
8	0	0	0	0	511	509	0	0	
9	0	0	0	0	511	508	0	0	
10	0	0	0	0	512	510	0	0	
11	0	0	0	0	512	508	0	0	
12	0	0	0	0	510	507	0	0	
13	0	0	0	0	508	507	0	0	
14	0	0	0	0	510	506	0	0	
15	0	0	0	0	512	506	0	0	
0	0	0	0	0	509	508	0	0	
1	0	0	0	0	513	506	0	0	
2	0	0	0	0	513	507	0	0	
3	0	0	0	0	511	507	0	0	
4	0	0	0	0	510	507	0	0	
5	0	0	0	0	511	510	0	0	
6	0	0	0	0	508	508	0	0	
7	0	0	0	0	510	509	0	0	
8	0	0	0	0	511	510	0	0	
9	0	0	0	0	511	508	0	0	
10	0	0	0	0	513	509	0	0	
11	0	0	0	0	515	508	0	0	
12	0	0	0	0	511	508	0	0	
13	0	0	0	0	509	510	0	0	
14	0	0	0	0	509	509	0	0	
15	0	0	0	0	513	507	0	0	
0	0	0	0	0	511	509	0	0	
1	0	0	0	0	511	507	0	0	
2	0	0	0	0	510	508	0	0	
3	0	0	0	0	512	507	0	0	
4	0	0	0	0	514	505	0	0	
5	0	0	0	0	511	508	0	0	
6	0	0	0	0	512	508	0	0	
7	0	0	0	0	513	506	0	0	
8	0	0	0	0	510	508	0	0	
9	0	0	0	0	507	509	0	0	
10	0	0	0	0	508	509	0	0	
11	0	0	0	0	511	509	0	0	
12	0	0	0	0	511	508	0	0	
13	0	0	0	0	509	508	0	0	
14	0	0	0	0	511	510	0	0	
15	0	0	0	0	511	509	0	0	
0	0	0	0	0	510	506	0	0	
1	0	0	0	0	510	509	0	0	
2	0	0	0	0	509	508	0	0	
3	0	0	0	0	510	507	0	0	
4	0	0	0	0	512	507	0	0	
5	0	0	0	0	511	508	0	0	
6	0	0	0	0	511	507	0	0	
7	0	0	0	0	512	508	0	0	
8	0	0	0	0	510	505	0	0	
9	0	0	0	0	509	507	0	0	
10	0	0	0	0	508	507	0	0	
11	0	0	0	0	509	508	0	0	
12	0	0	0	0	511	509	0	0	
13	0	0	0	0	509	509	0	0	
14	0	0	0	0	511	508	0	0	
15	0	0	0	0	513	508	0	0	
0	0	0	0	0	514	508	0	0	
1	0	0	0	0	520	509	0	0	
2	0	0	0	0	515	510	0	0	
3	0	0	0	0	513	510	0	0	
4	0	0	0	0	511	506	0	0	
5	0	0	0	0	512	508	0	0	
6	0	0	0	0	511	508	0	0	
7	0	0	0	0	510	507	0	0	
8	0	0	0	0	509	507	0	0	
9	0	0	0	0	508	508	0	0	
10	0	0	0	0	510	509	0	0	
11	0	0	0	0	510	508	0	0	
12	0	0	0	0	509	507	0	0	
13	0	0	0	0	510	507	0	0	
14	0	0	0	0	511	506	0	0	
15	0	0	0	0	512	507	0	0	
0	0	0	0	0	510	507	0	0	
1	0	0	0	0	508	508	0	0	
2	0	0	0	0	511	510	0	0	
3	0	0	0	0	511	509	0	0	
4	0	0	0	0	511	511	0	0	
5	0	0	0	0	512	508	0	0	
6	0	0	0	0	511	507	0	0	
7	0	0	0	0	510	508	0	0	
8	0	0	0	0	513	509	0	0	
9	0	0	0	0	512	510	0	0	
10	0	0	0	0	509	509	0	0	
11	0	0	0	0	511	507	0	0	
12	0	0	0	0	511	507	0	0	
13	0	0	0	0	515	508	0	0	
14	0	0	0	0	515	507	0	0	
15	0	0	0	0	510	507	0	0	
0	0	0	0	0	511	508	0	0	
1	0	0	0	0	507	507	0	0	
2	0	0	0	0	508	508	0	0	
3	0	0	0	0	515	506	0	0	
4	0	0	0	0	512	505	0	0	
5	0	0	0	0	511	508	0	0	
6	0	0	0	0	510	510	0	0	
7	0	0	0	0	509	508	0	0	
8	0	0	0	0	510	509	0	0	
9	0	0	0	0	512	507	0	0	
10	0	0	0	0	510	509	0	0	
11	0	0	0	0	508	510	0	0	
12	0	0	0	0	509	507	0	0	
13	0	0	0	0	509	509	0	0	
14	0	0	0	0	511	507	0	0	
15	0	0	0	0	514	507	0	0	
0	0	0	0	0	512	507	0	0	
1	0	0	0	0	512	507	0	0	
2	0	0	0	0	511	508	0	0	
3	0	0	0	0	511	509	0	0	
4	0	0	0	0	509	507	0	0	
5	0	0	0	0	510	509	0	0	
6	0	0	0	0	512	509	0	0	
7	0	0	0	0	512	506	0	0	
8	0	0	0	0	512	507	0	0	
9	0	0	0	0	508	507	0	0	
10	0	0	0	0	510	509	0	0	
11	0	0	0	0	510	508	0	0	
12	0	0	0	0	510	508	0	0	
13	0	0	0	0	511	508	0	0	
14	0	0	0	0	510	510	0	0	
15	0	0	0	0	511	509	0	0	
0	0	0	0	0	511	510	0	0	
1	0	0	0	0	511	510	0	0	
2	0	0	0	0	511	510	0	0	
3	0	0	0	0	513	510	0	0	
4	0	0	0	0	515	506	0	0	
5	0	0	0	0	512	506	0	0	
6	0	0	0	0	512	505	0	0	
7	0	0	0	0	511	507	0	0	
8	0	0	0	0	511	506	0	0	
9	0	0	0	0	511	507	0	0	
10	0	0	0	0	510	508	0	0	
11	0	0	0	0	511	508	0	0	
12	0	0	0	0	510	509	0	0	
13	0	0	0	0	508	509	0	0	
14	0	0	0	0	508	509	0	0	
15	0	0	0	0	508	507	0	0	
0	0	0	0	0	515	509	0	0	
1	0	0	0	0	513	510	0	0	
2	0	0	0	0	513	508	0	0	
3	0	0	0	0	511	508	0	0	
4	0	0	0	0	510	509	0	0	
5	0	0	0	0	511	509	0	0	
6	0	0	0	0	512	508	0	0	
7	0	0	0	0	512	510	0	0	
8	0	0	0	0	512	507	0	0	
9	0	0	0	0	510	506	0	0	
10	0	0	0	0	510	506	0	0	
11	0	0	0	0	507	509	0	0	
12	0	0	0	0	510	508	0	0	
13	0	0	0	0	509	507	0	0	
14	0	0	0	0	510	508	0	0	
15	0	0	0	0	514	507	0	0	
0	0	0	0	0	512	506	0	0	
1	0	0	0	0	512	508	0	0	
2	0	0	0	0	512	509	0	0	
3	0	0	0	0	511	509	0	0	
4	0	0	0	0	510	510	0	0	
5	0	0	0	0	510	507	0	0	
6	0	0	0	0	511	508	0	0	
7	0	0	0	0	509	510	0	0	
8	0	0	0	0	509	509	0	0	
9	0	0	0	0	508	509	0	0	
10	0	0	0	0	510	507	0	0	
11	0	0	0	0	510	507	0	0	
12	0	0	0	0	510	509	0	0	
13	0	0	0	0	512	509	0	0	
14	0	0	0	0	512	505	0	0	
15	0	0	0	0	511	506	0	0	
0	0	0	0	0	511	507	0	0	
1	0	0	0	0	512	506	0	0	
2	0	0	0	0	513	506	0	0	
3	0	0	0	0	509	508	0	0	
4	0	0	0	0	509	508	0	0	
5	0	0	0	0	508	510	0	0	
6	0	0	0	0	510	511	0	0	
7	0	0	0	0	512	510	0	0	
8	0	0	0	0	512	510	0	0	
9	0	0	0	0	514	510	0	0	
10	0	0	0	0	514	508	0	0	
11	0	0	0	0	515	508	0	0	
12	0	0	0	0	510	508	0	0	
13	0	0	0	0	507	511	0	0	
14	0	0	0	0	510	508	0	0	
15	0	0	0	0	511	507	0	0	
0	0	0	0	0	510	507	0	0	
1	0	0	0	0	514	506	0	0	
2	0	0	0	0	511	505	0	0	
3	0	0	0	0	508	506	0	0	
4	0	0	0	0	510	508	0	0	
5	0	0	0	0	513	508	0	0	
6	0	0	0	0	514	508	0	0	
7	0	0	0	0	511	506	0	0	
8	0	0	0	0	511	506	0	0	
9	0	0	0	0	512	510	0	0	
10	0	0	0	0	511	509	0	0	
11	0	0	0	0	510	508	0	0	
12	0	0	0	0	511	510	0	0	
13	0	0	0	0	513	509	0	0	
14	0	0	0	0	511	509	0	0	
15	0	0	0	0	511	510	0	0	
0	0	0	0	0	511	508	0	0	
1	0	0	0	0	509	508	0	0	
2	0	0	0	0	509	509	0	0	
3	0	0	0	0	510	507	0	0	
4	0	0	0	0	510	507	0	0	
5	0	0	0	0	513	504	0	0	
6	0	0	0	0	511	508	0	0	
7	0	0	0	0	510	506	0	0	
8	0	0	0	0	508	506	0	0	
9	0	0	0	0	512	508	0	0	
10	0	0	0	0	512	508	0	0	
11	0	0	0	0	509	508	0	0	
12	0	0	0	0	510	510	0	0	
13	0	0	0	0	510	509	0	0	
14	0	0	0	0	509	508	0	0	
15	0	0	0	0	507	506	0	0	
0	0	0	0	0	509	509	0	0	
1	0	0	0	0	513	508	0	0	
2	0	0	0	0	512	509	0	0	
3	0	0	0	0	509	507	0	0	
4	0	0	0	0	511	511	0	0	
5	0	0	0	0	515	508	0	0	
6	0	0	0	0	514	506	0	0	
7	0	0	0	0	511	507	0	0	
8	0	0	0	0	509	505	0	0	
9	0	0	0	0	512	508	0	0	
10	0	0	0	0	511	507	0	0	
11	0	0	0	0	514	509	0	0	
12	0	0	0	0	512	506	0	0	
13	0	0	0	0	512	507	0	0	
14	0	0	0	0	516	507	0	0	
15	0	0	0	0	516	507	0	0	
0	0	0	0	0	514	507	0	0	
1	0	0	0	0	510	509	0	0	
2	0	0	0	0	510	508	0	0	
3	0	0	0	0	508	508	0	0	
4	0	0	0	0	507	510	0	0	
5	0	0	0	0	511	510	0	0	
6	0	0	0	0	511	508	0	0	
7	0	0	0	0	512	508	0	0	
8	0	0	0	0	512	508	0	0	
9	0	0	0	0	510	509	0	0	
10	0	0	0	0	512	508	0	0	
11	0	0	0	0	513	507	0	0	
12	0	0	0	0	510	507	0	0	
13	0	0	0	0	509	509	0	0	
14	0	0	0	0	511	508	0	0	
15	0	0	0	0	513	507	0	0	
0	0	0	0	0	512	507	0	0	
1	0	0	0	0	508	509	0	0	
2	0	0	0	0	511	507	0	0	
3	0	0	0	0	512	507	0	0	
4	0	0	0	0	512	507	0	0	
5	0	0	0	0	511	508	0	0	
6	0	0	0	0	508	508	0	0	
7	0	0	0	0	510	510	0	0	
8	0	0	0	0	512	509	0	0	
9	0	0	0	0	514	509	0	0	
10	0	0	0	0	510	510	0	0	
11	0	0	0	0	509	509	0	0	
12	0	0	0	0	511	508	0	0	
13	0	0	0	0	508	509	0	0	
14	0	0	0	0	509	509	0	0	
15	0	0	0	0	511	507	0	0	
0	0	0	0	0	513	506	0	0	
1	0	0	0	0	513	508	0	0	
2	0	0	0	0	512	508	0	0	
3	0	0	0	0	510	510	0	0	
4	0	0	0	0	508	505	0	0	
5	0	0	0	0	509	507	0	0	
6	0	0	0	0	512	506	0	0	
7	0	0	0	0	512	506	0	0	
8	0	0	0	0	511	507	0	0	
9	0	0	0	0	510	509	0	0	
10	0	0	0	0	512	508	0	0	
11	0	0	0	0	511	509	0	0	
12	0	0	0	0	511	508	0	0	
13	0	0	0	0	508	508	0	0	
14	0	0	0	0	513	508	0	0	
15	0	0	0	0	512	510	0	0	
0	0	0	0	0	512	508	0	0	
1	0	0	0	0	513	510	0	0	
2	0	0	0	0	511	509	0	0	
3	0	0	0	0	510	507	0	0	
4	0	0	0	0	511	508	0	0	
5	0	0	0	0	513	506	0	0	
6	0	0	0	0	512	507	0	0	
7	0	0	0	0	510	507	0	0	
8	0	0	0	0	512	507	0	0	
9	0	0	0	0	512	507	0	0	
10	0	0	0	0	512	506	0	0	
11	0	0	0	0	511	508	0	0	
12	0	0	0	0	511	508	0	0	
13	0	0	0	0	508	509	0	0	
14	0	0	0	0	511	509	0	0	
15	0	0	0	0	509	509	0	0	
0	0	0	0	0	510	509	0	0	
1	0	0	0	0	513	511	0	0	
2	0	0	0	0	511	508	0	0	
3	0	0	0	0	509	510	0	0	
4	0	0	0	0	512	508	0	0	
5	0	0	0	0	512	510	0	0	
6	0	0	0	0	508	507	0	0	
7	0	0	0	0	508	508	0	0	
8	0	0	0	0	514	507	0	0	
9	0	0	0	0	515	508	0	0	
10	0	0	0	0	513	507	0	0	
11	0	0	0	0	512	507	0	0	
12	0	0	0	0	511	506	0	0	
13	0	0	0	0	511	507	0	0	
14	0	0	0	0	512	508	0	0	
15	0	0	0	0	511	508	0	0	
0	0	0	0	0	513	508	0	0	
1	0	0	0	0	509	508	0	0	
2	0	0	0	0	510	511	0	0	
3	0	0	0	0	510	510	0	0	
4	0	0	0	0	508	507	0	0	
5	0	0	0	0	510	507	0	0	
6	0	0	0	0	508	510	0	0	
7	0	0	0	0	509	510	0	0	
8	0	0	0	0	512	509	0	0	
9	0	0	0	0	515	508	0	0	
10	0	0	0	0	513	508	0	0	
11	0	0	0	0	511	509	0	0	
12	0	0	0	0	511	508	0	0	
13	0	0	0	0	510	508	0	0	
14	0	0	0	0	510	507	0	0	
15	0	0	0	0	512	509	0	0	
0	0	0	0	0	511	507	0	0	
1	0	0	0	0	511	508	0	0	
2	0	0	0	0	512	507	0	0	
3	0	0	0	0	509	508	0	0	
4	0	0	0	0	511	508	0	0	
5	0	0	0	0	507	508	0	0	
6	0	0	0	0	505	508	0	0	
7	0	0	0	0	508	509	0	0	
8	0	0	0	0	511	508	0	0	
9	0	0	0	0	511	511	0	0	
10	0	0	0	0	509	507	0	0	
11	0	0	0	0	515	510	0	0	
12	0	0	0	0	517	508	0	0	
13	0	0	0	0	516	509	0	0	
14	0	0	0	0	515	508	0	0	
15	0	0	0	0	516	507	0	0	
0	0	0	0	0	512	507	0	0	
1	0	0	0	0	509	506	0	0	
2	0	0	0	0	510	508	0	0	
3	0	0	0	0	510	510	0	0	
4	0	0	0	0	511	506	0	0	
5	0	0	0	0	511	507	0	0	
6	0	0	0	0	510	508	0	0	
7	0	0	0	0	508	506	0	0	
8	0	0	0	0	511	507	0	0	
9	0	0	0	0	509	508	0	0	
10	0	0	0	0	506	511	0	0	
11	0	0	0	0	509	509	0	0	
12	0	0	0	0	513	510	0	0	
13	0	0	0	0	515	511	0	0	
14	0	0	0	0	510	508	0	0	
15	0	0	0	0	512	508	0	0	
0	0	0	0	0	513	506	0	0	
1	0	0	0	0	511	511	0	0	
2	0	0	0	0	511	508	0	0	
3	0	0	0	0	511	507	0	0	
4	0	0	0	0	512	507	0	0	
5	0	0	0	0	511	508	0	0	
6	0	0	0	0	510	507	0	0	
7	0	0	0	0	507	506	0	0	
8	0	0	0	0	510	507	0	0	
9	0	0	0	0	512	510	0	0	
10	0	0	0	0	510	508	0	0	
11	0	0	0	0	510	508	0	0	
12	0	0	0	0	513	507	0	0	
13	0	0	0	0	508	508	0	0	
14	0	0	0	0	510	510	0	0	
15	0	0	0	0	510	508	0	0	
0	0	0	0	0	509	510	0	0	
1	0	0	0	0	509	509	0	0	
2	0	0	0	0	514	507	0	0	
3	0	0	0	0	513	510	0	0	
4	0	0	0	0	511	508	0	0	
5	0	0	0	0	508	508	0	0	
6	0	0	0	0	510	508	0	0	
7	0	0	0	0	511	507	0	0	
8	0	0	0	0	512	507	0	0	
9	0	0	0	0	512	507	0	0	
10	0	0	0	0	510	507	0	0	
11	0	0	0	0	512	508	0	0	
12	0	0	0	0	516	506	0	0	
13	0	0	0	0	514	508	0	0	
14	0	0	0	0	513	508	0	0	
15	0	0	0	0	512	507	0	0	
0	0	0	0	0	511	507	0	0	
1	0	0	0	0	509	506	0	0	
2	0	0	0	0	510	510	0	0	
3	0	0	0	0	510	509	0	0	
4	0	0	0	0	508	509	0	0	
5	0	0	0	0	509	510	0	0	
6	0	0	0	0	511	507	0	0	
7	0	0	0	0	510	509	0	0	
8	0	0	0	0	508	507	0	0	
9	0	0	0	0	512	509	0	0	
10	0	0	0	0	512	508	0	0	
11	0	0	0	0	509	508	0	0	
12	0	0	0	0	510	507	0	0	
13	0	0	0	0	511	509	0	0	
14	0	0	0	0	513	509	0	0	
15	0	0	0	0	513	505	0	0	
0	0	0	0	0	511	506	0	0	
1	0	0	0	0	510	507	0	0	
2	0	0	0	0	510	508	0	0	
3	0	0	0	0	513	508	0	0	
4	0	0	0	0	512	506	0	0	
5	0	0	0	0	511	508	0	0	
6	0	0	0	0	510	507	0	0	
7	0	0	0	0	506	508	0	0	
8	0	0	0	0	510	508	0	0	
9	0	0	0	0	513	511	0	0	
10	0	0	0	0	513	510	0	0	
11	0	0	0	0	511	509	0	0	
12	0	0	0	0	510	508	0	0	
13	0	0	0	0	511	508	0	0	
14	0	0	0	0	510	508	0	0	
15	0	0	0	0	513	508	0	0	
0	0	0	0	0	511	508	0	0	
1	0	0	0	0	511	507	0	0	
2	0	0	0	0	512	508	0	0	
3	0	0	0	0	511	507	0	0	
4	0	0	0	0	510	507	0	0	
5	0	0	0	0	512	508	0	0	
6	0	0	0	0	512	508	0	0	
7	0	0	0	0	508	507	0	0	
8	0	0	0	0	511	506	0	0	
9	0	0	0	0	509	508	0	0	
10	0	0	0	0	509	509	0	0	
11	0	0	0	0	510	508	0	0	
12	0	0	0	0	515	508	0	0	
13	0	0	0	0	513	508	0	0	
14	0	0	0	0	513	509	0	0	
15	0	0	0	0	511	508	0	0	
0	0	0	0	0	510	510	0	0	
1	0	0	0	0	510	510	0	0	
2	0	0	0	0	511	508	0	0	
3	0	0	0	0	512	507	0	0	
4	0	0	0	0	514	505	0	0	
5	0	0	0	0	515	508	0	0	
6	0	0	0	0	512	507	0	0	
7	0	0	0	0	512	507	0	0	
8	0	0	0	0	509	509	0	0	
9	0	0	0	0	510	505	0	0	
10	0	0	0	0	511	508	0	0	
11	0	0	0	0	512	508	0	0	
12	0	0	0	0	510	507	0	0	
13	0	0	0	0	511	508	0	0	
14	0	0	0	0	509	509	0	0	
15	0	0	0	0	510	508	0	0	
0	0	0	0	0	509	511	0	0	
1	0	0	0	0	510	508	0	0	
2	0	0	0	0	510	510	0	0	
3	0	0	0	0	510	507	0	0	
4	0	0	0	0	512	508	0	0	
5	0	0	0	0	507	509	0	0	
6	0	0	0	0	509	510	0	0	
7	0	0	0	0	512	508	0	0	
8	0	0	0	0	513	507	0	0	
9	0	0	0	0	511	508	0	0	
10	0	0	0	0	510	507	0	0	
11	0	0	0	0	510	508	0	0	
12	0	0	0	0	511	507	0	0	
13	0	0	0	0	511	506	0	0	
14	0	0	0	0	510	507	0	0	
15	0	0	0	0	511	508	0	0	
0	0	0	0	0	510	509	0	0	
1	0	0	0	0	511	510	0	0	
2	0	0	0	0	508	508	0	0	
3	0	0	0	0	509	510	0	0	
4	0	0	0	0	509	508	0	0	
5	0	0	0	0	513	507	0	0	
6	0	0	0	0	515	508	0	0	
7	0	0	0	0	514	509	0	0	
8	0	0	0	0	513	507	0	0	
9	0	0	0	0	511	510	0	0	
10	0	0	0	0	512	508	0	0	
11	0	0	0	0	512	508	0	0	
12	0	0	0	0	513	507	0	0	
13	0	0	0	0	515	505	0	0	
14	0	0	0	0	512	505	0	0	
15	0	0	0	0	514	507	0	0	
0	0	0	0	0	513	508	0	0	
1	0	0	0	0	510	508	0	0	
2	0	0	0	0	510	508	0	0	
3	0	0	0	0	511	507	0	0	
4	0	0	0	0	508	508	0	0	
5	0	0	0	0	508	511	0	0	
6	0	0	0	0	510	509	0	0	
7	0	0	0	0	510	508	0	0	
8	0	0	0	0	512	507	0	0	
9	0	0	0	0	513	512	0	0	
10	0	0	0	0	511	509	0	0	
11	0	0	0	0	513	510	0	0	
12	0	0	0	0	511	510	0	0	
13	0	0	0	0	512	508	0	0	
14	0	0	0	0	509	507	0	0	
15	0	0	0	0	508	507	0	0	
0	0	0	0	0	510	507	0	0	
1	0	0	0	0	509	508	0	0	
2	0	0	0	0	511	505	0	0	
3	0	0	0	0	511	506	0	0	
4	0	0	0	0	513	507	0	0	
5	0	0	0	0	511	507	0	0	
6	0	0	0	0	512	506	0	0	
7	0	0	0	0	511	507	0	0	
8	0	0	0	0	511	507	0	0	
9	0	0	0	0	508	508	0	0	
10	0	0	0	0	508	509	0	0	
11	0	0	0	0	510	511	0	0	
12	0	0	0	0	511	509	0	0	
13	0	0	0	0	511	512	0	0	
14	0	0	0	0	510	508	0	0	
15	0	0	0	0	508	507	0	0	
0	0	0	0	0	512	509	0	0	
1	0	0	0	0	512	507	0	0	
2	0	0	0	0	512	507	0	0	
3	0	0	0	0	513	508	0	0	
4	0	0	0	0	511	508	0	0	
5	0	0	0	0	509	507	0	0	
6	0	0	0	0	513	506	0	0	
7	0	0	0	0	510	506	0	0	
8	0	0	0	0	514	507	0	0	
9	0	0	0	0	511	509	0	0	
10	0	0	0	0	507	508	0	0	
11	0	0	0	0	512	505	0	0	
12	0	0	0	0	512	509	0	0	
13	0	0	0	0	509	508	0	0	
14	0	0	0	0	509	509	0	0	
15	0	0	0	0	512	510	0	0	
0	0	0	0	0	506	509	0	0	
1	0	0	0	0	511	508	0	0	
2	0	0	0	0	511	507	0	0	
3	0	0	0	0	509	510	0	0	
4	0	0	0	0	508	510	0	0	
5	0	0	0	0	512	510	0	0	
6	0	0	0	0	509	507	0	0	
7	0	0	0	0	508	509	0	0	
8	0	0	0	0	510	507	0	0	
9	0	0	0	0	515	506	0	0	
10	0	0	0	0	514	509	0	0	
11	0	0	0	0	511	508	0	0	
12	0	0	0	0	513	507	0	0	
13	0	0	0	0	515	507	0	0	
14	0	0	0	0	512	508	0	0	
15	0	0	0	0	513	507	0	0	
0	0	0	0	0	511	507	0	0	
1	0	0	0	0	509	507	0	0	
2	0	0	0	0	512	509	0	0	
3	0	0	0	0	510	510	0	0	
4	0	0	0	0	510	510	0	0	
5	0	0	0	0	512	510	0	0	
6	0	0	0	0	513	508	0	0	
7	0	0	0	0	512	507	0	0	
8	0	0	0	0	509	508	0	0	
9	0	0	0	0	511	508	0	0	
10	0	0	0	0	511	508	0	0	
11	0	0	0	0	511	506	0	0	
12	0	0	0	0	510	506	0	0	
13	0	0	0	0	510	509	0	0	
14	0	0	0	0	510	507	0	0	
15	0	0	0	0	511	507	0	0	
0	0	0	0	0	510	505	0	0	
1	0	0	0	0	510	508	0	0	
2	0	0	0	0	508	509	0	0	
3	0	0	0	0	511	507	0	0	
4	0	0	0	0	511	508	0	0	
5	0	0	0	0	516	511	0	0	
6	0	0	0	0	514	508	0	0	
7	0	0	0	0	513	507	0	0	
8	0	0	0	0	510	509	0	0	
9	0	0	0	0	509	508	0	0	
10	0	0	0	0	511	511	0	0	
11	0	0	0	0	508	508	0	0	
12	0	0	0	0	515	506	0	0	
13	0	0	0	0	512	508	0	0	
14	0	0	0	0	512	507	0	0	
15	0	0	0	0	509	508	0	0	
0	0	0	0	0	511	508	0	0	
1	0	0	0	0	511	507	0	0	
2	0	0	0	0	511	506	0	0	
3	0	0	0	0	508	508	0	0	
4	0	0	0	0	510	507	0	0	
5	0	0	0	0	509	507	0	0	
6	0	0	0	0	512	509	0	0	
7	0	0	0	0	511	508	0	0	
8	0	0	0	0	510	508	0	0	
9	0	0	0	0	510	510	0	0	
10	0	0	0	0	511	507	0	0	
11	0	0	0	0	509	508	0	0	
12	0	0	0	0	510	508	0	0	
13	0	0	0	0	509	509	0	0	
14	0	0	0	0	508	509	0	0	
15	0	0	0	0	509	508	0	0	
0	0	0	0	0	511	508	0	0	
1	0	0	0	0	510	509	0	0	
2	0	0	0	0	513	509	0	0	
3	0	0	0	0	516	508	0	0	
4	0	0	0	0	514	507	0	0	
5	0	0	0	0	515	508	0	0	
6	0	0	0	0	511	505	0	0	
7	0	0	0	0	508	507	0	0	
8	0	0	0	0	511	508	0	0	
9	0	0	0	0	513	506	0	0	
10	0	0	0	0	513	507	0	0	
11	0	0	0	0	511	510	0	0	
12	0	0	0	0	508	508	0	0	
13	0	0	0	0	511	509	0	0	
14	0	0	0	0	509	508	0	0	
15	0	0	0	0	509	509	0	0	
0	0	0	0	0	513	508	0	0	
1	0	0	0	0	514	509	0	0	
2	0	0	0	0	511	506	0	0	
3	0	0	0	0	510	508	0	0	
4	0	0	0	0	513	508	0	0	
5	0	0	0	0	513	511	0	0	
6	0	0	0	0	511	508	0	0	
7	0	0	0	0	511	508	0	0	
8	0	0	0	0	508	509	0	0	
9	0	0	0	0	511	509	0	0	
10	0	0	0	0	512	504	0	0	
11	0	0	0	0	511	507	0	0	
12	0	0	0	0	511	507	0	0	
13	0	0	0	0	510	507	0	0	
14	0	0	0	0	505	508	0	0	
15	0	0	0	0	511	509	0	0	
0	0	0	0	0	512	509	0	0	
1	0	0	0	0	513	508	0	0	
2	0	0	0	0	512	508	0	0	
3	0	0	0	0	512	508	0	0	
4	0	0	0	0	513	510	0	0	
5	0	0	0	0	513	508	0	0	
6	0	0	0	0	511	509	0	0	
7	0	0	0	0	511	508	0	0	
8	0	0	0	0	508	508	0	0	
9	0	0	0	0	510	509	0	0	
10	0	0	0	0	513	508	0	0	
11	0	0	0	0	514	509	0	0	
12	0	0	0	0	517	506	0	0	
13	0	0	0	0	512	508	0	0	
14	0	0	0	0	512	507	0	0	
15	0	0	0	0	512	505	0	0	
0	0	0	0	0	510	506	0	0	
1	0	0	0	0	510	507	0	0	
2	0	0	0	0	511	506	0	0	
3	0	0	0	0	509	509	0	0	
4	0	0	0	0	511	507	0	0	
5	0	0	0	0	509	509	0	0	
6	0	0	0	0	508	508	0	0	
7	0	0	0	0	511	510	0	0	
8	0	0	0	0	511	509	0	0	
9	0	0	0	0	508	509	0	0	
10	0	0	0	0	510	508	0	0	
11	0	0	0	0	511	509	0	0	
12	0	0	0	0	512	506	0	0	
13	0	0	0	0	511	510	0	0	
14	0	0	0	0	512	508	0	0	
15	0	0	0	0	517	506	0	0	
0	0	0	0	0	515	506	0	0	
1	0	0	0	0	511	507	0	0	
2	0	0	0	0	512	508	0	0	
3	0	0	0	0	509	508	0	0	
4	0	0	0	0	510	507	0	0	
5	0	0	0	0	508	506	0	0	
6	0	0	0	0	509	507	0	0	
7	0	0	0	0	512	506	0	0	
8	0	0	0	0	511	508	0	0	
9	0	0	0	0	511	507	0	0	
10	0	0	0	0	511	509	0	0	
11	0	0	0	0	509	510	0	0	
12	0	0	0	0	510	509	0	0	
13	0	0	0	0	511	511	0	0	
14	0	0	0	0	510	510	0	0	
15	0	0	0	0	510	509	0	0	
0	0	0	0	0	510	507	0	0	
1	0	0	0	0	507	509	0	0	
2	0	0	0	0	511	508	0	0	
3	0	0	0	0	513	509	0	0	
4	0	0	0	0	512	506	0	0	
5	0	0	0	0	513	507	0	0	
6	0	0	0	0	512	506	0	0	
7	0	0	0	0	511	507	0	0	
8	0	0	0	0	509	507	0	0	
9	0	0	0	0	514	508	0	0	
10	0	0	0	0	510	509	0	0	
11	0	0	0	0	511	508	0	0	
12	0	0	0	0	513	506	0	0	
13	0	0	0	0	511	508	0	0	
14	0	0	0	0	509	507	0	0	
15	0	0	0	0	511	511	0	0	
0	0	0	0	0	508	509	0	0	
1	0	0	0	0	513	510	0	0	
2	0	0	0	0	511	508	0	0	
3	0	0	0	0	511	509	0	0	
4	0	0	0	0	512	510	0	0	
5	0	0	0	0	511	509	0	0	
6	0	0	0	0	511	508	0	0	
7	0	0	0	0	511	507	0	0	
8	0	0	0	0	511	507	0	0	
9	0	0	0	0	510	508	0	0	
10	0	0	0	0	511	507	0	0	
11	0	0	0	0	513	505	0	0	
12	0	0	0	0	513	506	0	0	
13	0	0	0	0	514	507	0	0	
14	0	0	0	0	510	506	0	0	
15	0	0	0	0	507	508	0	0	
0	0	0	0	0	511	508	0	0	
1	0	0	0	0	511	509	0	0	
2	0	0	0	0	511	509	0	0	
3	0	0	0	0	510	510	0	0	
4	0	0	0	0	511	509	0	0	
5	0	0	0	0	510	509	0	0	
6	0	0	0	0	510	508	0	0	
7	0	0	0	0	511	508	0	0	
8	0	0	0	0	512	507	0	0	
9	0	0	0	0	508	508	0	0	
10	0	0	0	0	512	507	0	0	
11	0	0	0	0	514	508	0	0	
12	0	0	0	0	512	508	0	0	
13	0	0	0	0	513	506	0	0	
14	0	0	0	0	511	505	0	0	
15	0	0	0	0	510	508	0	0	
0	0	0	0	0	511	507	0	0	
1	0	0	0	0	510	508	0	0	
2	0	0	0	0	511	507	0	0	
3	0	0	0	0	512	508	0	0	
4	0	0	0	0	510	508	0	0	
5	0	0	0	0	510	508	0	0	
6	0	0	0	0	508	508	0	0	
7	0	0	0	0	508	508	0	0	
8	0	0	0	0	509	508	0	0	
9	0	0	0	0	512	510	0	0	
10	0	0	0	0	514	509	0	0	
11	0	0	0	0	515	509	0	0	
12	0	0	0	0	511	509	0	0	
13	0	0	0	0	511	508	0	0	
14	0	0	0	0	509	507	0	0	
15	0	0	0	0	508	509	0	0	
0	0	0	0	0	506	508	0	0	
1	0	0	0	0	509	508	0	0	
2	0	0	0	0	511	507	0	0	
3	0	0	0	0	511	508	0	0	
4	0	0	0	0	515	508	0	0	
5	0	0	0	0	514	505	0	0	
6	0	0	0	0	518	506	0	0	
7	0	0	0	0	514	508	0	0	
8	0	0	0	0	513	507	0	0	
9	0	0	0	0	513	509	0	0	
10	0	0	0	0	511	509	0	0	
11	0	0	0	0	508	509	0	0	
12	0	0	0	0	508	509	0	0	
13	0	0	0	0	510	508	0	0	
14	0	0	0	0	511	508	0	0	
15	0	0	0	0	511	508	0	0	
0	0	0	0	0	510	511	0	0	
1	0	0	0	0	510	508	0	0	
2	0	0	0	0	513	509	0	0	
3	0	0	0	0	512	508	0	0	
4	0	0	0	0	509	508	0	0	
5	0	0	0	0	511	507	0	0	
6	0	0	0	0	509	505	0	0	
7	0	0	0	0	509	507	0	0	
8	0	0	0	0	508	505	0	0	
9	0	0	0	0	509	504	0	0	
10	0	0	0	0	511	510	0	0	
11	0	0	0	0	517	508	0	0	
12	0	0	0	0	514	508	0	0	
13	0	0	0	0	514	508	0	0	
14	0	0	0	0	511	508	0	0	
15	0	0	0	0	511	508	0	0	
0	0	0	0	0	508	509	0	0	
1	0	0	0	0	511	510	0	0	
2	0	0	0	0	509	508	0	0	
3	0	0	0	0	510	510	0	0	
4	0	0	0	0	508	511	0	0	
5	0	0	0	0	509	508	0	0	
6	0	0	0	0	511	509	0	0	
7	0	0	0	0	514	507	0	0	
8	0	0	0	0	512	506	0	0	
9	0	0	0	0	510	508	0	0	
10	0	0	0	0	510	507	0	0	
11	0	0	0	0	511	508	0	0	
12	0	0	0	0	510	507	0	0	
13	0	0	0	0	512	507	0	0	
14	0	0	0	0	512	507	0	0	
15	0	0	0	0	511	505	0	0	
0	0	0	0	0	510	507	0	0	
1	0	0	0	0	510	510	0	0	
2	0	0	0	0	511	509	0	0	
3	0	0	0	0	509	508	0	0	
4	0	0	0	0	510	510	0	0	
5	0	0	0	0	510	510	0	0	
6	0	0	0	0	513	511	0	0	
7	0	0	0	0	512	509	0	0	
8	0	0	0	0	512	508	0	0	
9	0	0	0	0	511	508	0	0	
10	0	0	0	0	510	508	0	0	
11	0	0	0	0	512	508	0	0	
12	0	0	0	0	510	506	0	0	
13	0	0	0	0	513	507	0	0	
14	0	0	0	0	511	507	0	0	
15	0	0	0	0	508	508	0	0	
0	0	0	0	0	511	508	0	0	
1	0	0	0	0	512	507	0	0	
2	0	0	0	0	512	508	0	0	
3	0	0	0	0	512	508	0	0	
4	0	0	0	0	511	507	0	0	
5	0	0	0	0	510	507	0	0	
6	0	0	0	0	512	511	0	0	
7	0	0	0	0	511	508	0	0	
8	0	0	0	0	510	510	0	0	
9	0	0	0	0	509	508	0	0	
10	0	0	0	0	511	509	0	0	
11	0	0	0	0	511	508	0	0	
12	0	0	0	0	510	507	0	0	
13	0	0	0	0	511	509	0	0	
14	0	0	0	0	512	509	0	0	
15	0	0	0	0	512	508	0	0	
0	0	0	0	0	512	508	0	0	
1	0	0	0	0	509	508	0	0	
2	0	0	0	0	511	508	0	0	
3	0	0	0	0	512	508	0	0	
4	0	0	0	0	512	507	0	0	
5	0	0	0	0	511	507	0	0	
6	0	0	0	0	510	505	0	0	
7	0	0	0	0	512	508	0	0	
8	0	0	0	0	508	508	0	0	
9	0	0	0	0	506	508	0	0	
10	0	0	0	0	507	510	0	0	
11	0	0	0	0	505	508	0	0	
12	0	0	0	0	512	508	0	0	
13	0	0	0	0	517	508	0	0	
14	0	0	0	0	517	510	0	0	
15	0	0	0	0	514	509	0	0	
0	0	0	0	0	515	508	0	0	
1	0	0	0	0	513	510	0	0	
2	0	0	0	0	511	507	0	0	
3	0	0	0	0	512	508	0	0	
4	0	0	0	0	511	507	0	0	
5	0	0	0	0	512	507	0	0	
6	0	0	0	0	509	507	0	0	
7	0	0	0	0	510	507	0	0	
8	0	0	0	0	510	508	0	0	
9	0	0	0	0	506	508	0	0	
10	0	0	0	0	507	507	0	0	
11	0	0	0	0	512	507	0	0	
12	0	0	0	0	511	507	0	0	
13	0	0	0	0	512	507	0	0	
14	0	0	0	0	515	508	0	0	
15	0	0	0	0	514	508	0	0	
0	0	0	0	0	511	511	0	0	
1	0	0	0	0	511	510	0	0	
2	0	0	0	0	512	509	0	0	
3	0	0	0	0	510	508	0	0	
4	0	0	0	0	512	508	0	0	
5	0	0	0	0	511	508	0	0	
6	0	0	0	0	511	507	0	0	
7	0	0	0	0	513	506	0	0	
8	0	0	0	0	510	508	0	0	
9	0	0	0	0	512	507	0	0	
10	0	0	0	0	513	507	0	0	
11	0	0	0	0	510	507	0	0	
12	0	0	0	0	512	506	0	0	
13	0	0	0	0	509	505	0	0	
14	0	0	0	0	509	509	0	0	
15	0	0	0	0	511	505	0	0	
0	0	0	0	0	510	508	0	0	
1	0	0	0	0	512	511	0	0	
2	0	0	0	0	510	510	0	0	
3	0	0	0	0	509	508	0	0	
4	0	0	0	0	508	508	0	0	
5	0	0	0	0	511	508	0	0	
6	0	0	0	0	508	508	0	0	
7	0	0	0	0	512	508	0	0	
8	0	0	0	0	511	508	0	0	
9	0	0	0	0	512	508	0	0	
10	0	0	0	0	512	509	0	0	
11	0	0	0	0	512	507	0	0	
12	0	0	0	0	513	508	0	0	
13	0	0	0	0	509	509	0	0	
14	0	0	0	0	511	506	0	0	
15	0	0	0	0	512	508	0	0	
0	0	0	0	0	510	507	0	0	
1	0	0	0	0	509	508	0	0	
2	0	0	0	0	509	506	0	0	
3	0	0	0	0	510	507	0	0	
4	0	0	0	0	511	509	0	0	
5	0	0	0	0	511	508	0	0	
6	0	0	0	0	514	510	0	0	
7	0	0	0	0	511	508	0	0	
8	0	0	0	0	512	509	0	0	
9	0	0	0	0	510	508	0	0	
10	0	0	0	0	512	510	0	0	
11	0	0	0	0	508	508	0	0	
12	0	0	0	0	508	509	0	0	
13	0	0	0	0	511	508	0	0	
14	0	0	0	0	511	507	0	0	
15	0	0	0	0	511	507	0	0	
0	0	0	0	0	514	507	0	0	
1	0	0	0	0	515	505	0	0	
2	0	0	0	0	510	508	0	0	
3	0	0	0	0	508	507	0	0	
4	0	0	0	0	512	508	0	0	
5	0	0	0	0	514	509	0	0	
6	0	0	0	0	513	508	0	0	
7	0	0	0	0	510	505	0	0	
8	0	0	0	0	510	507	0	0	
9	0	0	0	0	512	508	0	0	
10	0	0	0	0	513	509	0	0	
11	0	0	0	0	512	509	0	0	
12	0	0	0	0	512	508	0	0	
13	0	0	0	0	512	507	0	0	
14	0	0	0	0	509	508	0	0	
15	0	0	0	0	509	509	0	0	
0	0	0	0	0	510	508	0	0	
1	0	0	0	0	510	508	0	0	
2	0	0	0	0	511	507	0	0	
3	0	0	0	0	513	510	0	0	
4	0	0	0	0	513	508	0	0	
5	0	0	0	0	511	505	0	0	
6	0	0	0	0	510	504	0	0	
7	0	0	0	0	508	508	0	0	
8	0	0	0	0	508	509	0	0	
9	0	0	0	0	511	507	0	0	
10	0	0	0	0	509	508	0	0	
11	0	0	0	0	510	505	0	0	
12	0	0	0	0	512	507	0	0	
13	0	0	0	0	511	508	0	0	
14	0	0	0	0	509	508	0	0	
15	0	0	0	0	507	510	0	0	
0	0	0	0	0	507	509	0	0	
1	0	0	0	0	508	507	0	0	
2	0	0	0	0	514	507	0	0	
3	0	0	0	0	513	508	0	0	
4	0	0	0	0	512	508	0	0	
5	0	0	0	0	516	510	0	0	
6	0	0	0	0	517	508	0	0	
7	0	0	0	0	518	508	0	0	
8	0	0	0	0	514	507	0	0	
9	0	0	0	0	511	508	0	0	
10	0	0	0	0	510	507	0	0	
11	0	0	0	0	511	508	0	0	
12	0	0	0	0	509	508	0	0	
13	0	0	0	0	510	508	0	0	
14	0	0	0	0	508	507	0	0	
15	0	0	0	0	510	509	0	0	
0	0	0	0	0	509	508	0	0	
1	0	0	0	0	509	510	0	0	
2	0	0	0	0	510	509	0	0	
3	0	0	0	0	511	509	0	0	
4	0	0	0	0	509	510	0	0	
5	0	0	0	0	512	508	0	0	
6	0	0	0	0	513	508	0	0	
7	0	0	0	0	511	508	0	0	
8	0	0	0	0	512	508	0	0	
9	0	0	0	0	509	506	0	0	
10	0	0	0	0	510	507	0	0	
11	0	0	0	0	512	508	0	0	
12	0	0	0	0	512	508	0	0	
13	0	0	0	0	509	507	0	0	
14	0	0	0	0	511	507	0	0	
15	0	0	0	0	511	508	0	0	
0	0	0	0	0	509	508	0	0	
1	0	0	0	0	510	508	0	0	
2	0	0	0	0	511	507	0	0	
3	0	0	0	0	511	508	0	0	
4	0	0	0	0	508	507	0	0	
5	0	0	0	0	511	509	0	0	
6	0	0	0	0	510	507	0	0	
7	0	0	0	0	510	509	0	0	
8	0	0	0	0	508	507	0	0	
9	0	0	0	0	513	508	0	0	
10	0	0	0	0	512	509	0	0	
11	0	0	0	0	515	509	0	0	
12	0	0	0	0	511	509	0	0	
13	0	0	0	0	508	507	0	0	
14	0	0	0	0	511	510	0	0	
15	0	0	0	0	513	507	0	0	
0	0	0	0	0	510	509	0	0	
1	0	0	0	0	513	507	0	0	
2	0	0	0	0	512	507	0	0	
3	0	0	0	0	511	507	0	0	
4	0	0	0	0	511	505	0	0	
5	0	0	0	0	509	506	0	0	
6	0	0	0	0	514	508	0	0	
7	0	0	0	0	513	507	0	0	
8	0	0	0	0	510	508	0	0	
9	0	0	0	0	509	508	0	0	
10	0	0	0	0	509	509	0	0	
11	0	0	0	0	509	509	0	0	
12	0	0	0	0	512	509	0	0	
13	0	0	0	0	511	510	0	0	
14	0	0	0	0	510	510	0	0	
15	0	0	0	0	511	509	0	0	
0	0	0	0	0	513	509	0	0	
1	0	0	0	0	510	508	0	0	
2	0	0	0	0	508	510	0	0	
3	0	0	0	0	508	507	0	0	
4	0	0	0	0	509	507	0	0	
5	0	0	0	0	509	507	0	0	
6	0	0	0	0	512	506	0	0	
7	0	0	0	0	515	506	0	0	
8	0	0	0	0	511	508	0	0	
9	0	0	0	0	509	509	0	0	
10	0	0	0	0	510	508	0	0	
11	0	0	0	0	513	508	0	0	
12	0	0	0	0	517	506	0	0	
13	0	0	0	0	513	508	0	0	
14	0	0	0	0	511	511	0	0	
15	0	0	0	0	510	510	0	0	
0	0	0	0	0	513	509	0	0	
1	0	0	0	0	511	510	0	0	
2	0	0	0	0	511	507	0	0	
3	0	0	0	0	512	508	0	0	
4	0	0	0	0	511	509	0	0	
5	0	0	0	0	510	511	0	0	
6	0	0	0	0	515	508	0	0	
7	0	0	0	0	512	507	0	0	
8	0	0	0	0	511	506	0	0	
9	0	0	0	0	512	506	0	0	
10	0	0	0	0	510	506	0	0	
11	0	0	0	0	511	508	0	0	
12	0	0	0	0	510	508	0	0	
13	0	0	0	0	510	507	0	0	
14	0	0	0	0	510	506	0	0	
15	0	0	0	0	512	506	0	0	
0	0	0	0	0	511	509	0	0	
1	0	0	0	0	508	510	0	0	
2	0	0	0	0	508	508	0	0	
3	0	0	0	0	509	507	0	0	
4	0	0	0	0	511	509	0	0	
5	0	0	0	0	512	508	0	0	
6	0	0	0	0	512	508	0	0	
7	0	0	0	0	509	508	0	0	
8	0	0	0	0	508	509	0	0	
9	0	0	0	0	511	510	0	0	
10	0	0	0	0	510	509	0	0	
11	0	0	0	0	513	507	0	0	
12	0	0	0	0	512	508	0	0	
13	0	0	0	0	515	507	0	0	
14	0	0	0	0	515	506	0	0	
15	0	0	0	0	512	508	0	0	
0	0	0	0	0	511	507	0	0	
1	0	0	0	0	512	507	0	0	
2	0	0	0	0	512	507	0	0	
3	0	0	0	0	511	508	0	0	
4	0	0	0	0	513	507	0	0	
5	0	0	0	0	511	506	0	0	
6	0	0	0	0	508	508	0	0	
7	0	0	0	0	508	509	0	0	
8	0	0	0	0	511	509	0	0	
9	0	0	0	0	511	511	0	0	
10	0	0	0	0	513	508	0	0	
11	0	0	0	0	510	510	0	0	
12	0	0	0	0	511	508	0	0	
13	0	0	0	0	510	508	0	0	
14	0	0	0	0	510	509	0	0	
15	0	0	0	0	511	508	0	0	
0	0	0	0	0	510	506	0	0	
1	0	0	0	0	509	506	0	0	
2	0	0	0	0	510	508	0	0	
3	0	0	0	0	510	506	0	0	
4	0	0	0	0	512	507	0	0	
5	0	0	0	0	510	507	0	0	
6	0	0	0	0	510	507	0	0	
7	0	0	0	0	509	507	0	0	
8	0	0	0	0	513	507	0	0	
9	0	0	0	0	513	508	0	0	
10	0	0	0	0	513	508	0	0	
11	0	0	0	0	512	509	0	0	
12	0	0	0	0	511	510	0	0	
13	0	0	0	0	508	508	0	0	
14	0	0	0	0	511	508	0	0	
15	0	0	0	0	513	509	0	0	
0	0	0	0	0	508	510	0	0	
1	0	0	0	0	510	510	0	0	
2	0	0	0	0	509	509	0	0	
3	0	0	0	0	506	508	0	0	
4	0	0	0	0	508	505	0	0	
5	0	0	0	0	507	506	0	0	
6	0	0	0	0	515	508	0	0	
7	0	0	0	0	516	508	0	0	
8	0	0	0	0	514	506	0	0	
9	0	0	0	0	514	507	0	0	
10	0	0	0	0	513	505	0	0	
11	0	0	0	0	512	507	0	0	
12	0	0	0	0	507	506	0	0	
13	0	0	0	0	511	508	0	0	
14	0	0	0	0	509	509	0	0	
15	0	0	0	0	510	508	0	0	
0	0	0	0	0	509	510	0	0	
1	0	0	0	0	511	511	0	0	
2	0	0	0	0	510	509	0	0	
3	0	0	0	0	513	508	0	0	
4	0	0	0	0	516	510	0	0	
5	0	0	0	0	513	509	0	0	
6	0	0	0	0	511	508	0	0	
7	0	0	0	0	512	509	0	0	
8	0	0	0	0	509	506	0	0	
9	0	0	0	0	511	508	0	0	
10	0	0	0	0	511	507	0	0	
11	0	0	0	0	513	507	0	0	
12	0	0	0	0	513	507	0	0	
13	0	0	0	0	510	508	0	0	
14	0	0	0	0	512	509	0	0	
15	0	0	0	0	512	505	0	0	
0	0	0	0	0	510	506	0	0	
1	0	0	0	0	509	509	0	0	
2	0	0	0	0	508	509	0	0	
3	0	0	0	0	512	510	0	0	
4	0	0	0	0	507	507	0	0	
5	0	0	0	0	507	510	0	0	
6	0	0	0	0	513	508	0	0	
7	0	0	0	0	512	509	0	0	
8	0	0	0	0	512	508	0	0	
9	0	0	0	0	510	509	0	0	
10	0	0	0	0	510	507	0	0	
11	0	0	0	0	509	509	0	0	
12	0	0	0	0	508	508	0	0	
13	0	0	0	0	511	507	0	0	
14	0	0	0	0	511	506	0	0	
15	0	0	0	0	511	506	0	0	
0	0	0	0	0	511	508	0	0	
1	0	0	0	0	513	508	0	0	
2	0	0	0	0	515	508	0	0	
3	0	0	0	0	515	507	0	0	
4	0	0	0	0	510	507	0	0	
5	0	0	0	0	511	508	0	0	
6	0	0	0	0	514	508	0	0	
7	0	0	0	0	511	508	0	0	
8	0	0	0	0	511	508	0	0	
9	0	0	0	0	510	509	0	0	
10	0	0	0	0	511	508	0	0	
11	0	0	0	0	511	508	0	0	
12	0	0	0	0	513	510	0	0	
13	0	0	0	0	510	510	0	0	
14	0	0	0	0	512	508	0	0	
15	0	0	0	0	511	507	0	0	
0	0	0	0	0	511	508	0	0	
1	0	0	0	0	513	506	0	0	
2	0	0	0	0	511	507	0	0	
3	0	0	0	0	512	506	0	0	
4	0	0	0	0	509	506	0	0	
5	0	0	0	0	511	507	0	0	
6	0	0	0	0	511	508	0	0	
7	0	0	0	0	508	507	0	0	
8	0	0	0	0	508	509	0	0	
9	0	0	0	0	512	508	0	0	
10	0	0	0	0	510	510	0	0	
11	0	0	0	0	513	508	0	0	
12	0	0	0	0	511	508	0	0	
13	0	0	0	0	513	507	0	0	
14	0	0	0	0	511	511	0	0	
15	0	0	0	0	511	508	0	0	
0	0	0	0	0	513	508	0	0	
1	0	0	0	0	511	508	0	0	
2	0	0	0	0	512	508	0	0	
3	0	0	0	0	513	509	0	0	
4	0	0	0	0	513	507	0	0	
5	0	0	0	0	513	507	0	0	
6	0	0	0	0	513	508	0	0	
7	0	0	0	0	512	506	0	0	
8	0	0	0	0	510	507	0	0	
9	0	0	0	0	506	508	0	0	
10	0	0	0	0	508	506	0	0	
11	0	0	0	0	510	507	0	0	
12	0	0	0	0	508	506	0	0	
13	0	0	0	0	509	507	0	0	
14	0	0	0	0	507	509	0	0	
15	0	0	0	0	511	510	0	0	
0	0	0	0	0	511	510	0	0	
1	0	0	0	0	511	508	0	0	
2	0	0	0	0	517	510	0	0	
3	0	0	0	0	518	511	0	0	
4	0	0	0	0	514	510	0	0	
5	0	0	0	0	510	508	0	0	
6	0	0	0	0	510	507	0	0	
7	0	0	0	0	508	507	0	0	
8	0	0	0	0	508	506	0	0	
9	0	0	0	0	511	507	0	0	
10	0	0	0	0	510	507	0	0	
11	0	0	0	0	510	510	0	0	
12	0	0	0	0	510	507	0	0	
13	0	0	0	0	508	507	0	0	
14	0	0	0	0	511	507	0	0	
15	0	0	0	0	510	507	0	0	
0	0	0	0	0	511	506	0	0	
1	0	0	0	0	511	508	0	0	
2	0	0	0	0	513	508	0	0	
3	0	0	0	0	510	511	0	0	
4	0	0	0	0	509	510	0	0	
5	0	0	0	0	510	509	0	0	
6	0	0	0	0	512	508	0	0	
7	0	0	0	0	511	508	0	0	
8	0	0	0	0	512	507	0	0	
9	0	0	0	0	512	508	0	0	
10	0	0	0	0	511	508	0	0	
11	0	0	0	0	514	509	0	0	
12	0	0	0	0	515	509	0	0	
13	0	0	0	0	512	506	0	0	
14	0	0	0	0	511	509	0	0	
15	0	0	0	0	511	507	0	0	
0	0	0	0	0	511	506	0	0	
1	0	0	0	0	508	508	0	0	
2	0	0	0	0	510	508	0	0	
3	0	0	0	0	511	507	0	0	
4	0	0	0	0	511	507	0	0	
5	0	0	0	0	512	509	0	0	
6	0	0	0	0	511	510	0	0	
7	0	0	0	0	510	508	0	0	
8	0	0	0	0	511	510	0	0	
9	0	0	0	0	512	507	0	0	
10	0	0	0	0	511	507	0	0	
11	0	0	0	0	512	508	0	0	
12	0	0	0	0	511	509	0	0	
13	0	0	0	0	508	508	0	0	
14	0	0	0	0	511	509	0	0	
15	0	0	0	0	511	507	0	0	
0	0	0	0	0	509	505	0	0	
1	0	0	0	0	510	508	0	0	
2	0	0	0	0	510	507	0	0	
3	0	0	0	0	508	508	0	0	
4	0	0	0	0	515	510	0	0	
5	0	0	0	0	512	507	0	0	
6	0	0	0	0	513	507	0	0	
7	0	0	0	0	507	509	0	0	
8	0	0	0	0	508	507	0	0	
9	0	0	0	0	511	507	0	0	
10	0	0	0	0	510	509	0	0	
11	0	0	0	0	512	508	0	0	
12	0	0	0	0	512	511	0	0	
13	0	0	0	0	511	509	0	0	
14	0	0	0	0	515	510	0	0	
15	0	0	0	0	513	508	0	0	
0	0	0	0	0	515	508	0	0	
1	0	0	0	0	511	509	0	0	
2	0	0	0	0	511	507	0	0	
3	0	0	0	0	509	508	0	0	
4	0	0	0	0	509	506	0	0	
5	0	0	0	0	510	506	0	0	
6	0	0	0	0	512	507	0	0	
7	0	0	0	0	510	509	0	0	
8	0	0	0	0	510	508	0	0	
9	0	0	0	0	512	508	0	0	
10	0	0	0	0	510	508	0	0	
11	0	0	0	0	511	508	0	0	
12	0	0	0	0	511	506	0	0	
13	0	0	0	0	510	508	0	0	
14	0	0	0	0	508	510	0	0	
15	0	0	0	0	511	509	0	0	
0	0	0	0	0	507	508	0	0	
1	0	0	0	0	508	508	0	0	
2	0	0	0	0	511	510	0	0	
3	0	0	0	0	511	509	0	0	
4	0	0	0	0	512	509	0	0	
5	0	0	0	0	510	508	0	0	
6	0	0	0	0	509	508	0	0	
7	0	0	0	0	510	508	0	0	
8	0	0	0	0	515	507	0	0	
9	0	0	0	0	517	507	0	0	
10	0	0	0	0	514	505	0	0	
11	0	0	0	0	510	507	0	0	
12	0	0	0	0	512	509	0	0	
13	0	0	0	0	512	510	0	0	
14	0	0	0	0	511	509	0	0	
15	0	0	0	0	511	507	0	0	
0	0	0	0	0	510	508	0	0	
1	0	0	0	0	509	510	0	0	
2	0	0	0	0	511	509	0	0	
3	0	0	0	0	512	510	0	0	
4	0	0	0	0	511	508	0	0	
5	0	0	0	0	509	511	0	0	
6	0	0	0	0	511	508	0	0	
7	0	0	0	0	511	507	0	0	
8	0	0	0	0	512	508	0	0	
9	0	0	0	0	511	507	0	0	
10	0	0	0	0	508	508	0	0	
11	0	0	0	0	511	508	0	0	
12	0	0	0	0	511	507	0	0	
13	0	0	0	0	510	507	0	0	
14	0	0	0	0	512	506	0	0	
15	0	0	0	0	512	507	0	0	
0	0	0	0	0	511	507	0	0	
1	0	0	0	0	511	505	0	0	
2	0	0	0	0	511	509	0	0	
3	0	0	0	0	510	509	0	0	
4	0	0	0	0	512	508	0	0	
5	0	0	0	0	511	508	0	0	
6	0	0	0	0	512	509	0	0	
7	0	0	0	0	510	509	0	0	
8	0	0	0	0	510	507	0	0	
9	0	0	0	0	512	506	0	0	
10	0	0	0	0	511	508	0	0	
11	0	0	0	0	512	510	0	0	
12	0	0	0	0	511	507	0	0	
13	0	0	0	0	509	509	0	0	
14	0	0	0	0	511	507	0	0	
15	0	0	0	0	511	508	0	0	
0	0	0	0	0	513	510	0	0	
1	0	0	0	0	511	507	0	0	
2	0	0	0	0	511	508	0	0	
3	0	0	0	0	510	506	0	0	
4	0	0	0	0	511	508	0	0	
5	0	0	0	0	511	506	0	0	
6	0	0	0	0	511	507	0	0	
7	0	0	0	0	513	508	0	0	
8	0	0	0	0	512	507	0	0	
9	0	0	0	0	510	507	0	0	
10	0	0	0	0	510	510	0	0	
11	0	0	0	0	509	508	0	0	
12	0	0	0	0	509	509	0	0	
13	0	0	0	0	513	511	0	0	
14	0	0	0	0	510	509	0	0	
15	0	0	0	0	511	509	0	0	
0	0	0	0	0	510	507	0	0	
1	0	0	0	0	510	510	0	0	
2	0	0	0	0	510	508	0	0	
3	0	0	0	0	515	507	0	0	
4	0	0	0	0	515	505	0	0	
5	0	0	0	0	511	510	0	0	
6	0	0	0	0	512	506	0	0	
7	0	0	0	0	513	506	0	0	
8	0	0	0	0	513	507	0	0	
9	0	0	0	0	510	507	0	0	
10	0	0	0	0	509	507	0	0	
11	0	0	0	0	510	508	0	0	
12	0	0	0	0	513	509	0	0	
13	0	0	0	0	508	507	0	0	
14	0	0	0	0	510	509	0	0	
15	0	0	0	0	510	511	0	0	
0	0	0	0	0	510	509	0	0	
1	0	0	0	0	508	511	0	0	
2	0	0	0	0	511	510	0	0	
3	0	0	0	0	512	508	0	0	
4	0	0	0	0	511	508	0	0	
5	0	0	0	0	510	509	0	0	
6	0	0	0	0	512	509	0	0	
7	0	0	0	0	511	507	0	0	
8	0	0	0	0	511	507	0	0	
9	0	0	0	0	512	508	0	0	
10	0	0	0	0	513	505	0	0	
11	0	0	0	0	510	507	0	0	
12	0	0	0	0	511	507	0	0	
13	0	0	0	0	509	508	0	0	
14	0	0	0	0	512	506	0	0	
15	0	0	0	0	515	507	0	0	
0	0	0	0	0	513	507	0	0	
1	0	0	0	0	511	509	0	0	
2	0	0	0	0	508	509	0	0	
3	0	0	0	0	508	508	0	0	
4	0	0	0	0	510	509	0	0	
5	0	0	0	0	512	510	0	0	
6	0	0	0	0	511	509	0	0	
7	0	0	0	0	513	510	0	0	
8	0	0	0	0	513	507	0	0	
9	0	0	0	0	513	509	0	0	
10	0	0	0	0	511	508	0	0	
11	0	0	0	0	513	507	0	0	
12	0	0	0	0	511	509	0	0	
13	0	0	0	0	507	509	0	0	
14	0	0	0	0	509	506	0	0	
15	0	0	0	0	511	506	0	0	
0	0	0	0	0	508	507	0	0	
1	0	0	0	0	508	507	0	0	
2	0	0	0	0	513	508	0	0	
3	0	0	0	0	514	507	0	0	
4	0	0	0	0	516	506	0	0	
5	0	0	0	0	516	508	0	0	
6	0	0	0	0	513	508	0	0	
7	0	0	0	0	511	508	0	0	
8	0	0	0	0	509	510	0	0	
9	0	0	0	0	510	510	0	0	
10	0	0	0	0	510	510	0	0	
11	0	0	0	0	508	509	0	0	
12	0	0	0	0	510	507	0	0	
13	0	0	0	0	512	509	0	0	
14	0	0	0	0	510	510	0	0	
15	0	0	0	0	511	508	0	0	
0	0	0	0	0	510	504	0	0	
1	0	0	0	0	512	506	0	0	
2	0	0	0	0	514	507	0	0	
3	0	0	0	0	511	506	0	0	
4	0	0	0	0	512	507	0	0	
5	0	0	0	0	510	507	0	0	
6	0	0	0	0	511	506	0	0	
7	0	0	0	0	511	509	0	0	
8	0	0	0	0	510	509	0	0	
9	0	0	0	0	511	508	0	0	
10	0	0	0	0	509	509	0	0	
11	0	0	0	0	511	508	0	0	
12	0	0	0	0	507	509	0	0	
13	0	0	0	0	511	509	0	0	
14	0	0	0	0	510	510	0	0	
15	0	0	0	0	510	509	0	0	
0	0	0	0	0	511	510	0	0	
1	0	0	0	0	508	507	0	0	
2	0	0	0	0	512	508	0	0	
3	0	0	0	0	512	506	0	0	
4	0	0	0	0	514	506	0	0	
5	0	0	0	0	512	507	0	0	
6	0	0	0	0	513	507	0	0	
7	0	0	0	0	512	508	0	0	
8	0	0	0	0	512	505	0	0	
9	0	0	0	0	512	506	0	0	
10	0	0	0	0	511	508	0	0	
11	0	0	0	0	510	508	0	0	
12	0	0	0	0	512	507	0	0	
13	0	0	0	0	509	510	0	0	
14	0	0	0	0	508	508	0	0	
15	0	0	0	0	509	507	0	0	
0	0	0	0	0	512	509	0	0	
1	0	0	0	0	511	510	0	0	
2	0	0	0	0	511	509	0	0	
3	0	0	0	0	510	507	0	0	
4	0	0	0	0	511	508	0	0	
5	0	0	0	0	507	509	0	0	
6	0	0	0	0	508	508	0	0	
7	0	0	0	0	512	508	0	0	
8	0	0	0	0	506	507	0	0	
9	0	0	0	0	512	508	0	0	
10	0	0	0	0	514	508	0	0	
11	0	0	0	0	510	506	0	0	
12	0	0	0	0	512	509	0	0	
13	0	0	0	0	514	507	0	0	
14	0	0	0	0	514	505	0	0	
15	0	0	0	0	514	507	0	0	
0	0	0	0	0	511	508	0	0	
1	0	0	0	0	511	508	0	0	
2	0	0	0	0	509	510	0	0	
3	0	0	0	0	510	508	0	0	
4	0	0	0	0	512	509	0	0	
5	0	0	0	0	513	508	0	0	
6	0	0	0	0	512	510	0	0	
7	0	0	0	0	511	508	0	0	
8	0	0	0	0	507	509	0	0	
9	0	0	0	0	509	510	0	0	
10	0	0	0	0	509	505	0	0	
11	0	0	0	0	509	507	0	0	
12	0	0	0	0	511	507	0	0	
13	0	0	0	0	511	508	0	0	
14	0	0	0	0	511	507	0	0	
15	0	0	0	0	510	507	0	0	
0	0	0	0	0	508	507	0	0	
1	0	0	0	0	509	508	0	0	
2	0	0	0	0	510	506	0	0	
3	0	0	0	0	510	507	0	0	
4	0	0	0	0	512	509	0	0	
5	0	0	0	0	515	508	0	0	
6	0	0	0	0	515	508	0	0	
7	0	0	0	0	514	508	0	0	
8	0	0	0	0	515	508	0	0	
9	0	0	0	0	513	508	0	0	
10	0	0	0	0	510	507	0	0	
11	0	0	0	0	511	511	0	0	
12	0	0	0	0	510	509	0	0	
13	0	0	0	0	510	507	0	0	
14	0	0	0	0	510	508	0	0	
15	0	0	0	0	512	508	0	0	
0	0	0	0	0	513	507	0	0	
1	0	0	0	0	514	504	0	0	
2	0	0	0	0	511	507	0	0	
3	0	0	0	0	511	508	0	0	
4	0	0	0	0	511	507	0	0	
5	0	0	0	0	508	508	0	0	
6	0	0	0	0	510	508	0	0	
7	0	0	0	0	509	507	0	0	
8	0	0	0	0	510	506	0	0	
9	0	0	0	0	509	508	0	0	
10	0	0	0	0	508	508	0	0	
11	0	0	0	0	509	508	0	0	
12	0	0	0	0	511	508	0	0	
13	0	0	0	0	509	508	0	0	
14	0	0	0	0	510	508	0	0	
15	0	0	0	0	512	510	0	0	
0	0	0	0	0	512	509	0	0	
1	0	0	0	0	509	508	0	0	
2	0	0	0	0	510	511	0	0	
3	0	0	0	0	511	509	0	0	
4	0	0	0	0	511	508	0	0	
5	0	0	0	0	513	507	0	0	
6	0	0	0	0	511	504	0	0	
7	0	0	0	0	511	505	0	0	
8	0	0	0	0	511	507	0	0	
9	0	0	0	0	509	508	0	0	
10	0	0	0	0	509	508	0	0	
11	0	0	0	0	510	507	0	0	
12	0	0	0	0	510	507	0	0	
13	0	0	0	0	509	509	0	0	
14	0	0	0	0	512	509	0	0	
15	0	0	0	0	513	509	0	0	
0	0	0	0	0	513	509	0	0	
1	0	0	0	0	514	509	0	0	
2	0	0	0	0	515	508	0	0	
3	0	0	0	0	512	509	0	0	
4	0	0	0	0	511	508	0	0	
5	0	0	0	0	509	509	0	0	
6	0	0	0	0	508	510	0	0	
7	0	0	0	0	512	506	0	0	
8	0	0	0	0	512	507	0	0	
9	0	0	0	0	509	508	0	0	
10	0	0	0	0	511	508	0	0	
11	0	0	0	0	510	507	0	0	
12	0	0	0	0	511	508	0	0	
13	0	0	0	0	511	508	0	0	
14	0	0	0	0	508	507	0	0	
15	0	0	0	0	513	506	0	0	
0	0	0	0	0	512	508	0	0	
1	0	0	0	0	510	509	0	0	
2	0	0	0	0	510	510	0	0	
3	0	0	0	0	511	509	0	0	
4	0	0	0	0	511	508	0	0	
5	0	0	0	0	513	510	0	0	
6	0	0	0	0	512	509	0	0	
7	0	0	0	0	510	509	0	0	
8	0	0	0	0	513	508	0	0	
9	0	0	0	0	511	510	0	0	
10	0	0	0	0	511	508	0	0	
11	0	0	0	0	511	507	0	0	
12	0	0	0	0	512	507	0	0	
13	0	0	0	0	511	508	0	0	
14	0	0	0	0	510	508	0	0	
15	0	0	0	0	510	506	0	0	
0	0	0	0	0	510	506	0	0	
1	0	0	0	0	508	508	0	0	
2	0	0	0	0	511	508	0	0	
3	0	0	0	0	512	505	0	0	
4	0	0	0	0	510	507	0	0	
5	0	0	0	0	511	510	0	0	
6	0	0	0	0	511	509	0	0	
7	0	0	0	0	512	508	0	0	
8	0	0	0	0	512	508	0	0	
9	0	0	0	0	513	508	0	0	
10	0	0	0	0	511	511	0	0	
11	0	0	0	0	512	509	0	0	
12	0	0	0	0	512	508	0	0	
13	0	0	0	0	509	508	0	0	
14	0	0	0	0	510	511	0	0	
15	0	0	0	0	512	508	0	0	
0	0	0	0	0	513	508	0	0	
1	0	0	0	0	513	508	0	0	
2	0	0	0	0	514	506	0	0	
3	0	0	0	0	509	508	0	0	
4	0	0	0	0	509	507	0	0	
5	0	0	0	0	508	507	0	0	
6	0	0	0	0	508	508	0	0	
7	0	0	0	0	511	505	0	0	
8	0	0	0	0	512	505	0	0	
9	0	0	0	0	508	507	0	0	
10	0	0	0	0	508	508	0	0	
11	0	0	0	0	510	508	0	0	
12	0	0	0	0	515	510	0	0	
13	0	0	0	0	511	509	0	0	
14	0	0	0	0	511	508	0	0	
15	0	0	0	0	509	509	0	0	
0	0	0	0	0	511	507	0	0	
1	0	0	0	0	513	510	0	0	
2	0	0	0	0	514	509	0	0	
3	0	0	0	0	513	509	0	0	
4	0	0	0	0	509	507	0	0	
5	0	0	0	0	511	505	0	0	
6	0	0	0	0	509	504	0	0	
7	0	0	0	0	510	508	0	0	
8	0	0	0	0	510	508	0	0	
9	0	0	0	0	509	508	0	0	
10	0	0	0	0	511	508	0	0	
11	0	0	0	0	512	507	0	0	
12	0	0	0	0	511	508	0	0	
13	0	0	0	0	512	508	0	0	
14	0	0	0	0	509	510	0	0	
15	0	0	0	0	511	508	0	0	
0	0	0	0	0	513	510	0	0	
1	0	0	0	0	511	509	0	0	
2	0	0	0	0	510	508	0	0	
3	0	0	0	0	510	507	0	0	
4	0	0	0	0	512	509	0	0	
5	0	0	0	0	510	509	0	0	
6	0	0	0	0	511	508	0	0	
7	0	0	0	0	509	507	0	0	
8	0	0	0	0	512	508	0	0	
9	0	0	0	0	512	507	0	0	
10	0	0	0	0	512	506	0	0	
11	0	0	0	0	513	508	0	0	
12	0	0	0	0	513	508	0	0	
13	0	0	0	0	510	509	0	0	
14	0	0	0	0	509	508	0	0	
15	0	0	0	0	510	507	0	0	
0	0	0	0	0	508	508	0	0	
1	0	0	0	0	507	509	0	0	
2	0	0	0	0	509	510	0	0	
3	0	0	0	0	511	507	0	0	
4	0	0	0	0	512	510	0	0	
5	0	0	0	0	511	507	0	0	
6	0	0	0	0	515	507	0	0	
7	0	0	0	0	515	511	0	0	
8	0	0	0	0	514	508	0	0	
9	0	0	0	0	509	509	0	0	
10	0	0	0	0	510	507	0	0	
11	0	0	0	0	507	506	0	0	
12	0	0	0	0	511	507	0	0	
13	0	0	0	0	512	507	0	0	
14	0	0	0	0	515	508	0	0	
15	0	0	0	0	513	508	0	0	
0	0	0	0	0	511	507	0	0	
1	0	0	0	0	510	507	0	0	
2	0	0	0	0	507	507	0	0	
3	0	0	0	0	510	508	0	0	
4	0	0	0	0	515	507	0	0	
5	0	0	0	0	512	509	0	0	
6	0	0	0	0	509	511	0	0	
7	0	0	0	0	512	509	0	0	
8	0	0	0	0	509	508	0	0	
9	0	0	0	0	511	509	0	0	
10	0	0	0	0	510	509	0	0	
11	0	0	0	0	505	510	0	0	
12	0	0	0	0	508	508	0	0	
13	0	0	0	0	513	510	0	0	
14	0	0	0	0	512	508	0	0	
15	0	0	0	0	512	507	0	0	
0	0	0	0	0	512	509	0	0	
1	0	0	0	0	509	506	0	0	
2	0	0	0	0	512	507	0	0	
3	0	0	0	0	514	505	0	0	
4	0	0	0	0	513	506	0	0	
5	0	0	0	0	509	509	0	0	
6	0	0	0	0	511	509	0	0	
7	0	0	0	0	512	509	0	0	
8	0	0	0	0	511	508	0	0	
9	0	0	0	0	511	508	0	0	
10	0	0	0	0	511	509	0	0	
11	0	0	0	0	510	510	0	0	
12	0	0	0	0	510	509	0	0	
13	0	0	0	0	510	508	0	0	
14	0	0	0	0	510	508	0	0	
15	0	0	0	0	512	508	0	0	
0	0	0	0	0	512	508	0	0	
1	0	0	0	0	509	510	0	0	
2	0	0	0	0	511	508	0	0	
3	0	0	0	0	510	508	0	0	
4	0	0	0	0	512	506	0	0	
5	0	0	0	0	511	509	0	0	
6	0	0	0	0	511	507	0	0	
7	0	0	0	0	508	508	0	0	
8	0	0	0	0	509	508	0	0	
9	0	0	0	0	512	508	0	0	
10	0	0	0	0	511	509	0	0	
11	0	0	0	0	512	508	0	0	
12	0	0	0	0	508	507	0	0	
13	0	0	0	0	511	508	0	0	
14	0	0	0	0	509	508	0	0	
15	0	0	0	0	512	509	0	0	
0	0	0	0	0	511	511	0	0	
1	0	0	0	0	512	509	0	0	
2	0	0	0	0	513	506	0	0	
3	0	0	0	0	512	510	0	0	
4	0	0	0	0	514	508	0	0	
5	0	0	0	0	510	508	0	0	
6	0	0	0	0	512	507	0	0	
7	0	0	0	0	511	506	0	0	
8	0	0	0	0	508	505	0	0	
9	0	0	0	0	512	509	0	0	
10	0	0	0	0	511	506	0	0	
11	0	0	0	0	510	508	0	0	
12	0	0	0	0	510	509	0	0	
13	0	0	0	0	506	508	0	0	
14	0	0	0	0	510	507	0	0	
15	0	0	0	0	511	509	0	0	
0	0	0	0	0	510	507	0	0	
1	0	0	0	0	510	508	0	0	
2	0	0	0	0	509	510	0	0	
3	0	0	0	0	511	510	0	0	
4	0	0	0	0	512	509	0	0	
5	0	0	0	0	514	510	0	0	
6	0	0	0	0	509	507	0	0	
7	0	0	0	0	510	507	0	0	
8	0	0	0	0	510	508	0	0	
9	0	0	0	0	509	510	0	0	
10	0	0	0	0	511	509	0	0	
11	0	0	0	0	515	507	0	0	
12	0	0	0	0	514	508	0	0	
13	0	0	0	0	512	507	0	0	
14	0	0	0	0	510	508	0	0	
15	0	0	0	0	510	506	0	0	
0	0	0	0	0	510	506	0	0	
1	0	0	0	0	510	508	0	0	
2	0	0	0	0	509	509	0	0	
3	0	0	0	0	511	505	0	0	
4	0	0	0	0	514	507	0	0	
5	0	0	0	0	514	507	0	0	
6	0	0	0	0	514	509	0	0	
7	0	0	0	0	510	508	0	0	
8	0	0	0	0	511	507	0	0	
9	0	0	0	0	511	509	0	0	
10	0	0	0	0	510	508	0	0	
11	0	0	0	0	510	510	0	0	
12	0	0	0	0	510	508	0	0	
13	0	0	0	0	510	509	0	0	
14	0	0	0	0	508	509	0	0	
15	0	0	0	0	510	508	0	0	
0	0	0	0	0	508	506	0	0	
1	0	0	0	0	513	506	0	0	
2	0	0	0	0	509	509	0	0	
3	0	0	0	0	510	508	0	0	
4	0	0	0	0	518	505	0	0	
5	0	0	0	0	513	506	0	0	
6	0	0	0	0	511	508	0	0	
7	0	0	0	0	511	507	0	0	
8	0	0	0	0	508	507	0	0	
9	0	0	0	0	511	508	0	0	
10	0	0	0	0	511	509	0	0	
11	0	0	0	0	509	509	0	0	
12	0	0	0	0	512	509	0	0	
13	0	0	0	0	513	509	0	0	
14	0	0	0	0	511	508	0	0	
15	0	0	0	0	510	510	0	0	
0	0	0	0	0	511	511	0	0	
1	0	0	0	0	511	507	0	0	
2	0	0	0	0	510	508	0	0	
3	0	0	0	0	510	506	0	0	
4	0	0	0	0	509	507	0	0	
5	0	0	0	0	511	508	0	0	
6	0	0	0	0	510	509	0	0	
7	0	0	0	0	509	509	0	0	
8	0	0	0	0	511	507	0	0	
9	0	0	0	0	510	507	0	0	
10	0	0	0	0	512	508	0	0	
11	0	0	0	0	512	507	0	0	
12	0	0	0	0	515	508	0	0	
13	0	0	0	0	508	508	0	0	
14	0	0	0	0	509	508	0	0	
15	0	0	0	0	511	509	0	0	
0	0	0	0	0	511	507	0	0	
1	0	0	0	0	513	509	0	0	
2	0	0	0	0	510	510	0	0	
3	0	0	0	0	508	510	0	0	
4	0	0	0	0	511	507	0	0	
5	0	0	0	0	511	509	0	0	
6	0	0	0	0	511	508	0	0	
7	0	0	0	0	513	508	0	0	
8	0	0	0	0	511	507	0	0	
9	0	0	0	0	510	507	0	0	
10	0	0	0	0	512	507	0	0	
11	0	0	0	0	511	507	0	0	
12	0	0	0	0	514	507	0	0	
13	0	0	0	0	511	506	0	0	
14	0	0	0	0	511	508	0	0	
15	0	0	0	0	511	507	0	0	
0	0	0	0	0	510	508	0	0	
1	0	0	0	0	510	507	0	0	
2	0	0	0	0	512	508	0	0	
3	0	0	0	0	511	508	0	0	
4	0	0	0	0	510	509	0	0	
5	0	0	0	0	509	508	0	0	
6	0	0	0	0	511	511	0	0	
7	0	0	0	0	513	509	0	0	
8	0	0	0	0	513	507	0	0	
9	0	0	0	0	511	507	0	0	
10	0	0	0	0	511	512	0	0	
11	0	0	0	0	512	509	0	0	
12	0	0	0	0	511	507	0	0	
13	0	0	0	0	514	508	0	0	
14	0	0	0	0	511	507	0	0	
15	0	0	0	0	509	508	0	0	
0	0	0	0	0	511	507	0	0	
1	0	0	0	0	511	508	0	0	
2	0	0	0	0	509	508	0	0	
3	0	0	0	0	510	508	0	0	
4	0	0	0	0	509	506	0	0	
5	0	0	0	0	509	508	0	0	
6	0	0	0	0	510	507	0	0	
7	0	0	0	0	511	510	0	0	
8	0	0	0	0	513	510	0	0	
9	0	0	0	0	510	509	0	0	
10	0	0	0	0	508	510	0	0	
11	0	0	0	0	514	508	0	0	
12	0	0	0	0	516	509	0	0	
13	0	0	0	0	515	508	0	0	
14	0	0	0	0	510	508	0	0	
15	0	0	0	0	507	508	0	0	
0	0	0	0	0	511	507	0	0	
1	0	0	0	0	513	508	0	0	
2	0	0	0	0	511	507	0	0	
3	0	0	0	0	511	507	0	0	
4	0	0	0	0	510	507	0	0	
5	0	0	0	0	511	508	0	0	
6	0	0	0	0	511	504	0	0	
7	0	0	0	0	512	508	0	0	
8	0	0	0	0	513	507	0	0	
9	0	0	0	0	510	508	0	0	
10	0	0	0	0	508	508	0	0	
11	0	0	0	0	511	508	0	0	
12	0	0	0	0	511	509	0	0	
13	0	0	0	0	508	508	0	0	
14	0	0	0	0	510	509	0	0	
15	0	0	0	0	511	507	0	0	
0	0	0	0	0	510	509	0	0	
1	0	0	0	0	510	509	0	0	
2	0	0	0	0	509	509	0	0	
3	0	0	0	0	511	507	0	0	
4	0	0	0	0	515	507	0	0	
5	0	0	0	0	515	509	0	0	
6	0	0	0	0	514	507	0	0	
7	0	0	0	0	512	507	0	0	
8	0	0	0	0	511	508	0	0	
9	0	0	0	0	510	506	0	0	
10	0	0	0	0	509	508	0	0	
11	0	0	0	0	512	507	0	0	
12	0	0	0	0	513	504	0	0	
13	0	0	0	0	511	507	0	0	
14	0	0	0	0	508	510	0	0	
15	0	0	0	0	509	508	0	0	
0	0	0	0	0	507	510	0	0	
1	0	0	0	0	509	509	0	0	
2	0	0	0	0	512	508	0	0	
3	0	0	0	0	513	509	0	0	
4	0	0	0	0	513	510	0	0	
5	0	0	0	0	509	508	0	0	
6	0	0	0	0	511	508	0	0	
7	0	0	0	0	512	508	0	0	
8	0	0	0	0	511	508	0	0	
9	0	0	0	0	511	508	0	0	
10	0	0	0	0	510	508	0	0	
11	0	0	0	0	508	505	0	0	
12	0	0	0	0	513	507	0	0	
13	0	0	0	0	513	506	0	0	
14	0	0	0	0	511	505	0	0	
15	0	0	0	0	512	507	0	0	
0	0	0	0	0	510	508	0	0	
1	0	0	0	0	510	510	0	0	
2	0	0	0	0	511	509	0	0	
3	0	0	0	0	511	510	0	0	
4	0	0	0	0	511	510	0	0	
5	0	0	0	0	509	508	0	0	
6	0	0	0	0	510	508	0	0	
7	0	0	0	0	513	508	0	0	
8	0	0	0	0	512	509	0	0	
9	0	0	0	0	510	509	0	0	
10	0	0	0	0	512	508	0	0	
11	0	0	0	0	514	506	0	0	
12	0	0	0	0	514	507	0	0	
13	0	0	0	0	512	506	0	0	
14	0	0	0	0	511	510	0	0	
15	0	0	0	0	510	507	0	0	
0	0	0	0	0	512	507	0	0	
1	0	0	0	0	511	507	0	0	
2	0	0	0	0	511	508	0	0	
3	0	0	0	0	511	508	0	0	
4	0	0	0	0	510	508	0	0	
5	0	0	0	0	509	508	0	0	
6	0	0	0	0	510	508	0	0	
7	0	0	0	0	512	508	0	0	
8	0	0	0	0	509	509	0	0	
9	0	0	0	0	509	507	0	0	
10	0	0	0	0	507	510	0	0	
11	0	0	0	0	507	509	0	0	
12	0	0	0	0	510	508	0	0	
13	0	0	0	0	511	510	0	0	
14	0	0	0	0	510	508	0	0	
15	0	0	0	0	513	508	0	0	
0	0	0	0	0	515	505	0	0	
1	0	0	0	0	514	506	0	0	
2	0	0	0	0	516	507	0	0	
3	0	0	0	0	515	509	0	0	
4	0	0	0	0	512	507	0	0	
5	0	0	0	0	511	507	0	0	
6	0	0	0	0	511	508	0	0	
7	0	0	0	0	511	507	0	0	
8	0	0	0	0	508	508	0	0	
9	0	0	0	0	508	508	0	0	
10	0	0	0	0	508	508	0	0	
11	0	0	0	0	511	508	0	0	
12	0	0	0	0	512	509	0	0	
13	0	0	0	0	513	510	0	0	
14	0	0	0	0	515	509	0	0	
15	0	0	0	0	511	510	0	0	
0	0	0	0	0	512	508	0	0	
1	0	0	0	0	511	508	0	0	
2	0	0	0	0	511	508	0	0	
3	0	0	0	0	510	508	0	0	
4	0	0	0	0	508	508	0	0	
5	0	0	0	0	512	507	0	0	
6	0	0	0	0	511	506	0	0	
7	0	0	0	0	507	506	0	0	
8	0	0	0	0	510	508	0	0	
9	0	0	0	0	511	506	0	0	
10	0	0	0	0	511	507	0	0	
11	0	0	0	0	509	507	0	0	
12	0	0	0	0	510	505	0	0	
13	0	0	0	0	513	509	0	0	
14	0	0	0	0	508	508	0	0	
15	0	0	0	0	511	510	0	0	
0	0	0	0	0	508	511	0	0	
1	0	0	0	0	511	509	0	0	
2	0	0	0	0	513	510	0	0	
3	0	0	0	0	514	508	0	0	
4	0	0	0	0	513	507	0	0	
5	0	0	0	0	512	507	0	0	
6	0	0	0	0	512	508	0	0	
7	0	0	0	0	514	507	0	0	
8	0	0	0	0	513	508	0	0	
9	0	0	0	0	511	507	0	0	
10	0	0	0	0	509	508	0	0	
11	0	0	0	0	508	508	0	0	
12	0	0	0	0	509	508	0	0	
13	0	0	0	0	509	505	0	0	
14	0	0	0	0	507	506	0	0	
15	0	0	0	0	509	508	0	0	
0	0	0	0	0	513	508	0	0	
1	0	0	0	0	517	507	0	0	
2	0	0	0	0	516	509	0	0	
3	0	0	0	0	510	509	0	0	
4	0	0	0	0	511	509	0	0	
5	0	0	0	0	510	509	0	0	
6	0	0	0	0	508	509	0	0	
7	0	0	0	0	510	508	0	0	
8	0	0	0	0	512	510	0	0	
9	0	0	0	0	510	511	0	0	
10	0	0	0	0	511	507	0	0	
11	0	0	0	0	512	508	0	0	
12	0	0	0	0	513	507	0	0	
13	0	0	0	0	512	506	0	0	
14	0	0	0	0	509	508	0	0	
15	0	0	0	0	512	507	0	0	
0	0	0	0	0	510	508	0	0	
1	0	0	0	0	509	507	0	0	
2	0	0	0	0	510	506	0	0	
3	0	0	0	0	511	508	0	0	
4	0	0	0	0	510	508	0	0	
5	0	0	0	0	511	505	0	0	
6	0	0	0	0	509	510	0	0	
7	0	0	0	0	507	508	0	0	
8	0	0	0	0	510	509	0	0	
9	0	0	0	0	511	507	0	0	
10	0	0	0	0	512	510	0	0	
11	0	0	0	0	510	509	0	0	
12	0	0	0	0	512	509	0	0	
13	0	0	0	0	511	507	0	0	
14	0	0	0	0	511	506	0	0	
15	0	0	0	0	515	507	0	0	
0	0	0	0	0	515	508	0	0	
1	0	0	0	0	513	508	0	0	
2	0	0	0	0	511	508	0	0	
3	0	0	0	0	509	507	0	0	
4	0	0	0	0	510	508	0	0	
5	0	0	0	0	511	507	0	0	
6	0	0	0	0	511	506	0	0	
7	0	0	0	0	511	507	0	0	
8	0	0	0	0	512	508	0	0	
9	0	0	0	0	512	510	0	0	
10	0	0	0	0	508	510	0	0	
11	0	0	0	0	511	509	0	0	
12	0	0	0	0	512	508	0	0	
13	0	0	0	0	512	511	0	0	
14	0	0	0	0	509	510	0	0	
15	0	0	0	0	508	509	0	0	
0	0	0	0	0	510	507	0	0	
1	0	0	0	0	511	508	0	0	
2	0	0	0	0	511	509	0	0	
3	0	0	0	0	511	508	0	0	
4	0	0	0	0	512	506	0	0	
5	0	0	0	0	509	507	0	0	
6	0	0	0	0	512	507	0	0	
7	0	0	0	0	512	507	0	0	
8	0	0	0	0	508	506	0	0	
9	0	0	0	0	512	507	0	0	
10	0	0	0	0	512	508	0	0	
11	0	0	0	0	514	509	0	0	
12	0	0	0	0	510	508	0	0	
13	0	0	0	0	509	509	0	0	
14	0	0	0	0	508	510	0	0	
15	0	0	0	0	511	509	0	0	
0	0	0	0	0	511	506	0	0	
1	0	0	0	0	515	509	0	0	
2	0	0	0	0	510	509	0	0	
3	0	0	0	0	511	510	0	0	
4	0	0	0	0	512	507	0	0	
5	0	0	0	0	513	508	0	0	
6	0	0	0	0	509	507	0	0	
7	0	0	0	0	508	505	0	0	
8	0	0	0	0	507	507	0	0	
9	0	0	0	0	507	509	0	0	
10	0	0	0	0	511	508	0	0	
11	0	0	0	0	512	507	0	0	
12	0	0	0	0	513	506	0	0	
13	0	0	0	0	521	506	0	0	
14	0	0	0	0	519	508	0	0	
15	0	0	0	0	520	506	0	0	
0	0	0	0	0	520	507	0	0	
1	0	0	0	0	508	507	0	0	
2	0	0	0	0	496	510	0	0	
3	0	0	0	0	485	511	0	0	
4	0	0	0	0	490	509	0	0	
5	0	0	0	0	497	509	0	0	
6	0	0	0	0	500	509	0	0	
7	0	0	0	0	501	511	0	0	
8	0	0	0	0	514	508	0	0	
9	0	0	0	0	535	508	0	0	
10	0	0	0	0	548	502	0	0	
11	0	0	0	0	536	505	0	0	
12	0	0	0	0	520	507	0	0	
13	0	0	0	0	511	509	0	0	
14	0	0	0	0	501	515	0	0	
15	0	0	0	0	499	515	0	0	
0	0	0	0	0	501	509	0	0	
1	0	0	0	0	519	507	0	0	
2	0	0	0	0	517	503	0	0	
3	0	0	0	0	511	504	0	0	
4	0	0	0	0	506	498	0	0	
5	0	0	0	0	500	503	0	0	
6	0	0	0	0	500	508	0	0	
7	0	0	0	0	496	510	0	0	
8	0	0	0	0	483	514	0	0	
9	0	0	0	0	471	516	0	0	
10	0	0	0	0	473	519	0	0	
11	0	0	0	0	476	521	0	0	
12	0	0	0	0	492	515	0	0	
13	0	0	0	0	524	504	0	0	
14	0	0	0	0	561	496	0	0	
15	0	0	0	0	604	494	0	0	
0	0	0	0	0	605	505	0	0	
1	0	0	0	0	549	524	0	0	
2	0	0	0	0	480	537	0	0	
3	0	0	0	0	446	519	0	0	
4	0	0	0	0	435	494	0	0	
5	0	0	0	0	480	495	0	0	
6	0	0	0	0	525	498	0	0	
7	0	0	0	0	562	486	0	0	
8	0	0	0	0	599	497	0	0	
9	0	0	0	0	579	524	0	0	
10	0	0	0	0	540	532	0	0	
11	0	0	0	0	521	519	0	0	
12	0	0	0	0	462	512	0	0	
13	0	0	0	0	458	504	0	0	
14	0	0	0	0	495	489	0	0	
15	0	0	0	0	509	484	0	0	
0	0	0	0	0	526	483	0	0	
1	0	0	0	0	543	476	0	0	
2	0	0	0	0	529	476	0	0	
3	0	0	0	0	485	480	0	0	
4	0	0	0	0	438	523	0	0	
5	0	0	0	0	487	561	0	0	
6	0	0	0	0	522	555	0	0	
7	0	0	0	0	479	556	0	0	
8	0	0	0	0	444	535	0	0	
9	0	0	0	0	431	500	0	0	
10	0	0	0	0	493	488	0	0	
11	0	0	0	0	497	477	0	0	
12	0	0	0	0	512	464	0	0	
13	0	0	0	0	607	470	0	0	
14	0	0	0	0	655	504	0	0	
15	0	0	0	0	587	525	16	0	
0	0	0	0	0	533	531	13	0	
1	0	0	0	0	580	519	9	0	
2	0	0	0	0	568	511	9	0	
3	0	0	0	0	501	529	35	0	
4	0	0	0	0	453	535	41	0	
5	0	0	0	0	462	521	45	0	
6	0	0	0	0	468	494	51	0	
7	0	0	0	0	498	508	52	0	
8	0	0	0	0	456	515	59	0	
9	0	0	0	0	414	503	84	0	
10	0	0	0	0	409	484	93	0	
11	0	0	0	0	449	492	107	0	
12	0	0	0	0	515	518	120	0	
13	0	0	0	0	544	524	119	0	
14	0	0	0	0	558	493	127	0	
15	0	0	0	0	591	481	131	0	
0	0	0	0	0	619	468	144	0	
1	0	0	0	0	582	496	147	0	
2	0	0	0	0	551	516	153	0	
3	0	0	0	0	604	528	162	0	
4	0	0	0	0	523	544	163	0	
5	0	0	0	0	462	530	173	0	
6	0	0	0	0	466	510	176	0	
7	0	0	0	0	486	495	181	0	
8	0	0	0	0	466	489	188	0	
9	0	0	0	0	495	494	200	0	
10	0	0	0	0	568	517	205	0	
11	0	0	0	0	586	523	204	0	
12	0	0	0	0	457	505	210	0	
13	0	0	0	0	421	473	214	0	
14	0	0	0	0	491	486	216	0	
15	0	0	0	0	496	552	226	0	
0	0	0	0	0	502	549	233	0	
1	0	0	0	0	519	499	243	0	
2	0	0	0	0	468	483	249	0	
3	0	0	0	0	434	487	263	0	
4	0	0	0	0	455	501	266	0	
5	0	0	0	0	477	500	270	0	
6	0	0	0	0	423	516	288	18	
7	0	0	0	0	455	526	310	22	
8	0	0	0	0	478	524	314	52	
9	0	0	0	0	584	519	322	56	
10	0	0	0	0	649	504	331	64	
11	0	0	0	0	556	514	346	68	
12	0	0	0	0	499	532	355	81	
13	0	0	0	0	517	529	356	92	
14	0	0	0	0	587	502	360	102	
15	0	0	0	0	544	500	368	108	
0	0	0	0	0	514	508	373	114	
1	0	0	0	0	539	513	376	116	
2	0	0	0	0	513	515	388	128	
3	0	0	0	0	545	513	394	137	
4	0	0	0	0	572	500	401	140	
5	0	0	0	0	572	483	406	153	
6	0	0	0	0	559	478	415	165	
7	0	0	0	0	520	494	428	169	
8	0	0	0	0	498	508	425	178	
9	0	0	0	0	493	499	434	186	
10	0	0	0	0	498	507	440	185	
11	0	0	0	0	449	511	450	188	
12	0	0	0	0	540	507	454	189	
13	0	0	0	0	566	517	455	188	
14	0	0	0	0	517	531	460	195	
15	0	0	0	0	488	517	462	191	
0	0	0	0	0	473	523	475	194	
1	0	0	0	0	447	526	478	195	
2	0	0	0	0	418	517	479	192	
3	0	0	0	0	347	530	484	190	
4	0	0	0	0	376	515	482	201	
5	0	0	0	0	473	481	487	202	
6	0	0	0	0	563	487	484	198	
7	0	0	0	0	568	474	486	207	
8	0	0	0	0	587	495	497	201	
9	0	0	0	0	607	517	502	208	
10	0	0	0	0	575	507	502	204	
11	0	0	0	0	565	485	504	203	
12	0	0	0	0	568	487	508	199	
13	0	0	0	0	532	497	506	195	
14	0	0	0	0	513	499	510	193	
15	0	0	0	0	532	500	510	193	
0	0	0	0	0	524	519	510	194	
1	0	0	0	0	508	539	512	196	
2	0	0	0	0	478	528	514	195	
3	0	0	0	0	470	516	514	195	
4	0	0	0	0	490	521	516	199	
5	0	0	0	0	483	529	522	197	
6	0	0	0	0	478	533	524	197	
7	0	0	0	0	496	529	528	197	
8	0	0	0	0	503	510	529	201	
9	0	0	0	0	519	506	529	203	
10	0	0	0	0	522	507	529	202	
11	0	0	0	0	494	503	531	204	
12	0	0	0	0	482	500	532	203	
13	0	0	0	0	470	490	536	206	
14	0	0	0	0	444	486	536	206	
15	0	0	0	0	502	483	536	204	
0	0	0	0	0	551	480	537	204	
1	0	0	0	0	570	487	539	205	
2	0	0	0	0	544	523	542	201	
3	0	0	0	0	519	516	542	199	
4	0	0	0	0	459	518	545	198	
5	0	0	0	0	494	501	547	203	
6	0	0	0	0	481	487	548	206	
7	0	0	0	0	528	483	548	209	
8	0	0	0	0	545	515	548	208	
9	0	0	0	0	555	550	548	209	
10	0	0	0	0	561	536	553	210	
11	0	0	0	0	568	533	551	212	
12	0	0	0	0	557	520	555	211	
13	0	0	0	0	548	513	556	209	
14	0	0	0	0	481	499	556	209	
15	0	0	0	0	466	491	556	209	
0	0	0	0	0	476	488	556	212	
1	0	0	0	0	477	483	558	214	
2	0	0	0	0	476	490	560	214	
3	0	0	0	0	490	497	561	214	
4	0	0	0	0	464	512	562	215	
5	0	0	0	0	491	520	564	216	
6	0	0	0	0	494	515	566	217	
7	0	0	0	0	506	514	567	217	
8	0	0	0	0	553	525	567	216	
9	0	0	0	0	579	526	567	216	
10	0	0	0	0	489	514	567	216	
11	0	0	0	0	461	515	568	217	
12	0	0	0	0	466	517	570	218	
13	0	0	0	0	503	508	572	219	
14	0	0	0	0	563	496	574	218	
15	0	0	0	0	622	491	575	218	
0	0	0	0	0	577	495	577	218	
1	0	0	0	0	529	501	577	219	
2	0	0	0	0	533	508	578	219	
3	0	0	0	0	566	513	579	218	
4	0	0	0	0	585	513	579	216	
5	0	0	0	0	511	516	580	216	
6	0	0	0	0	493	524	580	215	
7	0	0	0	0	485	516	581	215	
8	0	0	0	0	484	506	582	214	
9	0	0	0	0	472	496	583	215	
10	0	0	0	0	453	500	585	214	
11	0	0	0	0	485	491	585	215	
12	0	0	0	0	499	487	585	214	
13	0	0	0	0	505	497	586	215	
14	0	0	0	0	530	519	586	216	
15	0	0	0	0	505	548	587	216	
0	0	0	0	0	476	528	588	215	
1	0	0	0	0	468	513	587	216	
2	0	0	0	0	458	523	587	216	
3	0	0	0	0	480	514	587	216	
4	0	0	0	0	516	504	587	216	
5	0	0	0	0	498	488	588	217	
6	0	0	0	0	516	492	588	218	
7	0	0	0	0	529	501	588	216	
8	0	0	0	0	529	501	588	217	
9	0	0	0	0	516	485	588	218	
10	0	0	0	0	515	505	589	216	
11	0	0	0	0	527	516	590	216	
12	0	0	0	0	525	517	590	217	
13	0	0	0	0	487	520	590	216	
14	0	0	0	0	514	509	591	217	
15	0	0	0	0	531	510	591	217	
0	0	0	0	0	511	519	592	216	
1	0	0	0	0	547	517	591	217	
2	0	0	0	0	536	519	592	217	
3	0	0	0	0	515	516	592	216	
4	0	0	0	0	522	511	592	216	
5	0	0	0	0	508	505	592	215	
6	0	0	0	0	499	503	592	215	
7	0	0	0	0	499	489	592	215	
8	0	0	0	0	505	486	592	212	
9	0	0	0	0	508	487	593	212	
10	0	0	0	0	499	499	593	212	
11	0	0	0	0	471	504	594	210	
12	0	0	0	0	483	505	593	209	
13	0	0	0	0	484	507	594	207	
14	0	0	0	0	465	506	594	208	
15	0	0	0	0	481	508	593	206	
0	0	0	0	0	509	507	593	206	
1	0	0	0	0	498	505	592	206	
2	0	0	0	0	546	512	592	204	
3	0	0	0	0	581	526	592	205	
4	0	0	0	0	558	524	592	204	
5	0	0	0	0	539	521	591	204	
6	0	0	0	0	547	513	591	203	
7	0	0	0	0	548	511	591	201	
8	0	0	0	0	515	508	591	201	
9	0	0	0	0	520	515	590	201	
10	0	0	0	0	500	503	590	199	
11	0	0	0	0	477	511	591	198	
12	0	0	0	0	475	532	591	197	
13	0	0	0	0	497	522	591	197	
14	0	0	0	0	531	499	590	195	
15	0	0	0	0	459	497	590	194	
0	0	0	0	0	470	494	590	193	
1	0	0	0	0	502	493	589	192	
2	0	0	0	0	512	494	589	193	
3	0	0	0	0	535	492	589	192	
4	0	0	0	0	566	489	589	192	
5	0	0	0	0	548	502	590	191	
6	0	0	0	0	493	516	589	191	
7	0	0	0	0	473	517	589	191	
8	0	0	0	0	526	519	588	192	
9	0	0	0	0	545	524	589	191	
10	0	0	0	0	585	517	589	191	
11	0	0	0	0	564	512	589	189	
12	0	0	0	0	472	513	589	192	
13	0	0	0	0	487	510	590	193	
14	0	0	0	0	411	510	589	192	
15	0	0	0	0	398	508	589	191	
0	0	0	0	0	419	506	589	192	
1	0	0	0	0	469	505	588	192	
2	0	0	0	0	517	502	587	193	
3	0	0	0	0	615	501	588	192	
4	0	0	0	0	695	496	587	192	
5	0	0	0	0	614	499	586	192	
6	0	0	0	0	542	508	586	192	
7	0	0	0	0	497	519	586	192	
8	0	0	0	0	495	511	587	193	
9	0	0	0	0	475	517	587	194	
10	0	0	0	0	476	509	587	195	
11	0	0	0	0	512	513	587	195	
12	0	0	0	0	499	512	586	194	
13	0	0	0	0	475	503	586	195	
14	0	0	0	0	484	501	586	195	
15	0	0	0	0	457	504	585	196	
0	0	0	0	0	530	531	586	196	
1	0	0	0	0	575	495	585	197	
2	0	0	0	0	547	496	585	198	
3	0	0	0	0	526	514	585	197	
4	0	0	0	0	497	520	586	198	
5	0	0	0	0	495	504	586	198	
6	0	0	0	0	537	502	587	198	
7	0	0	0	0	508	506	587	198	
8	0	0	0	0	523	514	587	198	
9	0	0	0	0	551	513	586	198	
10	0	0	0	0	497	509	587	197	
11	0	0	0	0	473	500	588	198	
12	0	0	0	0	492	493	588	198	
13	0	0	0	0	498	502	589	197	
14	0	0	0	0	509	494	588	198	
15	0	0	0	0	500	507	588	198	
0	0	0	0	0	508	512	588	198	
1	0	0	0	0	493	508	588	198	
2	0	0	0	0	499	512	588	198	
3	0	0	0	0	503	516	588	199	
4	0	0	0	0	504	524	588	198	
5	0	0	0	0	507	524	589	199	
6	0	0	0	0	516	523	589	199	
7	0	0	0	0	513	526	589	201	
8	0	0	0	0	511	527	590	199	
9	0	0	0	0	502	517	591	198	
10	0	0	0	0	506	504	591	199	
11	0	0	0	0	509	483	591	200	
12	0	0	0	0	515	470	591	200	
13	0	0	0	0	515	464	591	199	
14	0	0	0	0	522	471	591	200	
15	0	0	0	0	519	487	591	201	
0	0	0	0	0	513	508	591	200	
1	0	0	0	0	507	513	592	201	
2	0	0	0	0	497	530	592	199	
3	0	0	0	0	497	545	592	201	
4	0	0	0	0	488	533	592	199	
5	0	0	0	0	473	534	592	201	
6	0	0	0	0	468	529	592	201	
7	0	0	0	0	460	514	592	202	
8	0	0	0	0	475	504	592	200	
9	0	0	0	0	517	497	592	201	
10	0	0	0	0	571	485	593	200	
11	0	0	0	0	636	481	593	201	
12	0	0	0	0	589	492	592	201	
13	0	0	0	0	543	493	593	202	
14	0	0	0	0	526	489	592	201	
15	0	0	0	0	503	505	592	200	
0	0	0	0	0	445	526	592	203	
1	0	0	0	0	447	528	593	201	
2	0	0	0	0	448	513	593	203	
3	0	0	0	0	456	505	593	201	
4	0	0	0	0	511	508	593	203	
5	0	0	0	0	589	525	593	202	
6	0	0	0	0	613	519	593	201	
7	0	0	0	0	573	512	593	202	
8	0	0	0	0	579	506	593	201	
9	0	0	0	0	574	511	593	202	
10	0	0	0	0	551	515	594	203	
11	0	0	0	0	483	514	593	201	
12	0	0	0	0	473	504	593	203	
13	0	0	0	0	508	494	593	203	
14	0	0	0	0	452	522	593	203	
15	0	0	0	0	477	515	593	204	
0	0	0	0	0	496	497	593	204	
1	0	0	0	0	446	495	593	205	
2	0	0	0	0	434	502	592	205	
3	0	0	0	0	435	510	592	205	
4	0	0	0	0	440	505	592	206	
5	0	0	0	0	498	507	592	206	
6	0	0	0	0	584	511	592	207	
7	0	0	0	0	553	515	592	205	
8	0	0	0	0	481	518	592	206	
9	0	0	0	0	521	510	592	205	
10	0	0	0	0	492	508	592	205	
11	0	0	0	0	513	508	592	206	
12	0	0	0	0	620	512	592	205	
13	0	0	0	0	695	503	592	204	
14	0	0	0	0	608	497	592	204	
15	0	0	0	0	524	496	592	204	
0	0	0	0	0	491	507	593	204	
1	0	0	0	0	481	518	592	205	
2	0	0	0	0	504	517	592	204	
3	0	0	0	0	495	512	592	205	
4	0	0	0	0	478	506	593	205	
5	0	0	0	0	435	502	593	205	
6	0	0	0	0	448	505	593	204	
7	0	0	0	0	462	512	593	204	
8	0	0	0	0	518	509	593	204	
9	0	0	0	0	559	511	593	203	
10	0	0	0	0	527	507	592	204	
11	0	0	0	0	550	507	592	205	
12	0	0	0	0	548	508	592	204	
13	0	0	0	0	499	511	592	204	
14	0	0	0	0	479	510	592	203	
15	0	0	0	0	505	509	592	203	
0	0	0	0	0	491	508	592	204	
1	0	0	0	0	499	507	592	204	
2	0	0	0	0	489	505	593	204	
3	0	0	0	0	501	503	593	204	
4	0	0	0	0	500	509	592	203	
5	0	0	0	0	495	515	592	202	
6	0	0	0	0	489	514	592	203	
7	0	0	0	0	499	514	592	202	
8	0	0	0	0	507	502	592	202	
9	0	0	0	0	527	496	592	201	
10	0	0	0	0	539	494	592	202	
11	0	0	0	0	526	503	592	201	
12	0	0	0	0	516	520	592	201	
13	0	0	0	0	496	512	592	201	
14	0	0	0	0	497	514	593	201	
15	0	0	0	0	505	518	593	201	
0	0	0	0	0	508	518	592	200	
1	0	0	0	0	533	513	593	199	
2	0	0	0	0	527	507	592	199	
3	0	0	0	0	526	503	592	199	
4	0	0	0	0	531	492	592	198	
5	0	0	0	0	498	486	592	197	
6	0	0	0	0	466	494	592	195	
7	0	0	0	0	483	505	592	196	
8	0	0	0	0	503	504	592	195	
9	0	0	0	0	514	512	592	194	
10	0	0	0	0	529	525	592	194	
11	0	0	0	0	534	527	591	192	
12	0	0	0	0	525	520	591	189	
13	0	0	0	0	535	512	591	186	
14	0	0	0	0	527	510	591	182	
15	0	0	0	0	507	502	591	179	
0	0	0	0	0	494	495	591	175	
1	0	0	0	0	463	484	591	169	
2	0	0	0	0	428	489	592	167	
3	0	0	0	0	439	502	591	165	
4	0	0	0	0	512	518	592	163	
5	0	0	0	0	560	522	591	163	
6	0	0	0	0	583	520	591	162	
7	0	0	0	0	615	504	591	159	
8	0	0	0	0	543	499	591	158	
9	0	0	0	0	470	502	591	157	
10	0	0	0	0	488	504	591	154	
11	0	0	0	0	534	508	591	151	
12	0	0	0	0	554	524	591	147	
13	0	0	0	0	540	519	591	145	
14	0	0	0	0	531	516	590	144	
15	0	0	0	0	504	510	590	140	
0	0	0	0	0	489	506	590	136	
1	0	0	0	0	486	508	590	133	
2	0	0	0	0	530	507	589	127	
3	0	0	0	0	541	509	589	123	
4	0	0	0	0	498	511	588	124	
5	0	0	0	0	516	503	588	127	
6	0	0	0	0	481	516	588	128	
7	0	0	0	0	470	512	588	129	
8	0	0	0	0	478	506	588	128	
9	0	0	0	0	531	507	587	129	
10	0	0	0	0	537	507	587	126	
11	0	0	0	0	532	507	587	125	
12	0	0	0	0	474	513	587	126	
13	0	0	0	0	503	513	586	126	
14	0	0	0	0	470	510	586	126	
15	0	0	0	0	412	510	586	128	
0	0	0	0	0	482	504	584	128	
1	0	0	0	0	446	503	584	128	
2	0	0	0	0	481	506	584	128	
3	0	0	0	0	548	504	584	127	
4	0	0	0	0	570	503	584	128	
5	0	0	0	0	562	502	584	127	
6	0	0	0	0	569	506	584	128	
7	0	0	0	0	573	513	585	127	
8	0	0	0	0	596	506	584	125	
9	0	0	0	0	561	509	585	127	
10	0	0	0	0	496	508	584	126	
11	0	0	0	0	454	511	583	127	
12	0	0	0	0	518	503	583	127	
13	0	0	0	0	512	504	583	127	
14	0	0	0	0	502	509	583	127	
15	0	0	0	0	521	508	582	129	
0	0	0	0	0	506	513	583	128	
1	0	0	0	0	488	519	583	129	
2	0	0	0	0	509	516	582	128	
3	0	0	0	0	538	515	582	129	
4	0	0	0	0	530	508	582	130	
5	0	0	0	0	504	505	581	131	
6	0	0	0	0	497	511	580	131	
7	0	0	0	0	460	508	580	131	
8	0	0	0	0	439	497	581	130	
9	0	0	0	0	484	486	580	131	
10	0	0	0	0	533	486	580	131	
11	0	0	0	0	534	502	580	130	
12	0	0	0	0	519	519	579	129	
13	0	0	0	0	518	526	580	129	
14	0	0	0	0	517	524	580	129	
15	0	0	0	0	526	513	580	129	
0	0	0	0	0	531	518	580	129	
1	0	0	0	0	521	526	579	130	
2	0	0	0	0	504	515	579	129	
3	0	0	0	0	500	500	579	132	
4	0	0	0	0	502	480	579	133	
5	0	0	0	0	493	485	579	132	
6	0	0	0	0	500	490	579	132	
7	0	0	0	0	514	498	579	133	
8	0	0	0	0	508	507	579	133	
9	0	0	0	0	508	513	580	133	
10	0	0	0	0	513	515	580	133	
11	0	0	0	0	516	517	580	132	
12	0	0	0	0	512	518	580	134	
13	0	0	0	0	508	516	580	133	
14	0	0	0	0	493	523	581	134	
15	0	0	0	0	484	525	580	135	
0	0	0	0	0	497	520	580	135	
1	0	0	0	0	510	515	580	137	
2	0	0	0	0	509	514	580	136	
3	0	0	0	0	492	505	581	138	
4	0	0	0	0	481	493	581	138	
5	0	0	0	0	473	483	581	137	
6	0	0	0	0	522	478	581	136	
7	0	0	0	0	551	486	581	136	
8	0	0	0	0	583	494	581	135	
9	0	0	0	0	581	503	581	135	
10	0	0	0	0	540	521	582	135	
11	0	0	0	0	508	527	582	135	
12	0	0	0	0	519	512	582	135	
13	0	0	0	0	530	516	582	134	
14	0	0	0	0	503	510	582	133	
15	0	0	0	0	473	507	582	133	
0	0	0	0	0	478	511	582	132	
1	0	0	0	0	471	516	582	130	
2	0	0	0	0	480	515	582	130	
3	0	0	0	0	482	505	582	128	
4	0	0	0	0	508	495	582	125	
5	0	0	0	0	525	501	582	124	
6	0	0	0	0	539	506	582	121	
7	0	0	0	0	473	520	581	119	
8	0	0	0	0	513	522	581	119	
9	0	0	0	0	539	514	581	117	
10	0	0	0	0	541	507	581	117	
11	0	0	0	0	548	508	581	116	
12	0	0	0	0	544	507	581	115	
13	0	0	0	0	504	509	580	113	
14	0	0	0	0	493	509	581	113	
15	0	0	0	0	537	503	580	115	
0	0	0	0	0	560	498	580	113	
1	0	0	0	0	538	504	580	114	
2	0	0	0	0	529	507	580	113	
3	0	0	0	0	476	510	579	113	
4	0	0	0	0	470	509	579	111	
5	0	0	0	0	476	505	579	109	
6	0	0	0	0	460	506	579	107	
7	0	0	0	0	498	507	579	104	
8	0	0	0	0	491	511	578	104	
9	0	0	0	0	489	513	577	105	
10	0	0	0	0	513	510	577	104	
11	0	0	0	0	529	505	577	103	
12	0	0	0	0	562	499	576	105	
13	0	0	0	0	527	510	577	103	
14	0	0	0	0	521	503	577	104	
15	0	0	0	0	519	511	577	104	
0	0	0	0	0	482	515	577	103	
1	0	0	0	0	434	516	577	103	
2	0	0	0	0	487	514	577	103	
3	0	0	0	0	560	512	577	101	
4	0	0	0	0	551	502	578	101	
5	0	0	0	0	543	501	577	100	
6	0	0	0	0	504	503	578	100	
7	0	0	0	0	534	508	577	99	
8	0	0	0	0	509	512	577	99	
9	0	0	0	0	487	514	577	99	
10	0	0	0	0	492	509	577	99	
11	0	0	0	0	527	505	578	100	
12	0	0	0	0	529	511	577	99	
13	0	0	0	0	512	519	577	98	
14	0	0	0	0	484	513	577	98	
15	0	0	0	0	528	498	576	98	
0	0	0	0	0	535	493	577	98	
1	0	0	0	0	481	501	577	99	
2	0	0	0	0	476	498	577	100	
3	0	0	0	0	481	486	576	100	
4	0	0	0	0	511	507	576	101	
5	0	0	0	0	525	514	576	100	
6	0	0	0	0	566	517	576	100	
7	0	0	0	0	551	513	576	99	
8	0	0	0	0	508	504	576	100	
9	0	0	0	0	500	512	576	99	
10	0	0	0	0	498	510	576	100	
11	0	0	0	0	515	513	576	99	
12	0	0	0	0	546	498	576	100	
13	0	0	0	0	539	520	576	104	
14	0	0	0	0	515	528	575	107	
15	0	0	0	0	501	515	575	109	
0	0	0	0	0	493	502	575	108	
1	0	0	0	0	468	505	576	107	
2	0	0	0	0	463	511	575	108	
3	0	0	0	0	477	514	576	111	
4	0	0	0	0	468	507	576	111	
5	0	0	0	0	490	510	576	112	
6	0	0	0	0	517	516	576	112	
7	0	0	0	0	553	513	575	113	
8	0	0	0	0	566	497	576	113	
9	0	0	0	0	542	495	575	113	
10	0	0	0	0	516	500	575	113	
11	0	0	0	0	478	508	575	111	
12	0	0	0	0	481	504	575	111	
13	0	0	0	0	466	505	575	110	
14	0	0	0	0	446	505	575	109	
15	0	0	0	0	510	509	576	109	
0	0	0	0	0	575	507	576	110	
1	0	0	0	0	585	508	576	108	
2	0	0	0	0	568	514	576	105	
3	0	0	0	0	519	516	577	103	
4	0	0	0	0	512	505	577	100	
5	0	0	0	0	511	505	577	98	
6	0	0	0	0	508	506	576	94	
7	0	0	0	0	522	508	576	95	
8	0	0	0	0	517	502	575	95	
9	0	0	0	0	489	499	575	91	
10	0	0	0	0	482	498	575	91	
11	0	0	0	0	496	508	576	89	
12	0	0	0	0	527	513	575	89	
13	0	0	0	0	531	512	575	87	
14	0	0	0	0	462	519	575	87	
15	0	0	0	0	448	516	575	87	
0	0	0	0	0	487	509	575	88	
1	0	0	0	0	522	501	575	88	
2	0	0	0	0	536	504	575	88	
3	0	0	0	0	526	518	574	89	
4	0	0	0	0	523	527	575	89	
5	0	0	0	0	505	528	575	89	
6	0	0	0	0	495	509	574	91	
7	0	0	0	0	527	500	574	91	
8	0	0	0	0	523	503	574	89	
9	0	0	0	0	500	499	574	90	
10	0	0	0	0	452	515	574	89	
11	0	0	0	0	473	512	574	89	
12	0	0	0	0	535	505	573	88	
13	0	0	0	0	612	505	573	87	
14	0	0	0	0	612	502	573	87	
15	0	0	0	0	565	499	573	87	
0	0	0	0	0	542	489	573	85	
1	0	0	0	0	484	496	574	83	
2	0	0	0	0	473	497	574	78	
3	0	0	0	0	493	494	574	76	
4	0	0	0	0	476	503	573	72	
5	0	0	0	0	465	520	573	72	
6	0	0	0	0	481	525	573	71	
7	0	0	0	0	511	521	573	68	
8	0	0	0	0	515	516	573	66	
9	0	0	0	0	505	515	573	66	
10	0	0	0	0	530	509	573	65	
11	0	0	0	0	538	510	572	62	
12	0	0	0	0	536	515	572	61	
13	0	0	0	0	503	519	572	62	
14	0	0	0	0	503	503	572	59	
15	0	0	0	0	500	496	572	59	
0	0	0	0	0	496	495	572	58	
1	0	0	0	0	438	515	571	59	
2	0	0	0	0	464	514	572	58	
3	0	0	0	0	466	513	571	56	
4	0	0	0	0	496	510	571	56	
5	0	0	0	0	572	509	571	55	
6	0	0	0	0	617	510	571	55	
7	0	0	0	0	574	504	571	55	
8	0	0	0	0	526	511	571	55	
9	0	0	0	0	505	510	571	55	
10	0	0	0	0	496	502	571	54	
11	0	0	0	0	493	500	572	54	
12	0	0	0	0	488	508	571	53	
13	0	0	0	0	499	513	571	52	
14	0	0	0	0	544	505	572	52	
15	0	0	0	0	534	504	572	51	
0	0	0	0	0	537	502	572	50	
1	0	0	0	0	513	496	572	51	
2	0	0	0	0	515	507	573	51	
3	0	0	0	0	541	511	573	51	
4	0	0	0	0	513	514	573	49	
5	0	0	0	0	501	516	573	47	
6	0	0	0	0	467	510	573	47	
7	0	0	0	0	472	514	573	46	
8	0	0	0	0	488	510	573	45	
9	0	0	0	0	507	506	572	44	
10	0	0	0	0	484	504	573	42	
11	0	0	0	0	486	495	573	42	
12	0	0	0	0	509	503	573	42	
13	0	0	0	0	514	544	573	41	
14	0	0	0	0	511	551	574	42	
15	0	0	0	0	539	525	574	42	
0	0	0	0	0	539	513	574	39	
1	0	0	0	0	534	496	574	40	
2	0	0	0	0	524	486	574	40	
3	0	0	0	0	499	496	574	39	
4	0	0	0	0	504	482	574	40	
5	0	0	0	0	483	477	575	40	
6	0	0	0	0	473	473	575	41	
7	0	0	0	0	482	484	575	39	
8	0	0	0	0	484	506	575	35	
9	0	0	0	0	481	517	575	30	
10	0	0	0	0	494	520	575	29	
11	0	0	0	0	524	524	575	28	
12	0	0	0	0	535	530	575	28	
13	0	0	0	0	499	518	575	27	
14	0	0	0	0	528	516	575	27	
15	0	0	0	0	568	515	575	26	
0	0	0	0	0	536	509	575	25	
1	0	0	0	0	529	509	576	24	
2	0	0	0	0	512	506	576	24	
3	0	0	0	0	527	516	576	24	
4	0	0	0	0	573	507	576	19	
5	0	0	0	0	564	497	575	19	
6	0	0	0	0	516	486	576	0	
7	0	0	0	0	507	506	576	0	
8	0	0	0	0	487	515	576	0	
9	0	0	0	0	470	510	576	0	
10	0	0	0	0	466	509	576	0	
11	0	0	0	0	496	510	576	0	
12	0	0	0	0	512	508	576	0	
13	0	0	0	0	547	504	576	0	
14	0	0	0	0	554	508	576	0	
15	0	0	0	0	511	501	576	2	
0	0	0	0	0	462	504	576	8	
1	0	0	0	0	472	506	576	8	
2	0	0	0	0	483	513	577	15	
3	0	0	0	0	517	524	577	21	
4	0	0	0	0	535	508	577	25	
5	0	0	0	0	504	505	577	27	
6	0	0	0	0	454	517	577	29	
7	0	0	0	0	482	526	577	30	
8	0	0	0	0	533	515	577	31	
9	0	0	0	0	503	509	578	32	
10	0	0	0	0	532	511	578	35	
11	0	0	0	0	519	507	577	37	
12	0	0	0	0	499	511	577	40	
13	0	0	0	0	570	503	578	44	
14	0	0	0	0	578	505	577	45	
15	0	0	0	0	564	504	578	47	
0	0	0	0	0	478	515	577	49	
1	0	0	0	0	442	510	577	51	
2	0	0	0	0	465	496	578	50	
3	0	0	0	0	505	498	578	50	
4	0	0	0	0	536	499	577	52	
5	0	0	0	0	561	500	578	51	
6	0	0	0	0	571	504	578	52	
7	0	0	0	0	561	503	578	52	
8	0	0	0	0	532	506	577	51	
9	0	0	0	0	499	514	577	53	
10	0	0	0	0	490	521	578	52	
11	0	0	0	0	500	518	577	52	
12	0	0	0	0	518	515	577	54	
13	0	0	0	0	529	517	577	53	
14	0	0	0	0	479	507	577	53	
15	0	0	0	0	441	503	577	52	
0	0	0	0	0	456	509	577	52	
1	0	0	0	0	474	507	577	52	
2	0	0	0	0	483	505	577	52	
3	0	0	0	0	496	501	577	53	
4	0	0	0	0	559	492	577	51	
5	0	0	0	0	567	495	577	52	
6	0	0	0	0	515	500	577	51	
7	0	0	0	0	468	504	577	50	
8	0	0	0	0	480	518	577	48	
9	0	0	0	0	507	523	576	48	
10	0	0	0	0	533	515	577	48	
11	0	0	0	0	537	504	577	48	
12	0	0	0	0	526	513	577	38	
13	0	0	0	0	534	509	577	27	
14	0	0	0	0	502	511	577	23	
15	0	0	0	0	509	508	577	17	
0	0	0	0	0	502	507	577	10	
1	0	0	0	0	496	508	578	8	
2	0	0	0	0	474	510	577	0	
3	0	0	0	0	482	503	578	0	
4	0	0	0	0	525	510	577	0	
5	0	0	0	0	515	512	577	0	
6	0	0	0	0	512	514	577	0	
7	0	0	0	0	516	515	577	0	
8	0	0	0	0	483	509	577	0	
9	0	0	0	0	517	505	578	0	
10	0	0	0	0	531	514	577	0	
11	0	0	0	0	520	516	577	0	
12	0	0	0	0	531	507	577	0	
13	0	0	0	0	548	495	577	0	
14	0	0	0	0	522	509	577	0	
15	0	0	0	0	486	516	577	0	
0	0	0	0	0	526	501	577	0	
1	0	0	0	0	525	491	576	0	
2	0	0	0	0	516	503	577	0	
3	0	0	0	0	495	504	577	0	
4	0	0	0	0	491	510	577	0	
5	0	0	0	0	523	514	577	0	
6	0	0	0	0	510	512	577	0	
7	0	0	0	0	527	506	577	0	
8	0	0	0	0	515	505	577	0	
9	0	0	0	0	508	503	577	0	
10	0	0	0	0	503	501	577	0	
11	0	0	0	0	480	506	577	0	
12	0	0	0	0	541	502	577	0	
13	0	0	0	0	548	502	578	0	
14	0	0	0	0	480	508	577	0	
15	0	0	0	0	438	507	576	0	
0	0	0	0	0	429	518	577	0	
1	0	0	0	0	462	518	576	0	
2	0	0	0	0	499	523	576	0	
3	0	0	0	0	548	516	577	0	
4	0	0	0	0	570	508	577	0	
5	0	0	0	0	625	501	577	0	
6	0	0	0	0	648	497	576	0	
7	0	0	0	0	552	508	576	0	
8	0	0	0	0	459	508	576	0	
9	0	0	0	0	458	508	577	0	
10	0	0	0	0	476	512	576	0	
11	0	0	0	0	483	499	576	0	
12	0	0	0	0	499	511	577	0	
13	0	0	0	0	521	510	577	0	
14	0	0	0	0	497	502	575	0	
15	0	0	0	0	569	508	576	0	
0	0	0	0	0	579	512	577	0	
1	0	0	0	0	506	515	577	0	
2	0	0	0	0	487	513	577	0	
3	0	0	0	0	481	507	576	0	
4	0	0	0	0	480	507	577	0	
5	0	0	0	0	496	511	577	0	
6	0	0	0	0	509	519	577	0	
7	0	0	0	0	484	519	577	0	
8	0	0	0	0	491	500	577	0	
9	0	0	0	0	506	505	577	0	
10	0	0	0	0	505	511	577	0	
11	0	0	0	0	503	516	578	0	
12	0	0	0	0	508	505	577	0	
13	0	0	0	0	542	477	577	0	
14	0	0	0	0	539	488	578	0	
15	0	0	0	0	503	507	578	0	
0	0	0	0	0	467	512	578	0	
1	0	0	0	0	489	521	578	0	
2	0	0	0	0	494	518	578	0	
3	0	0	0	0	506	508	577	0	
4	0	0	0	0	539	511	577	0	
5	0	0	0	0	526	510	578	0	
6	0	0	0	0	549	510	578	0	
7	0	0	0	0	529	508	578	0	
8	0	0	0	0	484	517	578	0	
9	0	0	0	0	461	506	579	0	
10	0	0	0	0	514	498	579	0	
11	0	0	0	0	555	499	578	0	
12	0	0	0	0	514	505	579	0	
13	0	0	0	0	534	504	579	0	
14	0	0	0	0	529	512	579	0	
15	0	0	0	0	510	509	579	0	
0	0	0	0	0	502	500	579	0	
1	0	0	0	0	494	501	579	0	
2	0	0	0	0	503	504	579	0	
3	0	0	0	0	512	510	578	0	
4	0	0	0	0	502	516	578	0	
5	0	0	0	0	492	517	578	0	
6	0	0	0	0	501	515	578	0	
7	0	0	0	0	478	518	578	0	
8	0	0	0	0	443	519	578	0	
9	0	0	0	0	448	516	577	0	
10	0	0	0	0	484	510	577	0	
11	0	0	0	0	549	508	577	0	
12	0	0	0	0	527	511	577	0	
13	0	0	0	0	574	496	577	0	
14	0	0	0	0	572	493	577	0	
15	0	0	0	0	547	508	577	0	
0	0	0	0	0	527	514	577	0	
1	0	0	0	0	512	513	576	0	
2	0	0	0	0	507	507	576	0	
3	0	0	0	0	499	511	577	0	
4	0	0	0	0	539	513	575	0	
5	0	0	0	0	567	518	576	0	
6	0	0	0	0	516	504	576	0	
7	0	0	0	0	508	494	575	0	
8	0	0	0	0	491	499	575	0	
9	0	0	0	0	528	495	575	0	
10	0	0	0	0	528	491	575	0	
11	0	0	0	0	509	492	575	0	
12	0	0	0	0	482	512	575	0	
13	0	0	0	0	495	528	575	0	
14	0	0	0	0	504	530	575	0	
15	0	0	0	0	493	523	575	0	
0	0	0	0	0	473	514	575	0	
1	0	0	0	0	475	508	575	0	
2	0	0	0	0	463	504	575	0	
3	0	0	0	0	475	505	575	0	
4	0	0	0	0	469	499	575	0	
5	0	0	0	0	527	488	575	0	
6	0	0	0	0	555	496	575	0	
7	0	0	0	0	592	503	575	0	
8	0	0	0	0	590	511	575	0	
9	0	0	0	0	555	519	575	0	
10	0	0	0	0	514	519	576	0	
11	0	0	0	0	514	513	575	0	
12	0	0	0	0	473	505	575	0	
13	0	0	0	0	443	504	575	0	
14	0	0	0	0	445	507	575	0	
15	0	0	0	0	465	508	575	0	
0	0	0	0	0	554	503	575	0	
1	0	0	0	0	639	499	575	0	
2	0	0	0	0	613	505	575	0	
3	0	0	0	0	538	503	575	0	
4	0	0	0	0	496	506	575	0	
5	0	0	0	0	485	518	575	0	
6	0	0	0	0	501	523	575	0	
7	0	0	0	0	499	510	575	0	
8	0	0	0	0	496	507	575	0	
9	0	0	0	0	479	512	575	0	
10	0	0	0	0	464	529	575	0	
11	0	0	0	0	464	527	575	0	
12	0	0	0	0	474	499	575	0	
13	0	0	0	0	477	487	575	0	
14	0	0	0	0	490	497	575	0	
15	0	0	0	0	560	506	575	0	
0	0	0	0	0	592	505	575	0	
1	0	0	0	0	547	511	576	0	
2	0	0	0	0	527	509	576	0	
3	0	0	0	0	507	503	575	0	
4	0	0	0	0	439	504	575	0	
5	0	0	0	0	440	497	575	0	
6	0	0	0	0	479	505	575	0	
7	0	0	0	0	531	517	576	0	
8	0	0	0	0	569	522	576	0	
9	0	0	0	0	506	515	575	0	
10	0	0	0	0	470	512	575	0	
11	0	0	0	0	502	519	575	0	
12	0	0	0	0	561	508	575	0	
13	0	0	0	0	571	504	576	0	
14	0	0	0	0	539	502	575	0	
15	0	0	0	0	540	497	576	0	
0	0	0	0	0	529	501	575	0	
1	0	0	0	0	513	505	576	0	
2	0	0	0	0	502	502	576	0	
3	0	0	0	0	458	506	577	0	
4	0	0	0	0	473	513	576	0	
5	0	0	0	0	507	513	576	0	
6	0	0	0	0	491	511	576	0	
7	0	0	0	0	510	517	576	0	
8	0	0	0	0	516	516	576	0	
9	0	0	0	0	490	514	576	0	
10	0	0	0	0	510	503	576	0	
11	0	0	0	0	496	499	575	0	
12	0	0	0	0	485	497	576	0	
13	0	0	0	0	493	498	575	0	
14	0	0	0	0	546	498	575	0	
15	0	0	0	0	542	508	576	0	
0	0	0	0	0	520	518	576	0	
1	0	0	0	0	511	523	575	0	
2	0	0	0	0	497	513	575	0	
3	0	0	0	0	491	509	575	0	
4	0	0	0	0	528	498	575	0	
5	0	0	0	0	542	487	575	0	
6	0	0	0	0	564	487	575	0	
7	0	0	0	0	557	489	575	0	
8	0	0	0	0	537	514	575	0	
9	0	0	0	0	547	522	575	0	
10	0	0	0	0	501	519	575	0	
11	0	0	0	0	487	523	575	0	
12	0	0	0	0	521	519	574	0	
13	0	0	0	0	508	517	574	0	
14	0	0	0	0	450	518	574	0	
15	0	0	0	0	451	509	574	0	
0	0	0	0	0	461	505	574	0	
1	0	0	0	0	483	506	574	0	
2	0	0	0	0	522	507	574	0	
3	0	0	0	0	539	513	574	0	
4	0	0	0	0	537	504	574	0	
5	0	0	0	0	513	509	574	0	
6	0	0	0	0	483	516	573	0	
7	0	0	0	0	467	501	573	0	
8	0	0	0	0	505	498	573	0	
9	0	0	0	0	485	502	573	0	
10	0	0	0	0	487	494	573	0	
11	0	0	0	0	569	488	573	0	
12	0	0	0	0	596	500	573	0	
13	0	0	0	0	615	514	574	0	
14	0	0	0	0	547	509	573	0	
15	0	0	0	0	502	509	574	0	
0	0	0	0	0	480	512	574	0	
1	0	0	0	0	479	524	574	0	
2	0	0	0	0	501	526	574	0	
3	0	0	0	0	558	523	574	0	
4	0	0	0	0	542	525	574	0	
5	0	0	0	0	490	524	573	0	
6	0	0	0	0	463	512	573	0	
7	0	0	0	0	443	504	574	0	
8	0	0	0	0	451	499	574	0	
9	0	0	0	0	476	494	574	0	
10	0	0	0	0	507	492	574	0	
11	0	0	0	0	531	494	574	0	
12	0	0	0	0	562	491	574	0	
13	0	0	0	0	581	487	574	0	
14	0	0	0	0	562	496	575	0	
15	0	0	0	0	543	512	574	0	
0	0	0	0	0	537	513	575	0	
1	0	0	0	0	512	517	574	0	
2	0	0	0	0	499	513	574	0	
3	0	0	0	0	513	515	574	0	
4	0	0	0	0	489	521	574	0	
5	0	0	0	0	488	520	574	0	
6	0	0	0	0	494	515	574	0	
7	0	0	0	0	486	505	574	0	
8	0	0	0	0	445	505	574	0	
9	0	0	0	0	459	513	574	0	
10	0	0	0	0	506	508	574	0	
11	0	0	0	0	508	511	574	0	
12	0	0	0	0	510	508	574	0	
13	0	0	0	0	492	511	574	0	
14	0	0	0	0	481	503	574	0	
15	0	0	0	0	510	495	574	0	
0	0	0	0	0	489	507	573	0	
1	0	0	0	0	483	511	574	0	
2	0	0	0	0	553	502	574	0	
3	0	0	0	0	591	508	573	0	
4	0	0	0	0	572	513	573	0	
5	0	0	0	0	560	514	572	0	
6	0	0	0	0	546	519	573	0	
7	0	0	0	0	525	507	572	0	
8	0	0	0	0	498	498	574	0	
9	0	0	0	0	474	502	572	0	
10	0	0	0	0	451	498	573	0	
11	0	0	0	0	467	498	573	0	
12	0	0	0	0	482	501	573	0	
13	0	0	0	0	507	509	573	0	
14	0	0	0	0	557	516	572	0	
15	0	0	0	0	550	520	572	0	
0	0	0	0	0	518	516	572	0	
1	0	0	0	0	487	516	572	0	
2	0	0	0	0	523	509	572	0	
3	0	0	0	0	563	499	573	0	
4	0	0	0	0	572	502	572	0	
5	0	0	0	0	573	497	573	0	
6	0	0	0	0	517	494	573	0	
7	0	0	0	0	483	503	572	0	
8	0	0	0	0	476	512	572	0	
9	0	0	0	0	464	519	572	0	
10	0	0	0	0	509	511	573	0	
11	0	0	0	0	485	521	572	0	
12	0	0	0	0	469	521	573	0	
13	0	0	0	0	498	511	572	0	
14	0	0	0	0	502	504	573	0	
15	0	0	0	0	453	504	572	0	
0	0	0	0	0	464	499	572	0	
1	0	0	0	0	504	508	572	0	
2	0	0	0	0	484	517	572	0	
3	0	0	0	0	534	524	572	0	
4	0	0	0	0	576	512	572	0	
5	0	0	0	0	569	504	572	0	
6	0	0	0	0	518	508	572	0	
7	0	0	0	0	487	498	572	0	
8	0	0	0	0	497	489	572	0	
9	0	0	0	0	479	492	572	0	
10	0	0	0	0	521	499	572	0	
11	0	0	0	0	552	509	572	0	
12	0	0	0	0	555	506	572	0	
13	0	0	0	0	533	506	572	0	
14	0	0	0	0	526	512	572	0	
15	0	0	0	0	486	514	572	0	
0	0	0	0	0	471	525	572	0	
1	0	0	0	0	499	524	572	0	
2	0	0	0	0	492	518	572	0	
3	0	0	0	0	507	502	572	0	
4	0	0	0	0	554	493	572	0	
5	0	0	0	0	579	501	572	0	
6	0	0	0	0	557	495	572	0	
7	0	0	0	0	540	498	572	0	
8	0	0	0	0	494	508	572	0	
9	0	0	0	0	491	518	573	0	
10	0	0	0	0	523	511	573	0	
11	0	0	0	0	525	506	573	0	
12	0	0	0	0	508	511	572	0	
13	0	0	0	0	491	513	573	0	
14	0	0	0	0	470	512	572	0	
15	0	0	0	0	472	508	573	0	
0	0	0	0	0	523	504	572	0	
1	0	0	0	0	512	508	572	0	
2	0	0	0	0	490	510	572	0	
3	0	0	0	0	488	513	572	0	
4	0	0	0	0	500	509	572	0	
5	0	0	0	0	441	512	573	0	
6	0	0	0	0	469	509	573	0	
7	0	0	0	0	504	505	572	0	
8	0	0	0	0	543	502	572	0	
9	0	0	0	0	623	504	572	0	
10	0	0	0	0	636	503	572	0	
11	0	0	0	0	550	508	572	0	
12	0	0	0	0	508	509	573	0	
13	0	0	0	0	484	511	572	0	
14	0	0	0	0	465	507	573	0	
15	0	0	0	0	507	508	572	0	
0	0	0	0	0	506	502	572	0	
1	0	0	0	0	510	499	573	0	
2	0	0	0	0	492	501	573	0	
3	0	0	0	0	473	505	573	0	
4	0	0	0	0	454	511	572	0	
5	0	0	0	0	498	511	573	0	
6	0	0	0	0	527	519	572	0	
7	0	0	0	0	532	524	573	0	
8	0	0	0	0	515	510	573	0	
9	0	0	0	0	538	494	573	0	
10	0	0	0	0	492	508	572	0	
11	0	0	0	0	468	521	572	0	
12	0	0	0	0	495	525	572	0	
13	0	0	0	0	514	515	573	0	
14	0	0	0	0	535	510	574	0	
15	0	0	0	0	537	499	574	0	
0	0	0	0	0	512	487	574	0	
1	0	0	0	0	505	491	574	0	
2	0	0	0	0	502	496	574	0	
3	0	0	0	0	526	519	573	0	
4	0	0	0	0	506	510	573	0	
5	0	0	0	0	491	512	573	0	
6	0	0	0	0	522	507	573	0	
7	0	0	0	0	522	503	574	0	
8	0	0	0	0	472	503	574	0	
9	0	0	0	0	484	497	574	0	
10	0	0	0	0	511	493	574	0	
11	0	0	0	0	504	486	574	0	
12	0	0	0	0	508	505	574	0	
13	0	0	0	0	541	515	575	0	
14	0	0	0	0	513	523	574	0	
15	0	0	0	0	506	525	574	0	
0	0	0	0	0	545	522	574	0	
1	0	0	0	0	561	523	574	0	
2	0	0	0	0	589	519	574	0	
3	0	0	0	0	601	504	574	0	
4	0	0	0	0	479	494	574	0	
5	0	0	0	0	434	506	574	0	
6	0	0	0	0	514	513	573	0	
7	0	0	0	0	508	513	574	0	
8	0	0	0	0	491	511	574	0	
9	0	0	0	0	491	521	574	0	
10	0	0	0	0	484	528	574	0	
11	0	0	0	0	479	496	574	0	
12	0	0	0	0	477	487	574	0	
13	0	0	0	0	491	496	574	0	
14	0	0	0	0	441	505	573	0	
15	0	0	0	0	463	511	574	0	
0	0	0	0	0	536	503	574	0	
1	0	0	0	0	555	507	573	0	
2	0	0	0	0	563	514	573	0	
3	0	0	0	0	574	510	573	0	
4	0	0	0	0	521	516	573	0	
5	0	0	0	0	513	511	573	0	
6	0	0	0	0	526	496	574	0	
7	0	0	0	0	528	498	573	0	
8	0	0	0	0	542	511	574	0	
9	0	0	0	0	486	507	573	0	
10	0	0	0	0	489	515	574	0	
11	0	0	0	0	527	511	574	0	
12	0	0	0	0	551	515	573	0	
13	0	0	0	0	526	506	573	0	
14	0	0	0	0	527	502	573	0	
15	0	0	0	0	504	512	573	0	
0	0	0	0	0	482	508	573	0	
1	0	0	0	0	489	503	573	0	
2	0	0	0	0	518	496	574	0	
3	0	0	0	0	557	500	573	0	
4	0	0	0	0	583	506	573	0	
5	0	0	0	0	469	515	573	0	
6	0	0	0	0	455	515	573	0	
7	0	0	0	0	457	510	572	0	
8	0	0	0	0	466	513	572	0	
9	0	0	0	0	444	513	572	0	
10	0	0	0	0	448	511	572	0	
11	0	0	0	0	470	512	573	0	
12	0	0	0	0	529	509	572	0	
13	0	0	0	0	575	513	572	0	
14	0	0	0	0	638	517	572	0	
15	0	0	0	0	601	529	572	0	
0	0	0	0	0	560	515	572	0	
1	0	0	0	0	501	489	572	0	
2	0	0	0	0	478	472	573	0	
3	0	0	0	0	497	476	573	0	
4	0	0	0	0	507	492	573	0	
5	0	0	0	0	480	518	574	0	
6	0	0	0	0	482	525	574	0	
7	0	0	0	0	511	520	573	0	
8	0	0	0	0	509	523	573	0	
9	0	0	0	0	514	505	573	0	
10	0	0	0	0	491	505	573	0	
11	0	0	0	0	478	509	573	0	
12	0	0	0	0	505	501	573	0	
13	0	0	0	0	504	504	573	0	
14	0	0	0	0	507	508	573	0	
15	0	0	0	0	476	513	573	0	
0	0	0	0	0	476	528	573	0	
1	0	0	0	0	415	524	572	0	
2	0	0	0	0	392	517	573	0	
3	0	0	0	0	444	507	573	0	
4	0	0	0	0	539	492	573	0	
5	0	0	0	0	652	489	572	0	
6	0	0	0	0	676	492	572	0	
7	0	0	0	0	641	506	572	0	
8	0	0	0	0	557	524	572	0	
9	0	0	0	0	439	522	572	0	
10	0	0	0	0	385	520	572	0	
11	0	0	0	0	368	508	572	0	
12	0	0	0	0	446	503	572	0	
13	0	0	0	0	508	499	572	0	
14	0	0	0	0	648	496	572	0	
15	0	0	0	0	715	483	573	0	
0	0	0	0	0	679	488	573	0	
1	0	0	0	0	592	513	573	0	
2	0	0	0	0	529	518	573	0	
3	0	0	0	0	447	521	573	0	
4	0	0	0	0	419	522	572	0	
5	0	0	0	0	475	516	573	0	
6	0	0	0	0	519	507	573	0	
7	0	0	0	0	532	513	573	0	
8	0	0	0	0	509	497	573	0	
9	0	0	0	0	483	496	574	0	
10	0	0	0	0	471	501	573	0	
11	0	0	0	0	479	509	573	0	
12	0	0	0	0	483	513	573	0	
13	0	0	0	0	505	518	572	0	
14	0	0	0	0	515	512	573	0	
15	0	0	0	0	504	515	573	0	
0	0	0	0	0	487	515	572	0	
1	0	0	0	0	471	503	572	0	
2	0	0	0	0	494	497	572	0	
3	0	0	0	0	518	507	572	0	
4	0	0	0	0	494	517	572	0	
5	0	0	0	0	476	519	571	0	
6	0	0	0	0	487	512	571	0	
7	0	0	0	0	474	508	571	0	
8	0	0	0	0	505	509	571	0	
9	0	0	0	0	557	503	570	0	
10	0	0	0	0	581	500	570	0	
11	0	0	0	0	560	503	570	0	
12	0	0	0	0	539	496	570	0	
13	0	0	0	0	516	497	571	0	
14	0	0	0	0	509	508	570	0	
15	0	0	0	0	510	509	570	0	
0	0	0	0	0	480	524	570	0	
1	0	0	0	0	487	521	571	0	
2	0	0	0	0	512	509	570	0	
3	0	0	0	0	535	514	570	0	
4	0	0	0	0	495	506	570	0	
5	0	0	0	0	523	503	570	0	
6	0	0	0	0	515	501	570	0	
7	0	0	0	0	522	508	569	0	
8	0	0	0	0	523	507	569	0	
9	0	0	0	0	525	508	570	0	
10	0	0	0	0	512	508	570	0	
11	0	0	0	0	493	515	570	0	
12	0	0	0	0	488	520	571	0	
13	0	0	0	0	463	518	570	0	
14	0	0	0	0	486	512	570	0	
15	0	0	0	0	522	510	570	0	
0	0	0	0	0	535	509	569	0	
1	0	0	0	0	534	510	569	0	
2	0	0	0	0	527	504	569	0	
3	0	0	0	0	515	502	569	0	
4	0	0	0	0	507	499	568	0	
5	0	0	0	0	498	499	568	0	
6	0	0	0	0	497	504	568	0	
7	0	0	0	0	525	518	568	0	
8	0	0	0	0	539	518	568	0	
9	0	0	0	0	490	515	568	0	
10	0	0	0	0	491	509	568	0	
11	0	0	0	0	529	500	567	0	
12	0	0	0	0	508	499	567	0	
13	0	0	0	0	520	493	566	0	
14	0	0	0	0	530	488	566	0	
15	0	0	0	0	497	499	566	0	
0	0	0	0	0	486	506	566	0	
1	0	0	0	0	512	518	567	0	
2	0	0	0	0	527	526	567	0	
3	0	0	0	0	517	519	567	0	
4	0	0	0	0	527	512	567	0	
5	0	0	0	0	537	510	567	0	
6	0	0	0	0	527	508	566	0	
7	0	0	0	0	496	499	566	0	
8	0	0	0	0	487	496	566	0	
9	0	0	0	0	497	501	567	0	
10	0	0	0	0	513	510	567	0	
11	0	0	0	0	472	514	566	0	
12	0	0	0	0	470	524	566	0	
13	0	0	0	0	496	523	566	0	
14	0	0	0	0	499	503	566	0	
15	0	0	0	0	469	502	567	0	
0	0	0	0	0	470	523	566	0	
1	0	0	0	0	497	513	566	0	
2	0	0	0	0	525	502	565	0	
3	0	0	0	0	583	494	565	0	
4	0	0	0	0	612	498	565	0	
5	0	0	0	0	637	505	566	0	
6	0	0	0	0	611	525	566	0	
7	0	0	0	0	556	524	565	0	
8	0	0	0	0	528	506	565	0	
9	0	0	0	0	501	483	563	0	
10	0	0	0	0	437	471	563	0	
11	0	0	0	0	386	484	562	0	
12	0	0	0	0	465	496	561	0	
13	0	0	0	0	513	510	559	0	
14	0	0	0	0	517	504	557	0	
15	0	0	0	0	486	493	553	0	
0	0	0	0	0	463	496	551	0	
1	0	0	0	0	499	505	551	0	
2	0	0	0	0	476	510	549	0	
3	0	0	0	0	438	519	547	0	
4	0	0	0	0	505	519	546	0	
5	0	0	0	0	554	522	545	0	
6	0	0	0	0	561	522	543	0	
7	0	0	0	0	533	521	542	16	
8	0	0	0	0	513	534	539	17	
9	0	0	0	0	528	529	537	16	
10	0	0	0	0	544	525	536	16	
11	0	0	0	0	538	520	531	15	
12	0	0	0	0	513	520	530	16	
13	0	0	0	0	553	513	524	15	
14	0	0	0	0	491	508	519	12	
15	0	0	0	0	463	493	513	24	
0	0	0	0	0	464	501	511	12	
1	0	0	0	0	504	503	506	8	
2	0	0	0	0	484	497	502	8	
3	0	0	0	0	478	497	498	3	
4	0	0	0	0	479	495	492	0	
5	0	0	0	0	522	492	484	0	
6	0	0	0	0	550	499	478	0	
7	0	0	0	0	543	500	471	0	
8	0	0	0	0	561	504	460	0	
9	0	0	0	0	571	510	451	0	
10	0	0	0	0	555	514	451	0	
11	0	0	0	0	510	513	446	0	
12	0	0	0	0	476	514	441	0	
13	0	0	0	0	466	504	437	0	
14	0	0	0	0	493	508	432	0	
15	0	0	0	0	497	510	423	0	
0	0	0	0	0	494	512	425	0	
1	0	0	0	0	561	510	421	0	
2	0	0	0	0	563	516	409	0	
3	0	0	0	0	552	510	409	0	
4	0	0	0	0	470	508	401	0	
5	0	0	0	0	452	511	396	0	
6	0	0	0	0	463	510	391	0	
