# OpenSignals Text File Format. Version 1
# {"20:18:06:13:21:78": {"position": 0, "device": "bitalino_rev", "device name": "20:18:06:13:21:78", "device connection": "BTH20:18:06:13:21:78", "sampling rate": 1000, "resolution": [4, 1, 1, 1, 1, 10, 10, 10, 10], "firmware version": 1281, "comments": "", "keywords": "", "mode": 0, "sync interval": 2, "date": "2023-5-29", "time": "18:59:28.453", "channels": [1, 2, 3, 4], "sensor": ["RAW", "RAW", "EMGBITREV", "EMGBITREV"], "label": ["A1", "A2", "A3", "A4"], "column": ["nSeq", "I1", "I2", "O1", "O2", "A1", "A2", "A3", "A4"], "special": [{}, {}, {}, {}], "digital IO": [0, 0, 1, 1]}}
# EndOfHeader
0	0	0	0	0	503	508	79	0					
1	0	0	0	0	500	507	80	0					
2	0	0	0	0	500	508	79	0					
3	0	0	0	0	504	508	80	0					
4	0	0	0	0	507	506	81	0					
5	0	0	0	0	510	507	81	0					
6	0	0	0	0	510	508	82	0					
7	0	0	0	0	518	510	80	0					
8	0	0	0	0	518	508	81	0					
9	0	0	0	0	517	508	81	0					
10	0	0	0	0	515	510	80	0					
11	0	0	0	0	518	512	79	0					
12	0	0	0	0	518	509	80	0					
13	0	0	0	0	516	509	80	0					
14	0	0	0	0	513	508	80	0					
15	0	0	0	0	513	507	81	0					
0	0	0	0	0	510	506	83	0					
1	0	0	0	0	509	506	81	0					
2	0	0	0	0	508	508	80	0					
3	0	0	0	0	506	508	79	0					
4	0	0	0	0	505	505	81	0					
5	0	0	0	0	502	505	82	0					
6	0	0	0	0	502	506	82	0					
7	0	0	0	0	503	507	81	0					
8	0	0	0	0	504	509	80	0					
9	0	0	0	0	506	507	79	0					
10	0	0	0	0	512	509	82	0					
11	0	0	0	0	516	508	81	0					
12	0	0	0	0	516	507	82	0					
13	0	0	0	0	518	510	83	0					
14	0	0	0	0	516	513	83	0					
15	0	0	0	0	518	512	80	0					
0	0	0	0	0	516	508	82	0					
1	0	0	0	0	518	508	83	0					
2	0	0	0	0	515	508	83	0					
3	0	0	0	0	511	508	83	0					
4	0	0	0	0	511	507	83	0					
5	0	0	0	0	511	509	82	0					
6	0	0	0	0	508	507	82	0					
7	0	0	0	0	508	507	82	0					
8	0	0	0	0	505	506	82	0					
9	0	0	0	0	504	505	81	0					
10	0	0	0	0	502	504	82	0					
11	0	0	0	0	503	507	81	0					
12	0	0	0	0	504	506	82	0					
13	0	0	0	0	506	507	83	0					
14	0	0	0	0	510	508	83	0					
15	0	0	0	0	513	508	81	0					
0	0	0	0	0	517	511	81	0					
1	0	0	0	0	516	510	82	0					
2	0	0	0	0	517	511	83	0					
3	0	0	0	0	518	509	82	0					
4	0	0	0	0	518	508	82	0					
5	0	0	0	0	516	507	83	0					
6	0	0	0	0	515	507	82	0					
7	0	0	0	0	511	508	82	0					
8	0	0	0	0	510	507	81	0					
9	0	0	0	0	510	508	83	0					
10	0	0	0	0	508	507	82	0					
11	0	0	0	0	507	507	83	0					
12	0	0	0	0	504	508	82	0					
13	0	0	0	0	504	506	83	0					
14	0	0	0	0	505	507	83	0					
15	0	0	0	0	504	508	80	0					
0	0	0	0	0	506	507	81	0					
1	0	0	0	0	508	509	80	0					
2	0	0	0	0	511	508	81	0					
3	0	0	0	0	511	508	80	0					
4	0	0	0	0	516	508	80	0					
5	0	0	0	0	514	510	80	0					
6	0	0	0	0	517	510	80	0					
7	0	0	0	0	516	509	80	0					
8	0	0	0	0	517	509	83	0					
9	0	0	0	0	515	507	82	0					
10	0	0	0	0	515	508	83	0					
11	0	0	0	0	513	505	83	0					
12	0	0	0	0	512	509	81	0					
13	0	0	0	0	510	507	80	0					
14	0	0	0	0	506	508	82	0					
15	0	0	0	0	505	506	81	0					
0	0	0	0	0	507	507	81	0					
1	0	0	0	0	504	506	81	0					
2	0	0	0	0	502	504	81	0					
3	0	0	0	0	504	508	83	0					
4	0	0	0	0	506	508	82	0					
5	0	0	0	0	505	508	82	0					
6	0	0	0	0	508	508	81	0					
7	0	0	0	0	512	508	83	0					
8	0	0	0	0	515	510	81	0					
9	0	0	0	0	516	507	81	0					
10	0	0	0	0	516	509	82	0					
11	0	0	0	0	515	511	82	0					
12	0	0	0	0	516	509	82	0					
13	0	0	0	0	516	509	82	0					
14	0	0	0	0	518	507	81	0					
15	0	0	0	0	515	505	82	0					
0	0	0	0	0	514	508	81	0					
1	0	0	0	0	509	508	81	0					
2	0	0	0	0	512	508	81	0					
3	0	0	0	0	506	506	82	0					
4	0	0	0	0	505	506	81	0					
5	0	0	0	0	504	508	82	0					
6	0	0	0	0	503	504	82	0					
7	0	0	0	0	504	508	82	0					
8	0	0	0	0	507	509	83	0					
9	0	0	0	0	506	509	81	0					
10	0	0	0	0	511	509	81	0					
11	0	0	0	0	513	509	81	0					
12	0	0	0	0	514	509	83	0					
13	0	0	0	0	515	507	81	0					
14	0	0	0	0	516	510	81	0					
15	0	0	0	0	515	508	81	0					
0	0	0	0	0	516	509	81	0					
1	0	0	0	0	515	507	81	0					
2	0	0	0	0	516	507	77	0					
3	0	0	0	0	512	507	79	0					
4	0	0	0	0	514	507	79	0					
5	0	0	0	0	511	507	79	0					
6	0	0	0	0	509	508	79	0					
7	0	0	0	0	507	508	78	0					
8	0	0	0	0	506	507	79	0					
9	0	0	0	0	504	506	83	0					
10	0	0	0	0	503	507	82	0					
11	0	0	0	0	503	507	81	0					
12	0	0	0	0	505	508	79	0					
13	0	0	0	0	507	510	81	0					
14	0	0	0	0	510	510	86	0					
15	0	0	0	0	511	508	83	0					
0	0	0	0	0	514	507	81	0					
1	0	0	0	0	515	509	79	0					
2	0	0	0	0	516	510	81	0					
3	0	0	0	0	516	509	82	0					
4	0	0	0	0	515	508	81	0					
5	0	0	0	0	517	508	82	0					
6	0	0	0	0	518	508	82	0					
7	0	0	0	0	512	506	81	0					
8	0	0	0	0	510	507	81	0					
9	0	0	0	0	512	508	81	0					
10	0	0	0	0	508	508	81	0					
11	0	0	0	0	505	508	83	0					
12	0	0	0	0	506	506	81	0					
13	0	0	0	0	501	507	82	0					
14	0	0	0	0	504	506	81	0					
15	0	0	0	0	504	506	82	0					
0	0	0	0	0	507	508	81	0					
1	0	0	0	0	505	507	83	0					
2	0	0	0	0	513	508	83	0					
3	0	0	0	0	514	509	83	0					
4	0	0	0	0	515	509	83	0					
5	0	0	0	0	516	510	83	0					
6	0	0	0	0	517	509	83	0					
7	0	0	0	0	515	511	83	0					
8	0	0	0	0	516	509	82	0					
9	0	0	0	0	515	509	82	0					
10	0	0	0	0	516	507	82	0					
11	0	0	0	0	513	507	82	0					
12	0	0	0	0	512	505	83	0					
13	0	0	0	0	508	506	81	0					
14	0	0	0	0	508	507	82	0					
15	0	0	0	0	506	507	82	0					
0	0	0	0	0	506	508	82	0					
1	0	0	0	0	503	507	83	0					
2	0	0	0	0	502	507	83	0					
3	0	0	0	0	505	508	83	0					
4	0	0	0	0	504	509	82	0					
5	0	0	0	0	508	509	82	0					
6	0	0	0	0	510	507	82	0					
7	0	0	0	0	513	509	83	0					
8	0	0	0	0	514	509	81	0					
9	0	0	0	0	517	510	82	0					
10	0	0	0	0	518	511	83	0					
11	0	0	0	0	516	511	82	0					
12	0	0	0	0	514	508	82	0					
13	0	0	0	0	514	508	82	0					
14	0	0	0	0	514	508	81	0					
15	0	0	0	0	515	507	82	0					
0	0	0	0	0	514	506	82	0					
1	0	0	0	0	514	505	81	0					
2	0	0	0	0	510	508	81	0					
3	0	0	0	0	505	506	81	0					
4	0	0	0	0	506	507	81	0					
5	0	0	0	0	502	509	82	0					
6	0	0	0	0	499	508	81	0					
7	0	0	0	0	503	507	81	0					
8	0	0	0	0	507	506	81	0					
9	0	0	0	0	509	508	81	0					
10	0	0	0	0	512	507	80	0					
11	0	0	0	0	515	508	81	0					
12	0	0	0	0	516	509	80	0					
13	0	0	0	0	517	511	80	0					
14	0	0	0	0	514	510	80	0					
15	0	0	0	0	513	510	80	0					
0	0	0	0	0	517	510	79	0					
1	0	0	0	0	516	508	80	0					
2	0	0	0	0	515	510	80	0					
3	0	0	0	0	517	507	79	0					
4	0	0	0	0	511	507	81	0					
5	0	0	0	0	510	507	81	0					
6	0	0	0	0	508	505	80	0					
7	0	0	0	0	507	506	79	0					
8	0	0	0	0	506	508	80	0					
9	0	0	0	0	503	506	79	0					
10	0	0	0	0	502	506	80	0					
11	0	0	0	0	503	508	81	0					
12	0	0	0	0	502	507	79	0					
13	0	0	0	0	506	508	80	0					
14	0	0	0	0	511	510	80	0					
15	0	0	0	0	513	508	80	0					
0	0	0	0	0	515	507	80	0					
1	0	0	0	0	516	508	80	0					
2	0	0	0	0	515	510	79	0					
3	0	0	0	0	517	510	81	0					
4	0	0	0	0	515	509	80	0					
5	0	0	0	0	516	507	79	0					
6	0	0	0	0	516	510	80	0					
7	0	0	0	0	515	508	79	0					
8	0	0	0	0	512	505	79	0					
9	0	0	0	0	510	506	80	0					
10	0	0	0	0	509	505	80	0					
11	0	0	0	0	505	507	81	0					
12	0	0	0	0	506	508	81	0					
13	0	0	0	0	504	508	80	0					
14	0	0	0	0	504	507	81	0					
15	0	0	0	0	506	509	81	0					
0	0	0	0	0	504	508	81	0					
1	0	0	0	0	505	507	79	0					
2	0	0	0	0	508	508	79	0					
3	0	0	0	0	513	508	79	0					
4	0	0	0	0	516	510	81	0					
5	0	0	0	0	516	509	81	0					
6	0	0	0	0	516	508	80	0					
7	0	0	0	0	515	509	82	0					
8	0	0	0	0	516	509	82	0					
9	0	0	0	0	516	507	79	0					
10	0	0	0	0	516	505	79	0					
11	0	0	0	0	514	509	80	0					
12	0	0	0	0	511	508	79	0					
13	0	0	0	0	509	508	80	0					
14	0	0	0	0	506	506	79	0					
15	0	0	0	0	506	507	81	0					
0	0	0	0	0	506	504	78	0					
1	0	0	0	0	503	507	80	0					
2	0	0	0	0	504	508	80	0					
3	0	0	0	0	504	508	80	0					
4	0	0	0	0	505	507	80	0					
5	0	0	0	0	507	508	80	0					
6	0	0	0	0	509	508	81	0					
7	0	0	0	0	515	508	79	0					
8	0	0	0	0	515	510	81	0					
9	0	0	0	0	515	508	81	0					
10	0	0	0	0	513	510	82	0					
11	0	0	0	0	515	508	83	0					
12	0	0	0	0	518	507	79	0					
13	0	0	0	0	519	508	83	0					
14	0	0	0	0	516	507	83	0					
15	0	0	0	0	514	505	83	0					
0	0	0	0	0	512	508	80	0					
1	0	0	0	0	511	508	81	0					
2	0	0	0	0	508	508	82	0					
3	0	0	0	0	506	507	82	0					
4	0	0	0	0	504	508	81	0					
5	0	0	0	0	504	504	82	0					
6	0	0	0	0	500	506	81	0					
7	0	0	0	0	501	506	80	0					
8	0	0	0	0	506	507	80	0					
9	0	0	0	0	507	509	80	0					
10	0	0	0	0	509	507	79	0					
11	0	0	0	0	514	508	80	0					
12	0	0	0	0	517	509	82	0					
13	0	0	0	0	516	509	83	0					
14	0	0	0	0	516	511	79	0					
15	0	0	0	0	517	510	82	0					
0	0	0	0	0	515	508	81	0					
1	0	0	0	0	518	509	79	0					
2	0	0	0	0	514	505	80	0					
3	0	0	0	0	514	507	80	0					
4	0	0	0	0	511	507	80	0					
5	0	0	0	0	510	508	81	0					
6	0	0	0	0	509	507	80	0					
7	0	0	0	0	508	508	80	0					
8	0	0	0	0	503	508	79	0					
9	0	0	0	0	502	506	81	0					
10	0	0	0	0	502	507	81	0					
11	0	0	0	0	505	510	80	0					
12	0	0	0	0	508	507	79	0					
13	0	0	0	0	506	508	79	0					
14	0	0	0	0	511	508	79	0					
15	0	0	0	0	512	508	80	0					
0	0	0	0	0	513	509	80	0					
1	0	0	0	0	518	509	80	0					
2	0	0	0	0	518	508	78	0					
3	0	0	0	0	518	510	79	0					
4	0	0	0	0	518	508	79	0					
5	0	0	0	0	515	508	79	0					
6	0	0	0	0	514	508	78	0					
7	0	0	0	0	513	507	78	0					
8	0	0	0	0	512	508	78	0					
9	0	0	0	0	511	509	80	0					
10	0	0	0	0	508	508	80	0					
11	0	0	0	0	504	507	78	0					
12	0	0	0	0	502	505	79	0					
13	0	0	0	0	502	506	78	0					
14	0	0	0	0	502	508	80	0					
15	0	0	0	0	504	507	80	0					
0	0	0	0	0	506	507	79	0					
1	0	0	0	0	507	508	80	0					
2	0	0	0	0	512	509	79	0					
3	0	0	0	0	512	508	78	0					
4	0	0	0	0	515	508	78	0					
5	0	0	0	0	516	509	78	0					
6	0	0	0	0	518	510	78	0					
7	0	0	0	0	520	510	78	0					
8	0	0	0	0	516	510	80	0					
9	0	0	0	0	516	508	79	0					
10	0	0	0	0	513	506	80	0					
11	0	0	0	0	513	505	79	0					
12	0	0	0	0	511	507	79	0					
13	0	0	0	0	509	507	79	0					
14	0	0	0	0	507	506	79	0					
15	0	0	0	0	504	508	80	0					
0	0	0	0	0	504	508	78	0					
1	0	0	0	0	502	508	82	0					
2	0	0	0	0	502	508	79	0					
3	0	0	0	0	504	508	78	0					
4	0	0	0	0	504	507	78	0					
5	0	0	0	0	506	508	79	0					
6	0	0	0	0	512	507	79	0					
7	0	0	0	0	517	507	79	0					
8	0	0	0	0	519	508	79	0					
9	0	0	0	0	518	510	81	0					
10	0	0	0	0	515	510	77	0					
11	0	0	0	0	516	511	79	0					
12	0	0	0	0	517	508	78	0					
13	0	0	0	0	517	507	81	0					
14	0	0	0	0	515	507	79	0					
15	0	0	0	0	515	507	79	0					
0	0	0	0	0	511	508	80	0					
1	0	0	0	0	509	505	77	0					
2	0	0	0	0	508	508	76	0					
3	0	0	0	0	505	507	79	0					
4	0	0	0	0	504	508	77	0					
5	0	0	0	0	502	505	78	0					
6	0	0	0	0	502	507	79	0					
7	0	0	0	0	504	507	79	0					
8	0	0	0	0	505	508	78	0					
9	0	0	0	0	508	508	80	0					
10	0	0	0	0	510	510	79	0					
11	0	0	0	0	513	507	78	0					
12	0	0	0	0	516	508	79	0					
13	0	0	0	0	516	508	79	0					
14	0	0	0	0	516	511	78	0					
15	0	0	0	0	517	509	77	0					
0	0	0	0	0	517	508	78	0					
1	0	0	0	0	518	507	77	0					
2	0	0	0	0	515	507	78	0					
3	0	0	0	0	514	506	77	0					
4	0	0	0	0	511	507	77	0					
5	0	0	0	0	510	507	78	0					
6	0	0	0	0	508	508	78	0					
7	0	0	0	0	505	508	77	0					
8	0	0	0	0	504	507	86	0					
9	0	0	0	0	504	508	85	0					
10	0	0	0	0	503	507	84	0					
11	0	0	0	0	505	508	86	0					
12	0	0	0	0	504	508	86	0					
13	0	0	0	0	507	508	87	0					
14	0	0	0	0	512	507	88	0					
15	0	0	0	0	513	508	86	0					
0	0	0	0	0	514	507	84	0					
1	0	0	0	0	515	509	85	0					
2	0	0	0	0	518	510	87	0					
3	0	0	0	0	519	511	83	0					
4	0	0	0	0	516	510	84	0					
5	0	0	0	0	517	509	83	0					
6	0	0	0	0	516	505	82	0					
7	0	0	0	0	513	506	81	0					
8	0	0	0	0	511	506	84	0					
9	0	0	0	0	510	508	89	0					
10	0	0	0	0	507	509	67	0					
11	0	0	0	0	503	506	67	0					
12	0	0	0	0	504	506	67	0					
13	0	0	0	0	502	507	67	0					
14	0	0	0	0	504	505	67	0					
15	0	0	0	0	504	507	68	0					
0	0	0	0	0	505	506	67	0					
1	0	0	0	0	506	508	68	0					
2	0	0	0	0	510	511	67	0					
3	0	0	0	0	513	507	68	0					
4	0	0	0	0	517	507	68	0					
5	0	0	0	0	518	510	67	0					
6	0	0	0	0	517	510	67	0					
7	0	0	0	0	517	510	68	0					
8	0	0	0	0	518	508	68	0					
9	0	0	0	0	517	508	67	0					
10	0	0	0	0	515	507	68	0					
11	0	0	0	0	513	507	67	0					
12	0	0	0	0	512	508	67	0					
13	0	0	0	0	509	506	67	0					
14	0	0	0	0	506	506	68	0					
15	0	0	0	0	506	508	67	0					
0	0	0	0	0	504	504	67	0					
1	0	0	0	0	500	505	68	0					
2	0	0	0	0	501	506	68	0					
3	0	0	0	0	504	507	68	0					
4	0	0	0	0	504	508	67	0					
5	0	0	0	0	505	508	67	0					
6	0	0	0	0	510	509	66	0					
7	0	0	0	0	517	507	66	0					
8	0	0	0	0	519	508	66	0					
9	0	0	0	0	521	510	66	0					
10	0	0	0	0	518	511	66	0					
11	0	0	0	0	516	510	66	0					
12	0	0	0	0	517	511	67	0					
13	0	0	0	0	515	507	66	0					
14	0	0	0	0	513	507	67	0					
15	0	0	0	0	513	508	67	0					
0	0	0	0	0	511	508	66	0					
1	0	0	0	0	509	504	66	0					
2	0	0	0	0	510	507	66	0					
3	0	0	0	0	506	508	66	0					
4	0	0	0	0	503	509	66	0					
5	0	0	0	0	502	505	66	0					
6	0	0	0	0	500	508	66	0					
7	0	0	0	0	503	508	66	0					
8	0	0	0	0	504	507	66	0					
9	0	0	0	0	507	507	67	0					
10	0	0	0	0	512	510	66	0					
11	0	0	0	0	514	508	67	0					
12	0	0	0	0	518	507	66	0					
13	0	0	0	0	515	508	66	0					
14	0	0	0	0	516	509	67	0					
15	0	0	0	0	516	508	66	0					
0	0	0	0	0	517	509	66	0					
1	0	0	0	0	515	508	67	0					
2	0	0	0	0	514	508	66	0					
3	0	0	0	0	514	508	68	0					
4	0	0	0	0	512	507	66	0					
5	0	0	0	0	508	508	66	0					
6	0	0	0	0	507	505	66	0					
7	0	0	0	0	502	508	67	0					
8	0	0	0	0	503	507	66	0					
9	0	0	0	0	504	505	67	0					
10	0	0	0	0	504	508	82	0					
11	0	0	0	0	501	507	84	0					
12	0	0	0	0	504	507	78	0					
13	0	0	0	0	507	508	80	0					
14	0	0	0	0	512	510	83	0					
15	0	0	0	0	512	507	79	0					
0	0	0	0	0	516	508	79	0					
1	0	0	0	0	517	507	79	0					
2	0	0	0	0	520	510	85	0					
3	0	0	0	0	518	511	79	0					
4	0	0	0	0	515	511	78	0					
5	0	0	0	0	516	509	79	0					
6	0	0	0	0	514	507	80	0					
7	0	0	0	0	512	506	79	0					
8	0	0	0	0	513	505	80	0					
9	0	0	0	0	511	504	82	0					
10	0	0	0	0	510	508	79	0					
11	0	0	0	0	506	507	81	0					
12	0	0	0	0	505	506	80	0					
13	0	0	0	0	503	507	82	0					
14	0	0	0	0	501	507	84	0					
15	0	0	0	0	504	509	86	0					
0	0	0	0	0	505	507	81	0					
1	0	0	0	0	505	508	84	0					
2	0	0	0	0	511	509	85	0					
3	0	0	0	0	515	508	82	0					
4	0	0	0	0	516	508	81	0					
5	0	0	0	0	517	510	83	0					
6	0	0	0	0	516	508	82	0					
7	0	0	0	0	518	509	81	0					
8	0	0	0	0	515	510	83	0					
9	0	0	0	0	514	509	82	0					
10	0	0	0	0	515	508	82	0					
11	0	0	0	0	515	508	81	0					
12	0	0	0	0	512	505	80	0					
13	0	0	0	0	508	506	81	0					
14	0	0	0	0	508	506	80	0					
15	0	0	0	0	507	507	82	0					
0	0	0	0	0	507	507	82	0					
1	0	0	0	0	504	507	81	0					
2	0	0	0	0	503	507	81	0					
3	0	0	0	0	502	508	83	0					
4	0	0	0	0	504	508	83	0					
5	0	0	0	0	508	507	84	0					
6	0	0	0	0	510	509	84	0					
7	0	0	0	0	513	508	84	0					
8	0	0	0	0	518	509	83	0					
9	0	0	0	0	515	512	83	0					
10	0	0	0	0	516	510	85	0					
11	0	0	0	0	517	509	84	0					
12	0	0	0	0	516	509	83	0					
13	0	0	0	0	515	509	80	0					
14	0	0	0	0	516	508	81	0					
15	0	0	0	0	516	508	85	0					
0	0	0	0	0	513	507	82	0					
1	0	0	0	0	508	506	85	0					
2	0	0	0	0	508	505	83	0					
3	0	0	0	0	506	506	83	0					
4	0	0	0	0	505	505	83	0					
5	0	0	0	0	504	507	85	0					
6	0	0	0	0	499	508	84	0					
7	0	0	0	0	501	508	85	0					
8	0	0	0	0	504	508	84	0					
9	0	0	0	0	509	509	84	0					
10	0	0	0	0	513	511	84	0					
11	0	0	0	0	515	510	85	0					
12	0	0	0	0	515	507	84	0					
13	0	0	0	0	514	510	85	0					
14	0	0	0	0	514	511	83	0					
15	0	0	0	0	516	510	83	0					
0	0	0	0	0	519	509	84	0					
1	0	0	0	0	517	508	83	0					
2	0	0	0	0	515	508	86	0					
3	0	0	0	0	515	508	84	0					
4	0	0	0	0	510	507	85	0					
5	0	0	0	0	510	507	80	0					
6	0	0	0	0	511	506	86	0					
7	0	0	0	0	506	507	85	0					
8	0	0	0	0	506	506	87	0					
9	0	0	0	0	503	507	80	0					
10	0	0	0	0	503	507	83	0					
11	0	0	0	0	503	509	81	0					
12	0	0	0	0	505	507	81	0					
13	0	0	0	0	507	508	81	0					
14	0	0	0	0	512	508	81	0					
15	0	0	0	0	516	508	80	0					
0	0	0	0	0	517	508	80	0					
1	0	0	0	0	516	507	80	0					
2	0	0	0	0	515	508	81	0					
3	0	0	0	0	518	510	80	0					
4	0	0	0	0	517	510	80	0					
5	0	0	0	0	518	507	82	0					
6	0	0	0	0	514	507	80	0					
7	0	0	0	0	512	507	81	0					
8	0	0	0	0	509	508	81	0					
9	0	0	0	0	509	505	80	0					
10	0	0	0	0	508	508	81	0					
11	0	0	0	0	507	509	81	0					
12	0	0	0	0	503	506	80	0					
13	0	0	0	0	501	507	80	0					
14	0	0	0	0	501	506	79	0					
15	0	0	0	0	504	508	80	0					
0	0	0	0	0	505	509	79	0					
1	0	0	0	0	508	507	80	0					
2	0	0	0	0	512	508	80	0					
3	0	0	0	0	512	509	81	0					
4	0	0	0	0	513	510	80	0					
5	0	0	0	0	516	510	82	0					
6	0	0	0	0	519	511	82	0					
7	0	0	0	0	518	509	80	0					
8	0	0	0	0	518	510	81	0					
9	0	0	0	0	515	507	81	0					
10	0	0	0	0	515	507	81	0					
11	0	0	0	0	515	505	82	0					
12	0	0	0	0	515	506	81	0					
13	0	0	0	0	512	506	82	0					
14	0	0	0	0	508	507	81	0					
15	0	0	0	0	507	505	80	0					
0	0	0	0	0	507	506	81	0					
1	0	0	0	0	504	507	81	0					
2	0	0	0	0	502	508	83	0					
3	0	0	0	0	502	507	85	0					
4	0	0	0	0	503	508	80	0					
5	0	0	0	0	507	509	79	0					
6	0	0	0	0	510	508	79	0					
7	0	0	0	0	513	508	79	0					
8	0	0	0	0	517	509	82	0					
9	0	0	0	0	517	510	81	0					
10	0	0	0	0	519	511	80	0					
11	0	0	0	0	517	509	82	0					
12	0	0	0	0	517	508	82	0					
13	0	0	0	0	515	507	79	0					
14	0	0	0	0	512	508	80	0					
15	0	0	0	0	511	507	80	0					
0	0	0	0	0	510	507	80	0					
1	0	0	0	0	512	507	80	0					
2	0	0	0	0	508	506	80	0					
3	0	0	0	0	507	506	80	0					
4	0	0	0	0	505	506	79	0					
5	0	0	0	0	503	505	79	0					
6	0	0	0	0	502	507	80	0					
7	0	0	0	0	502	508	80	0					
8	0	0	0	0	505	508	79	0					
9	0	0	0	0	508	508	79	0					
10	0	0	0	0	511	510	79	0					
11	0	0	0	0	514	509	79	0					
12	0	0	0	0	516	508	79	0					
13	0	0	0	0	517	509	79	0					
14	0	0	0	0	515	510	79	0					
15	0	0	0	0	516	511	79	0					
0	0	0	0	0	516	510	79	0					
1	0	0	0	0	512	508	79	0					
2	0	0	0	0	514	504	78	0					
3	0	0	0	0	514	507	79	0					
4	0	0	0	0	517	507	79	0					
5	0	0	0	0	514	508	79	0					
6	0	0	0	0	509	508	79	0					
7	0	0	0	0	507	508	78	0					
8	0	0	0	0	506	508	79	0					
9	0	0	0	0	503	505	79	0					
10	0	0	0	0	503	506	79	0					
11	0	0	0	0	503	509	79	0					
12	0	0	0	0	505	508	79	0					
13	0	0	0	0	506	508	79	0					
14	0	0	0	0	510	508	81	0					
15	0	0	0	0	514	508	80	0					
0	0	0	0	0	515	510	79	0					
1	0	0	0	0	516	511	78	0					
2	0	0	0	0	515	510	79	0					
3	0	0	0	0	516	508	78	0					
4	0	0	0	0	517	508	80	0					
5	0	0	0	0	516	508	78	0					
6	0	0	0	0	513	506	79	0					
7	0	0	0	0	513	507	78	0					
8	0	0	0	0	515	508	78	0					
9	0	0	0	0	509	508	79	0					
10	0	0	0	0	509	506	79	0					
11	0	0	0	0	507	507	78	0					
12	0	0	0	0	504	508	78	0					
13	0	0	0	0	501	507	79	0					
14	0	0	0	0	504	507	77	0					
15	0	0	0	0	504	509	78	0					
0	0	0	0	0	504	508	78	0					
1	0	0	0	0	506	508	77	0					
2	0	0	0	0	511	508	77	0					
3	0	0	0	0	515	509	79	0					
4	0	0	0	0	516	508	77	0					
5	0	0	0	0	516	508	78	0					
6	0	0	0	0	514	509	77	0					
7	0	0	0	0	515	510	78	0					
8	0	0	0	0	515	510	78	0					
9	0	0	0	0	515	508	78	0					
10	0	0	0	0	515	507	78	0					
11	0	0	0	0	514	508	77	0					
12	0	0	0	0	512	507	77	0					
13	0	0	0	0	510	508	78	0					
14	0	0	0	0	508	508	77	0					
15	0	0	0	0	507	505	77	0					
0	0	0	0	0	507	507	78	0					
1	0	0	0	0	502	508	77	0					
2	0	0	0	0	504	507	78	0					
3	0	0	0	0	504	507	78	0					
4	0	0	0	0	504	507	77	0					
5	0	0	0	0	508	506	78	0					
6	0	0	0	0	510	509	78	0					
7	0	0	0	0	513	508	77	0					
8	0	0	0	0	518	510	78	0					
9	0	0	0	0	518	507	76	0					
10	0	0	0	0	516	510	76	0					
11	0	0	0	0	518	512	76	0					
12	0	0	0	0	517	509	79	0					
13	0	0	0	0	518	508	79	0					
14	0	0	0	0	516	505	79	0					
15	0	0	0	0	514	508	78	0					
0	0	0	0	0	511	505	79	0					
1	0	0	0	0	510	506	78	0					
2	0	0	0	0	507	508	79	0					
3	0	0	0	0	504	507	76	0					
4	0	0	0	0	504	508	78	0					
5	0	0	0	0	504	507	76	0					
6	0	0	0	0	502	505	79	0					
7	0	0	0	0	502	507	76	0					
8	0	0	0	0	507	507	76	0					
9	0	0	0	0	508	508	76	0					
10	0	0	0	0	512	508	75	0					
11	0	0	0	0	515	508	76	0					
12	0	0	0	0	518	510	78	0					
13	0	0	0	0	517	510	76	0					
14	0	0	0	0	518	512	77	0					
15	0	0	0	0	517	510	77	0					
0	0	0	0	0	518	507	77	0					
1	0	0	0	0	513	508	76	0					
2	0	0	0	0	512	510	78	0					
3	0	0	0	0	513	508	77	0					
4	0	0	0	0	511	505	77	0					
5	0	0	0	0	508	508	74	0					
6	0	0	0	0	508	507	74	0					
7	0	0	0	0	507	507	75	0					
8	0	0	0	0	504	504	75	0					
9	0	0	0	0	501	505	74	0					
10	0	0	0	0	501	506	74	0					
11	0	0	0	0	502	507	75	0					
12	0	0	0	0	504	510	75	0					
13	0	0	0	0	507	509	75	0					
14	0	0	0	0	513	510	75	0					
15	0	0	0	0	513	507	76	0					
0	0	0	0	0	516	508	75	0					
1	0	0	0	0	517	509	75	0					
2	0	0	0	0	515	510	75	0					
3	0	0	0	0	515	509	76	0					
4	0	0	0	0	514	509	75	0					
5	0	0	0	0	512	509	77	0					
6	0	0	0	0	513	508	78	0					
7	0	0	0	0	516	508	78	0					
8	0	0	0	0	512	506	78	0					
9	0	0	0	0	515	507	78	0					
10	0	0	0	0	508	505	78	0					
11	0	0	0	0	504	507	78	0					
12	0	0	0	0	504	508	79	0					
13	0	0	0	0	501	507	79	0					
14	0	0	0	0	501	507	78	0					
15	0	0	0	0	503	508	78	0					
0	0	0	0	0	505	508	78	0					
1	0	0	0	0	509	508	78	0					
2	0	0	0	0	511	507	78	0					
3	0	0	0	0	514	510	78	0					
4	0	0	0	0	518	510	77	0					
5	0	0	0	0	519	510	78	0					
6	0	0	0	0	517	508	78	0					
7	0	0	0	0	517	511	78	0					
8	0	0	0	0	517	510	78	0					
9	0	0	0	0	516	510	77	0					
10	0	0	0	0	515	506	77	0					
11	0	0	0	0	510	506	78	0					
12	0	0	0	0	510	505	78	0					
13	0	0	0	0	507	507	78	0					
14	0	0	0	0	508	507	78	0					
15	0	0	0	0	506	505	78	0					
0	0	0	0	0	503	508	76	0					
1	0	0	0	0	501	506	76	0					
2	0	0	0	0	500	505	76	0					
3	0	0	0	0	503	509	77	0					
4	0	0	0	0	506	510	77	0					
5	0	0	0	0	509	509	76	0					
6	0	0	0	0	512	508	76	0					
7	0	0	0	0	515	508	76	0					
8	0	0	0	0	519	510	76	0					
9	0	0	0	0	519	510	76	0					
10	0	0	0	0	518	510	76	0					
11	0	0	0	0	517	510	76	0					
12	0	0	0	0	515	509	77	0					
13	0	0	0	0	516	510	79	0					
14	0	0	0	0	516	505	78	0					
15	0	0	0	0	514	507	78	0					
0	0	0	0	0	509	507	77	0					
1	0	0	0	0	508	507	77	0					
2	0	0	0	0	506	506	77	0					
3	0	0	0	0	506	508	77	0					
4	0	0	0	0	502	506	77	0					
5	0	0	0	0	503	507	77	0					
6	0	0	0	0	502	508	77	0					
7	0	0	0	0	504	508	75	0					
8	0	0	0	0	506	507	75	0					
9	0	0	0	0	507	509	78	0					
10	0	0	0	0	512	511	77	0					
11	0	0	0	0	515	507	78	0					
12	0	0	0	0	519	509	78	0					
13	0	0	0	0	517	509	78	0					
14	0	0	0	0	516	511	77	0					
15	0	0	0	0	518	510	76	0					
0	0	0	0	0	516	508	73	0					
1	0	0	0	0	516	507	76	0					
2	0	0	0	0	515	509	76	0					
3	0	0	0	0	511	508	76	0					
4	0	0	0	0	510	507	77	0					
5	0	0	0	0	509	508	77	0					
6	0	0	0	0	507	506	76	0					
7	0	0	0	0	506	508	76	0					
8	0	0	0	0	504	506	76	0					
9	0	0	0	0	503	507	75	0					
10	0	0	0	0	503	505	76	0					
11	0	0	0	0	502	506	76	0					
12	0	0	0	0	505	507	78	0					
13	0	0	0	0	508	511	78	0					
14	0	0	0	0	511	508	77	0					
15	0	0	0	0	515	509	79	0					
0	0	0	0	0	516	510	77	0					
1	0	0	0	0	519	510	76	0					
2	0	0	0	0	519	510	76	0					
3	0	0	0	0	517	510	75	0					
4	0	0	0	0	515	508	76	0					
5	0	0	0	0	515	507	75	0					
6	0	0	0	0	512	506	76	0					
7	0	0	0	0	513	507	76	0					
8	0	0	0	0	514	509	76	0					
9	0	0	0	0	510	507	75	0					
10	0	0	0	0	506	507	76	0					
11	0	0	0	0	503	505	75	0					
12	0	0	0	0	504	507	76	0					
13	0	0	0	0	502	505	75	0					
14	0	0	0	0	503	506	75	0					
15	0	0	0	0	501	507	75	0					
0	0	0	0	0	505	510	75	0					
1	0	0	0	0	507	508	75	0					
2	0	0	0	0	512	507	75	0					
3	0	0	0	0	516	509	76	0					
4	0	0	0	0	517	508	75	0					
5	0	0	0	0	517	507	75	0					
6	0	0	0	0	517	511	76	0					
7	0	0	0	0	516	512	75	0					
8	0	0	0	0	518	510	75	0					
9	0	0	0	0	515	508	75	0					
10	0	0	0	0	516	509	74	0					
11	0	0	0	0	513	507	75	0					
12	0	0	0	0	511	504	75	0					
13	0	0	0	0	511	506	75	0					
14	0	0	0	0	507	507	75	0					
15	0	0	0	0	504	507	76	0					
0	0	0	0	0	503	506	76	0					
1	0	0	0	0	499	506	75	0					
2	0	0	0	0	499	507	72	0					
3	0	0	0	0	504	509	73	0					
4	0	0	0	0	506	510	74	0					
5	0	0	0	0	509	508	75	0					
6	0	0	0	0	510	508	75	0					
7	0	0	0	0	514	507	75	0					
8	0	0	0	0	516	509	76	0					
9	0	0	0	0	518	507	74	0					
10	0	0	0	0	518	508	75	0					
11	0	0	0	0	518	509	76	0					
12	0	0	0	0	520	510	75	0					
13	0	0	0	0	519	510	75	0					
14	0	0	0	0	515	507	75	0					
15	0	0	0	0	514	507	76	0					
0	0	0	0	0	510	504	75	0					
1	0	0	0	0	508	507	76	0					
2	0	0	0	0	508	506	75	0					
3	0	0	0	0	505	510	75	0					
4	0	0	0	0	507	507	74	0					
5	0	0	0	0	504	507	75	0					
6	0	0	0	0	504	504	75	0					
7	0	0	0	0	502	508	75	0					
8	0	0	0	0	505	507	74	0					
9	0	0	0	0	509	506	73	0					
10	0	0	0	0	511	507	75	0					
11	0	0	0	0	515	510	76	0					
12	0	0	0	0	516	509	75	0					
13	0	0	0	0	518	512	75	0					
14	0	0	0	0	516	508	75	0					
15	0	0	0	0	518	510	74	0					
0	0	0	0	0	515	511	75	0					
1	0	0	0	0	514	508	75	0					
2	0	0	0	0	513	507	75	0					
3	0	0	0	0	511	510	75	0					
4	0	0	0	0	510	508	75	0					
5	0	0	0	0	511	507	75	0					
6	0	0	0	0	510	509	74	0					
7	0	0	0	0	508	508	74	0					
8	0	0	0	0	505	505	74	0					
9	0	0	0	0	502	507	75	0					
10	0	0	0	0	502	507	74	0					
11	0	0	0	0	503	506	75	0					
12	0	0	0	0	503	508	74	0					
13	0	0	0	0	507	507	74	0					
14	0	0	0	0	511	509	73	0					
15	0	0	0	0	515	508	75	0					
0	0	0	0	0	519	508	75	0					
1	0	0	0	0	519	506	74	0					
2	0	0	0	0	518	507	76	0					
3	0	0	0	0	518	508	75	0					
4	0	0	0	0	516	511	76	0					
5	0	0	0	0	516	508	75	0					
6	0	0	0	0	514	505	74	0					
7	0	0	0	0	513	507	73	0					
8	0	0	0	0	509	507	74	0					
9	0	0	0	0	510	505	75	0					
10	0	0	0	0	505	507	74	0					
11	0	0	0	0	506	508	75	0					
12	0	0	0	0	506	508	75	0					
13	0	0	0	0	500	507	74	0					
14	0	0	0	0	503	507	72	0					
15	0	0	0	0	504	509	74	0					
0	0	0	0	0	505	510	74	0					
1	0	0	0	0	506	508	75	0					
2	0	0	0	0	511	509	75	0					
3	0	0	0	0	513	510	76	0					
4	0	0	0	0	515	508	75	0					
5	0	0	0	0	518	508	75	0					
6	0	0	0	0	517	511	74	0					
7	0	0	0	0	515	511	72	0					
8	0	0	0	0	516	508	73	0					
9	0	0	0	0	513	507	72	0					
10	0	0	0	0	512	506	73	0					
11	0	0	0	0	512	510	73	0					
12	0	0	0	0	513	508	74	0					
13	0	0	0	0	507	507	74	0					
14	0	0	0	0	508	505	74	0					
15	0	0	0	0	509	508	74	0					
0	0	0	0	0	507	507	73	0					
1	0	0	0	0	502	507	75	0					
2	0	0	0	0	503	507	74	0					
3	0	0	0	0	502	507	75	0					
4	0	0	0	0	505	508	73	0					
5	0	0	0	0	507	510	73	0					
6	0	0	0	0	511	507	75	0					
7	0	0	0	0	515	507	74	0					
8	0	0	0	0	519	508	74	0					
9	0	0	0	0	521	510	74	0					
10	0	0	0	0	518	508	74	0					
11	0	0	0	0	517	510	75	0					
12	0	0	0	0	517	510	73	0					
13	0	0	0	0	519	510	74	0					
14	0	0	0	0	515	508	74	0					
15	0	0	0	0	514	507	74	0					
0	0	0	0	0	511	506	74	0					
1	0	0	0	0	510	507	76	0					
2	0	0	0	0	507	506	74	0					
3	0	0	0	0	504	506	74	0					
4	0	0	0	0	502	508	74	0					
5	0	0	0	0	498	507	73	0					
6	0	0	0	0	500	507	74	0					
7	0	0	0	0	503	506	73	0					
8	0	0	0	0	504	509	72	0					
9	0	0	0	0	507	509	72	0					
10	0	0	0	0	511	509	72	0					
11	0	0	0	0	517	508	73	0					
12	0	0	0	0	518	509	74	0					
13	0	0	0	0	517	509	75	0					
14	0	0	0	0	517	511	74	0					
15	0	0	0	0	520	511	74	0					
0	0	0	0	0	518	509	75	0					
1	0	0	0	0	516	507	75	0					
2	0	0	0	0	514	505	75	0					
3	0	0	0	0	511	507	75	0					
4	0	0	0	0	511	508	75	0					
5	0	0	0	0	510	507	75	0					
6	0	0	0	0	507	509	76	0					
7	0	0	0	0	505	506	76	0					
8	0	0	0	0	504	508	75	0					
9	0	0	0	0	500	507	75	0					
10	0	0	0	0	500	505	74	0					
11	0	0	0	0	505	506	75	0					
12	0	0	0	0	505	508	75	0					
13	0	0	0	0	508	507	76	0					
14	0	0	0	0	511	508	75	0					
15	0	0	0	0	515	510	75	0					
0	0	0	0	0	517	510	76	0					
1	0	0	0	0	518	507	75	0					
2	0	0	0	0	518	510	74	0					
3	0	0	0	0	517	508	76	0					
4	0	0	0	0	515	508	74	0					
5	0	0	0	0	516	508	74	0					
6	0	0	0	0	512	509	74	0					
7	0	0	0	0	514	508	73	0					
8	0	0	0	0	512	508	75	0					
9	0	0	0	0	508	508	74	0					
10	0	0	0	0	507	508	74	0					
11	0	0	0	0	505	507	74	0					
12	0	0	0	0	503	509	74	0					
13	0	0	0	0	503	506	74	0					
14	0	0	0	0	503	508	74	0					
15	0	0	0	0	505	508	74	0					
0	0	0	0	0	506	506	73	0					
1	0	0	0	0	508	508	75	0					
2	0	0	0	0	514	508	74	0					
3	0	0	0	0	514	508	74	0					
4	0	0	0	0	515	509	74	0					
5	0	0	0	0	519	510	73	0					
6	0	0	0	0	518	510	74	0					
7	0	0	0	0	516	510	74	0					
8	0	0	0	0	519	510	74	0					
9	0	0	0	0	512	507	74	0					
10	0	0	0	0	513	506	74	0					
11	0	0	0	0	513	506	74	0					
12	0	0	0	0	511	506	73	0					
13	0	0	0	0	513	507	73	0					
14	0	0	0	0	508	507	75	0					
15	0	0	0	0	507	507	75	0					
0	0	0	0	0	503	509	74	0					
1	0	0	0	0	503	509	74	0					
2	0	0	0	0	502	509	74	0					
3	0	0	0	0	506	507	75	0					
4	0	0	0	0	504	508	75	0					
5	0	0	0	0	509	508	74	0					
6	0	0	0	0	511	508	74	0					
7	0	0	0	0	515	508	75	0					
8	0	0	0	0	514	508	75	0					
9	0	0	0	0	517	508	75	0					
10	0	0	0	0	515	510	75	0					
11	0	0	0	0	515	511	75	0					
12	0	0	0	0	515	510	75	0					
13	0	0	0	0	517	509	75	0					
14	0	0	0	0	515	508	76	0					
15	0	0	0	0	513	508	75	0					
0	0	0	0	0	510	506	75	0					
1	0	0	0	0	510	506	76	0					
2	0	0	0	0	507	507	76	0					
3	0	0	0	0	506	506	76	0					
4	0	0	0	0	504	505	76	0					
5	0	0	0	0	501	505	75	0					
6	0	0	0	0	503	508	77	0					
7	0	0	0	0	504	507	76	0					
8	0	0	0	0	504	505	77	0					
9	0	0	0	0	508	508	76	0					
10	0	0	0	0	513	509	77	0					
11	0	0	0	0	515	508	77	0					
12	0	0	0	0	515	509	78	0					
13	0	0	0	0	519	508	77	0					
14	0	0	0	0	519	510	76	0					
15	0	0	0	0	519	509	77	0					
0	0	0	0	0	515	509	78	0					
1	0	0	0	0	513	508	78	0					
2	0	0	0	0	512	507	77	0					
3	0	0	0	0	514	507	78	0					
4	0	0	0	0	514	506	77	0					
5	0	0	0	0	510	508	78	0					
6	0	0	0	0	509	509	78	0					
7	0	0	0	0	505	508	77	0					
8	0	0	0	0	504	506	79	0					
9	0	0	0	0	503	508	78	0					
10	0	0	0	0	500	508	78	0					
11	0	0	0	0	503	508	78	0					
12	0	0	0	0	504	507	78	0					
13	0	0	0	0	506	510	78	0					
14	0	0	0	0	511	508	78	0					
15	0	0	0	0	515	509	78	0					
0	0	0	0	0	515	508	78	0					
1	0	0	0	0	516	508	78	0					
2	0	0	0	0	516	509	77	0					
3	0	0	0	0	519	508	78	0					
4	0	0	0	0	519	509	78	0					
5	0	0	0	0	516	507	77	0					
6	0	0	0	0	514	507	78	0					
7	0	0	0	0	513	507	79	0					
8	0	0	0	0	511	506	77	0					
9	0	0	0	0	509	506	77	0					
10	0	0	0	0	507	505	78	0					
11	0	0	0	0	506	508	76	0					
12	0	0	0	0	505	506	78	0					
13	0	0	0	0	503	506	79	0					
14	0	0	0	0	502	508	79	0					
15	0	0	0	0	503	508	78	0					
0	0	0	0	0	505	507	76	0					
1	0	0	0	0	508	509	78	0					
2	0	0	0	0	511	508	79	0					
3	0	0	0	0	515	510	78	0					
4	0	0	0	0	519	509	79	0					
5	0	0	0	0	516	509	79	0					
6	0	0	0	0	518	508	80	0					
7	0	0	0	0	519	510	78	0					
8	0	0	0	0	520	509	80	0					
9	0	0	0	0	514	507	78	0					
10	0	0	0	0	514	510	79	0					
11	0	0	0	0	511	505	77	0					
12	0	0	0	0	512	508	78	0					
13	0	0	0	0	508	505	77	0					
14	0	0	0	0	505	507	77	0					
15	0	0	0	0	503	507	77	0					
0	0	0	0	0	504	508	78	0					
1	0	0	0	0	501	504	77	0					
2	0	0	0	0	502	508	79	0					
3	0	0	0	0	504	508	75	0					
4	0	0	0	0	505	508	76	0					
5	0	0	0	0	508	510	78	0					
6	0	0	0	0	511	508	77	0					
7	0	0	0	0	515	507	77	0					
8	0	0	0	0	515	508	77	0					
9	0	0	0	0	517	508	78	0					
10	0	0	0	0	514	509	78	0					
11	0	0	0	0	518	510	77	0					
12	0	0	0	0	515	510	77	0					
13	0	0	0	0	514	507	78	0					
14	0	0	0	0	513	505	78	0					
15	0	0	0	0	515	507	79	0					
0	0	0	0	0	514	505	78	0					
1	0	0	0	0	511	508	78	0					
2	0	0	0	0	509	509	78	0					
3	0	0	0	0	510	507	77	0					
4	0	0	0	0	508	508	76	0					
5	0	0	0	0	504	507	76	0					
6	0	0	0	0	503	507	77	0					
7	0	0	0	0	504	508	76	0					
8	0	0	0	0	505	508	78	0					
9	0	0	0	0	508	508	77	0					
10	0	0	0	0	513	507	79	0					
11	0	0	0	0	513	508	78	0					
12	0	0	0	0	514	507	78	0					
13	0	0	0	0	515	508	79	0					
14	0	0	0	0	513	510	78	0					
15	0	0	0	0	514	510	77	0					
0	0	0	0	0	517	508	76	0					
1	0	0	0	0	514	508	77	0					
2	0	0	0	0	514	510	77	0					
3	0	0	0	0	513	507	78	0					
4	0	0	0	0	512	506	77	0					
5	0	0	0	0	510	507	78	0					
6	0	0	0	0	508	507	78	0					
7	0	0	0	0	505	509	76	0					
8	0	0	0	0	504	509	79	0					
9	0	0	0	0	505	507	79	0					
10	0	0	0	0	505	507	75	0					
11	0	0	0	0	505	508	77	0					
12	0	0	0	0	505	509	76	0					
13	0	0	0	0	507	507	76	0					
14	0	0	0	0	508	508	77	0					
15	0	0	0	0	512	508	77	0					
0	0	0	0	0	513	509	76	0					
1	0	0	0	0	518	508	75	0					
2	0	0	0	0	517	508	76	0					
3	0	0	0	0	516	511	77	0					
4	0	0	0	0	516	508	78	0					
5	0	0	0	0	516	505	75	0					
6	0	0	0	0	514	507	78	0					
7	0	0	0	0	514	508	78	0					
8	0	0	0	0	512	507	76	0					
9	0	0	0	0	508	505	76	0					
10	0	0	0	0	509	506	79	0					
11	0	0	0	0	509	508	76	0					
12	0	0	0	0	507	507	76	0					
13	0	0	0	0	505	508	77	0					
14	0	0	0	0	503	509	79	0					
15	0	0	0	0	501	509	73	0					
0	0	0	0	0	504	508	73	0					
1	0	0	0	0	507	508	74	0					
2	0	0	0	0	509	510	73	0					
3	0	0	0	0	513	508	74	0					
4	0	0	0	0	513	507	73	0					
5	0	0	0	0	515	508	76	0					
6	0	0	0	0	513	509	73	0					
7	0	0	0	0	515	509	72	0					
8	0	0	0	0	517	509	72	0					
9	0	0	0	0	517	510	71	0					
10	0	0	0	0	517	506	71	0					
11	0	0	0	0	515	508	71	0					
12	0	0	0	0	510	506	71	0					
13	0	0	0	0	507	508	72	0					
14	0	0	0	0	509	507	72	0					
15	0	0	0	0	508	507	71	0					
0	0	0	0	0	508	505	71	0					
1	0	0	0	0	502	507	72	0					
2	0	0	0	0	504	507	74	0					
3	0	0	0	0	503	507	75	0					
4	0	0	0	0	504	508	77	0					
5	0	0	0	0	507	508	75	0					
6	0	0	0	0	509	508	74	0					
7	0	0	0	0	513	509	75	0					
8	0	0	0	0	516	507	76	0					
9	0	0	0	0	515	509	76	0					
10	0	0	0	0	516	512	75	0					
11	0	0	0	0	515	510	74	0					
12	0	0	0	0	516	506	77	0					
13	0	0	0	0	516	508	77	0					
14	0	0	0	0	515	508	76	0					
15	0	0	0	0	512	507	78	0					
0	0	0	0	0	509	508	80	0					
1	0	0	0	0	509	509	73	0					
2	0	0	0	0	508	508	76	0					
3	0	0	0	0	510	505	77	0					
4	0	0	0	0	506	508	76	0					
5	0	0	0	0	504	509	78	0					
6	0	0	0	0	504	508	77	0					
7	0	0	0	0	505	508	73	0					
8	0	0	0	0	505	510	76	0					
9	0	0	0	0	508	508	76	0					
10	0	0	0	0	509	509	80	0					
11	0	0	0	0	510	507	80	0					
12	0	0	0	0	512	510	81	0					
13	0	0	0	0	516	509	80	0					
14	0	0	0	0	515	510	83	0					
15	0	0	0	0	516	512	86	0					
0	0	0	0	0	516	508	82	0					
1	0	0	0	0	515	508	82	0					
2	0	0	0	0	513	508	82	0					
3	0	0	0	0	515	507	82	0					
4	0	0	0	0	513	505	82	0					
5	0	0	0	0	509	506	80	0					
6	0	0	0	0	511	507	82	0					
7	0	0	0	0	507	506	81	0					
8	0	0	0	0	506	506	80	0					
9	0	0	0	0	502	505	79	0					
10	0	0	0	0	504	507	84	0					
11	0	0	0	0	507	508	82	0					
12	0	0	0	0	505	509	78	0					
13	0	0	0	0	508	509	81	0					
14	0	0	0	0	510	510	85	0					
15	0	0	0	0	511	508	84	0					
0	0	0	0	0	513	509	84	0					
1	0	0	0	0	513	509	82	0					
2	0	0	0	0	515	508	85	0					
3	0	0	0	0	517	509	79	0					
4	0	0	0	0	517	510	77	0					
5	0	0	0	0	516	506	77	0					
6	0	0	0	0	515	506	77	0					
7	0	0	0	0	514	508	77	0					
8	0	0	0	0	513	509	78	0					
9	0	0	0	0	510	507	78	0					
10	0	0	0	0	509	508	76	0					
11	0	0	0	0	505	508	77	0					
12	0	0	0	0	504	507	85	0					
13	0	0	0	0	504	507	85	0					
14	0	0	0	0	506	509	85	0					
15	0	0	0	0	504	508	79	0					
0	0	0	0	0	507	508	79	0					
1	0	0	0	0	508	506	79	0					
2	0	0	0	0	510	508	79	0					
3	0	0	0	0	513	509	77	0					
4	0	0	0	0	515	508	83	0					
5	0	0	0	0	516	507	78	0					
6	0	0	0	0	516	509	75	0					
7	0	0	0	0	516	508	77	0					
8	0	0	0	0	515	510	77	0					
9	0	0	0	0	515	508	78	0					
10	0	0	0	0	514	507	78	0					
11	0	0	0	0	512	504	78	0					
12	0	0	0	0	512	507	77	0					
13	0	0	0	0	508	506	81	0					
14	0	0	0	0	506	508	76	0					
15	0	0	0	0	507	507	77	0					
0	0	0	0	0	503	509	76	0					
1	0	0	0	0	503	508	76	0					
2	0	0	0	0	503	507	77	0					
3	0	0	0	0	506	508	77	0					
4	0	0	0	0	507	509	76	0					
5	0	0	0	0	507	507	78	0					
6	0	0	0	0	511	507	77	0					
7	0	0	0	0	513	509	76	0					
8	0	0	0	0	513	508	76	0					
9	0	0	0	0	515	508	76	0					
10	0	0	0	0	514	510	76	0					
11	0	0	0	0	516	510	76	0					
12	0	0	0	0	519	510	77	0					
13	0	0	0	0	515	507	77	0					
14	0	0	0	0	513	505	75	0					
15	0	0	0	0	514	508	77	0					
0	0	0	0	0	512	506	76	0					
1	0	0	0	0	512	508	75	0					
2	0	0	0	0	508	505	78	0					
3	0	0	0	0	508	508	78	0					
4	0	0	0	0	505	507	81	0					
5	0	0	0	0	505	507	76	0					
6	0	0	0	0	503	508	80	0					
7	0	0	0	0	504	507	78	0					
8	0	0	0	0	504	509	78	0					
9	0	0	0	0	507	508	79	0					
10	0	0	0	0	512	508	79	0					
11	0	0	0	0	515	509	79	0					
12	0	0	0	0	516	510	79	0					
13	0	0	0	0	516	510	79	0					
14	0	0	0	0	513	508	78	0					
15	0	0	0	0	516	508	78	0					
0	0	0	0	0	518	510	78	0					
1	0	0	0	0	515	508	80	0					
2	0	0	0	0	513	508	79	0					
3	0	0	0	0	516	508	79	0					
4	0	0	0	0	514	507	79	0					
5	0	0	0	0	514	507	80	0					
6	0	0	0	0	510	506	81	0					
7	0	0	0	0	507	508	80	0					
8	0	0	0	0	507	506	83	0					
9	0	0	0	0	504	507	85	0					
10	0	0	0	0	502	508	82	0					
11	0	0	0	0	503	507	79	0					
12	0	0	0	0	503	507	80	0					
13	0	0	0	0	504	506	81	0					
14	0	0	0	0	508	508	81	0					
15	0	0	0	0	512	510	81	0					
0	0	0	0	0	515	510	79	0					
1	0	0	0	0	515	508	83	0					
2	0	0	0	0	516	508	78	0					
3	0	0	0	0	513	511	84	0					
4	0	0	0	0	517	508	77	0					
5	0	0	0	0	518	505	79	0					
6	0	0	0	0	515	509	75	0					
7	0	0	0	0	513	509	77	0					
8	0	0	0	0	512	507	79	0					
9	0	0	0	0	511	507	79	0					
10	0	0	0	0	510	509	73	0					
11	0	0	0	0	509	507	89	0					
12	0	0	0	0	505	507	77	0					
13	0	0	0	0	504	505	80	0					
14	0	0	0	0	503	509	80	0					
15	0	0	0	0	502	508	80	0					
0	0	0	0	0	503	508	81	0					
1	0	0	0	0	507	508	80	0					
2	0	0	0	0	512	508	77	0					
3	0	0	0	0	511	509	79	0					
4	0	0	0	0	514	509	79	0					
5	0	0	0	0	517	510	79	0					
6	0	0	0	0	514	509	79	0					
7	0	0	0	0	514	512	79	0					
8	0	0	0	0	517	509	79	0					
9	0	0	0	0	519	509	79	0					
10	0	0	0	0	517	507	79	0					
11	0	0	0	0	514	504	78	0					
12	0	0	0	0	511	508	79	0					
13	0	0	0	0	511	507	80	0					
14	0	0	0	0	509	507	77	0					
15	0	0	0	0	507	508	79	0					
0	0	0	0	0	504	505	79	0					
1	0	0	0	0	504	507	79	0					
2	0	0	0	0	504	508	78	0					
3	0	0	0	0	505	507	81	0					
4	0	0	0	0	507	508	79	0					
5	0	0	0	0	504	507	79	0					
6	0	0	0	0	510	508	79	0					
7	0	0	0	0	511	509	79	0					
8	0	0	0	0	514	508	80	0					
9	0	0	0	0	517	508	79	0					
10	0	0	0	0	515	509	79	0					
11	0	0	0	0	515	508	78	0					
12	0	0	0	0	516	510	79	0					
13	0	0	0	0	515	507	79	0					
14	0	0	0	0	515	507	80	0					
15	0	0	0	0	513	506	82	0					
0	0	0	0	0	511	507	82	0					
1	0	0	0	0	510	508	82	0					
2	0	0	0	0	511	507	79	0					
3	0	0	0	0	508	507	86	0					
4	0	0	0	0	507	507	84	0					
5	0	0	0	0	504	507	86	0					
6	0	0	0	0	503	506	87	0					
7	0	0	0	0	506	508	85	0					
8	0	0	0	0	505	507	79	0					
9	0	0	0	0	505	509	84	0					
10	0	0	0	0	509	508	75	0					
11	0	0	0	0	513	510	80	0					
12	0	0	0	0	513	508	77	0					
13	0	0	0	0	514	508	83	0					
14	0	0	0	0	516	510	83	0					
15	0	0	0	0	519	510	83	0					
0	0	0	0	0	516	508	80	0					
1	0	0	0	0	516	507	82	0					
2	0	0	0	0	515	506	83	0					
3	0	0	0	0	513	508	82	0					
4	0	0	0	0	512	506	81	0					
5	0	0	0	0	512	507	82	0					
6	0	0	0	0	510	508	82	0					
7	0	0	0	0	509	508	83	0					
8	0	0	0	0	507	506	83	0					
9	0	0	0	0	506	504	81	0					
10	0	0	0	0	502	508	83	0					
11	0	0	0	0	503	508	82	0					
12	0	0	0	0	504	506	83	0					
13	0	0	0	0	506	508	83	0					
14	0	0	0	0	507	508	83	0					
15	0	0	0	0	507	509	83	0					
0	0	0	0	0	513	511	82	0					
1	0	0	0	0	514	511	84	0					
2	0	0	0	0	515	510	83	0					
3	0	0	0	0	518	509	82	0					
4	0	0	0	0	526	507	83	0					
5	0	0	0	0	526	507	83	0					
6	0	0	0	0	519	510	82	0					
7	0	0	0	0	512	507	82	0					
8	0	0	0	0	510	506	82	0					
9	0	0	0	0	508	508	83	0					
10	0	0	0	0	493	508	83	0					
11	0	0	0	0	495	507	82	0					
12	0	0	0	0	502	507	81	0					
13	0	0	0	0	505	507	82	0					
14	0	0	0	0	504	507	82	0					
15	0	0	0	0	512	505	82	0					
0	0	0	0	0	516	505	83	0					
1	0	0	0	0	518	509	83	0					
2	0	0	0	0	520	509	82	0					
3	0	0	0	0	520	511	82	0					
4	0	0	0	0	515	509	83	0					
5	0	0	0	0	483	513	83	0					
6	0	0	0	0	483	512	83	0					
7	0	0	0	0	508	508	83	0					
8	0	0	0	0	518	510	83	0					
9	0	0	0	0	528	508	83	0					
10	0	0	0	0	539	504	82	0					
11	0	0	0	0	539	502	82	0					
12	0	0	0	0	529	505	82	0					
13	0	0	0	0	529	507	83	0					
14	0	0	0	0	530	508	82	0					
15	0	0	0	0	520	508	83	0					
0	0	0	0	0	487	513	83	0					
1	0	0	0	0	476	511	84	0					
2	0	0	0	0	473	507	83	0					
3	0	0	0	0	464	509	84	0					
4	0	0	0	0	472	508	84	0					
5	0	0	0	0	499	505	84	0					
6	0	0	0	0	524	504	85	0					
7	0	0	0	0	531	505	84	0					
8	0	0	0	0	533	510	85	0					
9	0	0	0	0	535	505	85	0					
10	0	0	0	0	523	507	85	0					
11	0	0	0	0	506	509	86	0					
12	0	0	0	0	497	508	84	0					
13	0	0	0	0	504	508	85	0					
14	0	0	0	0	504	510	87	0					
15	0	0	0	0	502	515	88	0					
0	0	0	0	0	499	510	88	0					
1	0	0	0	0	501	503	89	0					
2	0	0	0	0	512	504	88	0					
3	0	0	0	0	521	506	92	0					
4	0	0	0	0	520	505	91	0					
5	0	0	0	0	521	501	86	0					
6	0	0	0	0	517	508	88	0					
7	0	0	0	0	506	511	91	0					
8	0	0	0	0	512	509	92	0					
9	0	0	0	0	517	507	92	0					
10	0	0	0	0	512	507	92	0					
11	0	0	0	0	510	513	93	0					
12	0	0	0	0	509	515	92	0					
13	0	0	0	0	511	510	94	0					
14	0	0	0	0	517	507	97	0					
15	0	0	0	0	518	508	94	0					
0	0	0	0	0	523	505	91	0					
1	0	0	0	0	527	514	91	0					
2	0	0	0	0	533	513	90	0					
3	0	0	0	0	507	507	93	0					
4	0	0	0	0	509	501	92	0					
5	0	0	0	0	521	507	97	0					
6	0	0	0	0	500	509	95	0					
7	0	0	0	0	493	506	96	0					
8	0	0	0	0	491	505	96	0					
9	0	0	0	0	491	512	97	0					
10	0	0	0	0	497	507	96	0					
11	0	0	0	0	502	506	96	0					
12	0	0	0	0	500	505	95	0					
13	0	0	0	0	507	508	97	0					
14	0	0	0	0	510	506	98	0					
15	0	0	0	0	513	508	95	0					
0	0	0	0	0	516	509	97	0					
1	0	0	0	0	524	510	93	0					
2	0	0	0	0	519	508	96	0					
3	0	0	0	0	518	510	96	0					
4	0	0	0	0	521	508	94	0					
5	0	0	0	0	518	507	94	0					
6	0	0	0	0	520	507	95	0					
7	0	0	0	0	521	505	95	0					
8	0	0	0	0	517	507	95	0					
9	0	0	0	0	512	506	95	0					
10	0	0	0	0	510	506	96	0					
11	0	0	0	0	511	507	95	0					
12	0	0	0	0	508	507	95	0					
13	0	0	0	0	503	508	93	0					
14	0	0	0	0	492	507	89	0					
15	0	0	0	0	500	508	94	0					
0	0	0	0	0	505	508	92	0					
1	0	0	0	0	508	504	95	0					
2	0	0	0	0	512	507	95	0					
3	0	0	0	0	518	509	97	0					
4	0	0	0	0	529	508	95	0					
5	0	0	0	0	534	510	97	0					
6	0	0	0	0	524	516	100	0					
7	0	0	0	0	522	514	101	0					
8	0	0	0	0	520	508	102	0					
9	0	0	0	0	496	507	99	0					
10	0	0	0	0	477	504	100	0					
11	0	0	0	0	476	505	100	0					
12	0	0	0	0	504	507	103	0					
13	0	0	0	0	518	505	101	0					
14	0	0	0	0	531	507	103	0					
15	0	0	0	0	533	509	98	0					
0	0	0	0	0	522	507	101	0					
1	0	0	0	0	505	505	99	0					
2	0	0	0	0	487	508	101	0					
3	0	0	0	0	482	510	102	0					
4	0	0	0	0	488	510	98	0					
5	0	0	0	0	487	508	101	0					
6	0	0	0	0	503	510	100	0					
7	0	0	0	0	513	508	101	0					
8	0	0	0	0	516	506	105	0					
9	0	0	0	0	501	510	102	0					
10	0	0	0	0	516	507	103	0					
11	0	0	0	0	525	507	103	0					
12	0	0	0	0	530	508	104	0					
13	0	0	0	0	539	509	105	0					
14	0	0	0	0	537	510	107	0					
15	0	0	0	0	529	505	104	0					
0	0	0	0	0	512	508	103	0					
1	0	0	0	0	505	507	104	0					
2	0	0	0	0	504	506	107	0					
3	0	0	0	0	496	507	103	0					
4	0	0	0	0	503	507	108	0					
5	0	0	0	0	505	507	103	0					
6	0	0	0	0	505	508	105	0					
7	0	0	0	0	506	505	107	0					
8	0	0	0	0	508	511	108	0					
9	0	0	0	0	508	511	100	0					
10	0	0	0	0	512	508	101	0					
11	0	0	0	0	513	510	103	0					
12	0	0	0	0	515	507	106	0					
13	0	0	0	0	514	508	102	0					
14	0	0	0	0	513	509	101	0					
15	0	0	0	0	512	509	101	0					
0	0	0	0	0	511	508	101	0					
1	0	0	0	0	516	508	101	0					
2	0	0	0	0	514	508	101	0					
3	0	0	0	0	513	507	103	0					
4	0	0	0	0	510	507	103	0					
5	0	0	0	0	514	506	105	0					
6	0	0	0	0	512	505	99	0					
7	0	0	0	0	509	507	99	0					
8	0	0	0	0	510	507	99	0					
9	0	0	0	0	508	506	96	0					
10	0	0	0	0	494	508	88	0					
11	0	0	0	0	489	506	81	0					
12	0	0	0	0	503	509	81	0					
13	0	0	0	0	515	507	81	0					
14	0	0	0	0	522	508	82	0					
15	0	0	0	0	510	507	82	0					
0	0	0	0	0	519	507	82	0					
1	0	0	0	0	526	508	82	0					
2	0	0	0	0	513	510	80	0					
3	0	0	0	0	506	510	80	0					
4	0	0	0	0	506	507	80	0					
5	0	0	0	0	513	509	80	0					
6	0	0	0	0	516	508	80	0					
7	0	0	0	0	514	508	80	0					
8	0	0	0	0	515	507	79	0					
9	0	0	0	0	512	508	79	0					
10	0	0	0	0	510	507	79	0					
11	0	0	0	0	507	507	78	0					
12	0	0	0	0	507	509	79	0					
13	0	0	0	0	503	506	76	0					
14	0	0	0	0	500	508	75	0					
15	0	0	0	0	505	508	75	0					
0	0	0	0	0	507	510	76	0					
1	0	0	0	0	510	508	76	0					
2	0	0	0	0	516	508	76	0					
3	0	0	0	0	522	509	75	0					
4	0	0	0	0	523	508	74	0					
5	0	0	0	0	519	508	73	0					
6	0	0	0	0	512	509	74	0					
7	0	0	0	0	508	509	73	0					
8	0	0	0	0	504	509	71	0					
9	0	0	0	0	506	508	72	0					
10	0	0	0	0	510	508	69	0					
11	0	0	0	0	513	507	71	0					
12	0	0	0	0	505	506	70	0					
13	0	0	0	0	508	508	69	0					
14	0	0	0	0	511	507	70	0					
15	0	0	0	0	511	509	69	0					
0	0	0	0	0	506	505	66	0					
1	0	0	0	0	503	506	68	0					
2	0	0	0	0	508	507	67	0					
3	0	0	0	0	510	505	66	0					
4	0	0	0	0	512	510	62	0					
5	0	0	0	0	513	507	63	0					
6	0	0	0	0	513	507	63	0					
7	0	0	0	0	511	506	60	0					
8	0	0	0	0	512	510	55	0					
9	0	0	0	0	506	509	53	0					
10	0	0	0	0	511	511	54	0					
11	0	0	0	0	526	511	51	0					
12	0	0	0	0	524	507	50	0					
13	0	0	0	0	522	506	49	0					
14	0	0	0	0	516	507	46	0					
15	0	0	0	0	510	509	44	0					
0	0	0	0	0	515	508	46	0					
1	0	0	0	0	507	508	40	0					
2	0	0	0	0	494	507	39	0					
3	0	0	0	0	491	504	39	0					
4	0	0	0	0	502	501	41	0					
5	0	0	0	0	507	500	42	0					
6	0	0	0	0	499	504	46	0					
7	0	0	0	0	499	510	44	0					
8	0	0	0	0	502	513	43	0					
9	0	0	0	0	502	516	41	0					
10	0	0	0	0	508	515	39	0					
11	0	0	0	0	520	515	39	0					
12	0	0	0	0	526	510	39	0					
13	0	0	0	0	527	508	38	0					
14	0	0	0	0	519	508	38	0					
15	0	0	0	0	506	508	37	0					
0	0	0	0	0	503	508	35	0					
1	0	0	0	0	504	507	36	0					
2	0	0	0	0	519	507	37	0					
3	0	0	0	0	532	507	36	0					
4	0	0	0	0	532	505	36	0					
5	0	0	0	0	532	504	35	0					
6	0	0	0	0	520	506	36	0					
7	0	0	0	0	515	505	37	0					
8	0	0	0	0	512	506	37	0					
9	0	0	0	0	495	508	38	0					
10	0	0	0	0	483	507	38	0					
11	0	0	0	0	478	508	39	0					
12	0	0	0	0	492	512	39	0					
13	0	0	0	0	492	509	39	0					
14	0	0	0	0	492	507	40	0					
15	0	0	0	0	501	508	40	0					
0	0	0	0	0	518	509	40	0					
1	0	0	0	0	515	510	40	0					
2	0	0	0	0	515	511	38	0					
3	0	0	0	0	520	509	39	0					
4	0	0	0	0	524	510	39	0					
5	0	0	0	0	523	509	40	0					
6	0	0	0	0	530	506	39	0					
7	0	0	0	0	523	505	40	0					
8	0	0	0	0	516	506	39	0					
9	0	0	0	0	515	505	40	0					
10	0	0	0	0	512	506	40	0					
11	0	0	0	0	509	508	40	0					
12	0	0	0	0	501	507	36	0					
13	0	0	0	0	501	503	38	0					
14	0	0	0	0	497	507	38	0					
15	0	0	0	0	507	509	38	0					
0	0	0	0	0	508	507	34	0					
1	0	0	0	0	508	504	34	0					
2	0	0	0	0	510	509	37	0					
3	0	0	0	0	518	510	31	0					
4	0	0	0	0	519	509	38	0					
5	0	0	0	0	522	512	39	0					
6	0	0	0	0	529	517	38	0					
7	0	0	0	0	521	519	36	0					
8	0	0	0	0	513	516	36	0					
9	0	0	0	0	500	503	34	0					
10	0	0	0	0	508	501	34	0					
11	0	0	0	0	504	503	33	0					
12	0	0	0	0	513	504	32	0					
13	0	0	0	0	512	506	24	0					
14	0	0	0	0	509	505	27	0					
15	0	0	0	0	503	508	28	0					
0	0	0	0	0	499	505	18	0					
1	0	0	0	0	499	506	19	0					
2	0	0	0	0	498	507	19	0					
3	0	0	0	0	493	507	19	0					
4	0	0	0	0	504	508	19	0					
5	0	0	0	0	510	509	20	0					
6	0	0	0	0	522	508	21	0					
7	0	0	0	0	523	508	20	0					
8	0	0	0	0	521	509	22	0					
9	0	0	0	0	519	509	24	0					
10	0	0	0	0	518	511	23	0					
11	0	0	0	0	516	511	22	0					
12	0	0	0	0	518	508	21	0					
13	0	0	0	0	522	507	19	0					
14	0	0	0	0	515	508	20	0					
15	0	0	0	0	510	508	19	0					
0	0	0	0	0	508	506	19	0					
1	0	0	0	0	509	507	19	0					
2	0	0	0	0	507	507	18	0					
3	0	0	0	0	508	509	18	0					
4	0	0	0	0	506	507	18	0					
5	0	0	0	0	505	508	19	0					
6	0	0	0	0	502	507	20	0					
7	0	0	0	0	508	508	22	0					
8	0	0	0	0	512	508	24	0					
9	0	0	0	0	512	508	24	0					
10	0	0	0	0	512	508	24	0					
11	0	0	0	0	513	510	20	0					
12	0	0	0	0	507	508	19	0					
13	0	0	0	0	505	508	19	0					
14	0	0	0	0	504	511	19	0					
15	0	0	0	0	514	510	17	0					
0	0	0	0	0	519	510	18	0					
1	0	0	0	0	522	507	16	0					
2	0	0	0	0	521	505	14	0					
3	0	0	0	0	516	507	15	0					
4	0	0	0	0	511	507	14	0					
5	0	0	0	0	503	506	19	0					
6	0	0	0	0	496	505	19	0					
7	0	0	0	0	501	507	19	0					
8	0	0	0	0	505	507	19	0					
9	0	0	0	0	506	508	20	0					
10	0	0	0	0	506	508	21	0					
11	0	0	0	0	504	508	19	0					
12	0	0	0	0	503	510	19	0					
13	0	0	0	0	508	509	19	0					
14	0	0	0	0	511	510	19	0					
15	0	0	0	0	515	508	19	0					
0	0	0	0	0	519	510	18	0					
1	0	0	0	0	519	509	18	0					
2	0	0	0	0	525	509	16	0					
3	0	0	0	0	533	507	16	0					
4	0	0	0	0	524	506	15	0					
5	0	0	0	0	517	507	15	0					
6	0	0	0	0	515	508	18	0					
7	0	0	0	0	516	509	21	0					
8	0	0	0	0	508	508	22	0					
9	0	0	0	0	499	507	20	0					
10	0	0	0	0	496	506	20	0					
11	0	0	0	0	504	506	20	0					
12	0	0	0	0	508	508	24	0					
13	0	0	0	0	507	507	22	0					
14	0	0	0	0	499	507	23	0					
15	0	0	0	0	488	508	23	0					
0	0	0	0	0	482	507	24	0					
1	0	0	0	0	500	508	24	0					
2	0	0	0	0	512	508	24	0					
3	0	0	0	0	520	509	25	0					
4	0	0	0	0	521	508	25	0					
5	0	0	0	0	522	508	27	0					
6	0	0	0	0	520	509	27	0					
7	0	0	0	0	519	510	27	0					
8	0	0	0	0	520	508	28	0					
9	0	0	0	0	522	507	28	0					
10	0	0	0	0	519	509	29	0					
11	0	0	0	0	516	507	30	0					
12	0	0	0	0	514	509	31	0					
13	0	0	0	0	517	509	31	0					
14	0	0	0	0	513	508	33	0					
15	0	0	0	0	509	508	33	0					
0	0	0	0	0	506	504	35	0					
1	0	0	0	0	507	505	35	0					
2	0	0	0	0	507	508	35	0					
3	0	0	0	0	504	510	36	0					
4	0	0	0	0	506	509	36	0					
5	0	0	0	0	505	507	37	0					
6	0	0	0	0	507	508	38	0					
7	0	0	0	0	510	508	37	0					
8	0	0	0	0	508	510	39	0					
9	0	0	0	0	516	510	39	0					
10	0	0	0	0	515	506	39	0					
11	0	0	0	0	515	508	39	0					
12	0	0	0	0	517	509	39	0					
13	0	0	0	0	516	508	39	0					
14	0	0	0	0	516	506	40	0					
15	0	0	0	0	519	507	39	0					
0	0	0	0	0	516	504	41	0					
1	0	0	0	0	511	507	41	0					
2	0	0	0	0	503	505	43	0					
3	0	0	0	0	497	507	43	0					
4	0	0	0	0	500	507	44	0					
5	0	0	0	0	503	508	44	0					
6	0	0	0	0	505	506	45	0					
7	0	0	0	0	508	508	45	0					
8	0	0	0	0	511	509	46	0					
9	0	0	0	0	510	508	47	0					
10	0	0	0	0	510	509	47	0					
11	0	0	0	0	511	510	46	0					
12	0	0	0	0	515	510	47	0					
13	0	0	0	0	516	509	46	0					
14	0	0	0	0	516	508	47	0					
15	0	0	0	0	518	509	49	0					
0	0	0	0	0	518	509	48	0					
1	0	0	0	0	521	510	49	0					
2	0	0	0	0	516	508	49	0					
3	0	0	0	0	514	508	51	0					
4	0	0	0	0	512	507	51	0					
5	0	0	0	0	508	506	51	0					
6	0	0	0	0	503	506	52	0					
7	0	0	0	0	499	505	52	0					
8	0	0	0	0	504	508	52	0					
9	0	0	0	0	503	506	53	0					
10	0	0	0	0	504	505	53	0					
11	0	0	0	0	503	506	52	0					
12	0	0	0	0	507	508	53	0					
13	0	0	0	0	508	508	53	0					
14	0	0	0	0	511	508	53	0					
15	0	0	0	0	518	509	53	0					
0	0	0	0	0	519	507	53	0					
1	0	0	0	0	518	508	54	0					
2	0	0	0	0	517	511	54	0					
3	0	0	0	0	517	510	54	0					
4	0	0	0	0	513	508	53	0					
5	0	0	0	0	515	509	54	0					
6	0	0	0	0	508	507	53	0					
7	0	0	0	0	503	505	52	0					
8	0	0	0	0	514	508	54	0					
9	0	0	0	0	519	506	54	0					
10	0	0	0	0	511	505	53	0					
11	0	0	0	0	506	507	53	0					
12	0	0	0	0	506	507	53	0					
13	0	0	0	0	505	509	54	0					
14	0	0	0	0	502	509	54	0					
15	0	0	0	0	505	510	54	0					
0	0	0	0	0	507	509	55	0					
1	0	0	0	0	510	509	54	0					
2	0	0	0	0	514	507	54	0					
3	0	0	0	0	517	509	54	0					
4	0	0	0	0	513	508	55	0					
5	0	0	0	0	511	510	55	0					
6	0	0	0	0	515	511	55	0					
7	0	0	0	0	515	509	54	0					
8	0	0	0	0	521	507	53	0					
9	0	0	0	0	518	507	54	0					
10	0	0	0	0	512	507	54	0					
11	0	0	0	0	506	508	54	0					
12	0	0	0	0	496	508	54	0					
13	0	0	0	0	499	507	54	0					
14	0	0	0	0	507	507	55	0					
15	0	0	0	0	508	506	55	0					
0	0	0	0	0	510	506	54	0					
1	0	0	0	0	508	506	55	0					
2	0	0	0	0	506	507	54	0					
3	0	0	0	0	508	507	56	0					
4	0	0	0	0	510	508	55	0					
5	0	0	0	0	508	506	56	0					
6	0	0	0	0	512	509	55	0					
7	0	0	0	0	512	509	55	0					
8	0	0	0	0	514	510	55	0					
9	0	0	0	0	520	508	54	0					
10	0	0	0	0	519	511	55	0					
11	0	0	0	0	525	510	55	0					
12	0	0	0	0	526	510	55	0					
13	0	0	0	0	524	509	56	0					
14	0	0	0	0	519	505	57	0					
15	0	0	0	0	510	506	56	0					
0	0	0	0	0	490	506	56	0					
1	0	0	0	0	481	506	55	0					
2	0	0	0	0	492	506	55	0					
3	0	0	0	0	507	509	55	0					
4	0	0	0	0	511	508	55	0					
5	0	0	0	0	509	506	56	0					
6	0	0	0	0	505	505	55	0					
7	0	0	0	0	507	507	55	0					
8	0	0	0	0	511	511	55	0					
9	0	0	0	0	511	510	55	0					
10	0	0	0	0	517	511	56	0					
11	0	0	0	0	518	508	56	0					
12	0	0	0	0	520	510	55	0					
13	0	0	0	0	517	507	56	0					
14	0	0	0	0	517	509	57	0					
15	0	0	0	0	519	511	57	0					
0	0	0	0	0	516	509	57	0					
1	0	0	0	0	510	508	57	0					
2	0	0	0	0	503	508	57	0					
3	0	0	0	0	511	508	58	0					
4	0	0	0	0	511	506	58	0					
5	0	0	0	0	510	505	58	0					
6	0	0	0	0	509	505	58	0					
7	0	0	0	0	507	506	58	0					
8	0	0	0	0	508	506	59	0					
9	0	0	0	0	506	508	60	0					
10	0	0	0	0	504	507	60	0					
11	0	0	0	0	507	507	60	0					
12	0	0	0	0	507	509	60	0					
13	0	0	0	0	509	509	59	0					
14	0	0	0	0	509	508	60	0					
15	0	0	0	0	513	511	59	0					
0	0	0	0	0	515	510	59	0					
1	0	0	0	0	515	509	59	0					
2	0	0	0	0	516	508	59	0					
3	0	0	0	0	518	510	59	0					
4	0	0	0	0	517	508	59	0					
5	0	0	0	0	517	508	59	0					
6	0	0	0	0	514	508	59	0					
7	0	0	0	0	512	505	59	0					
8	0	0	0	0	512	506	60	0					
9	0	0	0	0	511	504	59	0					
10	0	0	0	0	511	507	60	0					
11	0	0	0	0	505	506	60	0					
12	0	0	0	0	505	507	60	0					
13	0	0	0	0	505	508	61	0					
14	0	0	0	0	505	506	60	0					
15	0	0	0	0	504	506	60	0					
0	0	0	0	0	507	507	60	0					
1	0	0	0	0	506	508	60	0					
2	0	0	0	0	511	509	61	0					
3	0	0	0	0	512	508	62	0					
4	0	0	0	0	515	508	62	0					
5	0	0	0	0	516	511	62	0					
6	0	0	0	0	516	511	63	0					
7	0	0	0	0	515	512	64	0					
8	0	0	0	0	517	510	62	0					
9	0	0	0	0	516	507	63	0					
10	0	0	0	0	516	506	63	0					
11	0	0	0	0	515	507	62	0					
12	0	0	0	0	514	507	62	0					
13	0	0	0	0	514	504	62	0					
14	0	0	0	0	505	507	63	0					
15	0	0	0	0	499	506	64	0					
0	0	0	0	0	503	508	63	0					
1	0	0	0	0	501	508	63	0					
2	0	0	0	0	503	506	63	0					
3	0	0	0	0	504	508	63	0					
4	0	0	0	0	505	510	64	0					
5	0	0	0	0	508	509	65	0					
6	0	0	0	0	510	508	64	0					
7	0	0	0	0	515	507	64	0					
8	0	0	0	0	519	509	64	0					
9	0	0	0	0	518	508	64	0					
10	0	0	0	0	519	508	65	0					
11	0	0	0	0	516	509	65	0					
12	0	0	0	0	508	510	65	0					
13	0	0	0	0	506	507	65	0					
14	0	0	0	0	508	507	65	0					
15	0	0	0	0	514	508	64	0					
0	0	0	0	0	511	507	64	0					
1	0	0	0	0	515	507	64	0					
2	0	0	0	0	516	507	65	0					
3	0	0	0	0	510	507	63	0					
4	0	0	0	0	504	507	65	0					
5	0	0	0	0	498	506	63	0					
6	0	0	0	0	496	506	63	0					
7	0	0	0	0	503	507	66	0					
8	0	0	0	0	506	508	64	0					
9	0	0	0	0	510	507	64	0					
10	0	0	0	0	513	507	64	0					
11	0	0	0	0	514	508	63	0					
12	0	0	0	0	516	509	63	0					
13	0	0	0	0	519	508	62	0					
14	0	0	0	0	519	509	62	0					
15	0	0	0	0	516	512	61	0					
0	0	0	0	0	515	508	61	0					
1	0	0	0	0	513	510	60	0					
2	0	0	0	0	512	508	60	0					
3	0	0	0	0	514	508	61	0					
4	0	0	0	0	512	508	62	0					
5	0	0	0	0	511	507	60	0					
6	0	0	0	0	510	507	58	0					
7	0	0	0	0	506	508	58	0					
8	0	0	0	0	508	508	57	0					
9	0	0	0	0	506	508	58	0					
10	0	0	0	0	506	507	59	0					
11	0	0	0	0	506	508	58	0					
12	0	0	0	0	505	507	58	0					
13	0	0	0	0	506	508	57	0					
14	0	0	0	0	511	509	57	0					
15	0	0	0	0	513	507	56	0					
0	0	0	0	0	514	511	56	0					
1	0	0	0	0	516	508	56	0					
2	0	0	0	0	515	508	56	0					
3	0	0	0	0	513	511	56	0					
4	0	0	0	0	516	510	54	0					
5	0	0	0	0	515	507	56	0					
6	0	0	0	0	515	507	55	0					
7	0	0	0	0	512	506	56	0					
8	0	0	0	0	511	506	55	0					
9	0	0	0	0	512	507	55	0					
10	0	0	0	0	513	508	55	0					
11	0	0	0	0	511	507	56	0					
12	0	0	0	0	509	504	56	0					
13	0	0	0	0	504	507	56	0					
14	0	0	0	0	497	506	56	0					
15	0	0	0	0	497	507	56	0					
0	0	0	0	0	502	509	55	0					
1	0	0	0	0	509	508	55	0					
2	0	0	0	0	516	509	56	0					
3	0	0	0	0	518	509	56	0					
4	0	0	0	0	519	509	56	0					
5	0	0	0	0	519	510	54	0					
6	0	0	0	0	512	508	54	0					
7	0	0	0	0	512	511	55	0					
8	0	0	0	0	518	510	54	0					
9	0	0	0	0	522	509	53	0					
10	0	0	0	0	518	508	52	0					
11	0	0	0	0	513	505	52	0					
12	0	0	0	0	504	506	53	0					
13	0	0	0	0	494	508	53	0					
14	0	0	0	0	491	508	53	0					
15	0	0	0	0	503	506	53	0					
0	0	0	0	0	510	506	54	0					
1	0	0	0	0	508	505	54	0					
2	0	0	0	0	506	505	53	0					
3	0	0	0	0	508	507	52	0					
4	0	0	0	0	508	508	52	0					
5	0	0	0	0	508	507	51	0					
6	0	0	0	0	509	510	51	0					
7	0	0	0	0	519	508	51	0					
8	0	0	0	0	518	508	51	0					
9	0	0	0	0	517	509	49	0					
10	0	0	0	0	518	508	50	0					
11	0	0	0	0	516	513	49	0					
12	0	0	0	0	519	508	48	0					
13	0	0	0	0	518	508	49	0					
14	0	0	0	0	514	508	49	0					
15	0	0	0	0	513	509	49	0					
0	0	0	0	0	512	505	50	0					
1	0	0	0	0	511	504	50	0					
2	0	0	0	0	510	507	50	0					
3	0	0	0	0	508	507	49	0					
4	0	0	0	0	508	505	49	0					
5	0	0	0	0	504	508	49	0					
6	0	0	0	0	504	508	49	0					
7	0	0	0	0	503	508	49	0					
8	0	0	0	0	505	508	49	0					
9	0	0	0	0	506	508	49	0					
10	0	0	0	0	508	510	47	0					
11	0	0	0	0	512	510	47	0					
12	0	0	0	0	514	510	47	0					
13	0	0	0	0	516	507	49	0					
14	0	0	0	0	515	508	49	0					
15	0	0	0	0	517	508	49	0					
0	0	0	0	0	515	508	49	0					
1	0	0	0	0	516	507	49	0					
2	0	0	0	0	519	507	50	0					
3	0	0	0	0	514	506	48	0					
4	0	0	0	0	513	507	48	0					
5	0	0	0	0	506	509	47	0					
6	0	0	0	0	501	510	48	0					
7	0	0	0	0	499	507	50	0					
8	0	0	0	0	504	505	50	0					
9	0	0	0	0	505	506	48	0					
10	0	0	0	0	508	506	49	0					
11	0	0	0	0	507	508	50	0					
12	0	0	0	0	507	508	49	0					
13	0	0	0	0	508	507	49	0					
14	0	0	0	0	512	511	50	0					
15	0	0	0	0	513	509	49	0					
0	0	0	0	0	516	509	49	0					
1	0	0	0	0	516	509	49	0					
2	0	0	0	0	515	510	49	0					
3	0	0	0	0	515	509	49	0					
4	0	0	0	0	518	508	49	0					
5	0	0	0	0	517	507	49	0					
6	0	0	0	0	514	506	48	0					
7	0	0	0	0	517	507	48	0					
8	0	0	0	0	512	507	48	0					
9	0	0	0	0	509	506	47	0					
10	0	0	0	0	507	508	47	0					
11	0	0	0	0	505	505	47	0					
12	0	0	0	0	506	507	47	0					
13	0	0	0	0	504	503	47	0					
14	0	0	0	0	503	505	46	0					
15	0	0	0	0	504	509	46	0					
0	0	0	0	0	504	509	46	0					
1	0	0	0	0	507	510	43	0					
2	0	0	0	0	510	508	44	0					
3	0	0	0	0	514	510	44	0					
4	0	0	0	0	516	510	46	0					
5	0	0	0	0	517	510	44	0					
6	0	0	0	0	517	511	44	0					
7	0	0	0	0	515	508	45	0					
8	0	0	0	0	515	511	45	0					
9	0	0	0	0	514	507	46	0					
10	0	0	0	0	516	507	46	0					
11	0	0	0	0	514	507	44	0					
12	0	0	0	0	513	508	47	0					
13	0	0	0	0	511	506	45	0					
14	0	0	0	0	507	506	44	0					
15	0	0	0	0	505	508	43	0					
0	0	0	0	0	504	507	44	0					
1	0	0	0	0	505	506	43	0					
2	0	0	0	0	504	505	44	0					
3	0	0	0	0	505	507	41	0					
4	0	0	0	0	505	508	39	0					
5	0	0	0	0	508	508	38	0					
6	0	0	0	0	511	509	38	0					
7	0	0	0	0	514	511	38	0					
8	0	0	0	0	518	509	35	0					
9	0	0	0	0	520	509	39	0					
10	0	0	0	0	516	510	37	0					
11	0	0	0	0	516	509	38	0					
12	0	0	0	0	516	508	36	0					
13	0	0	0	0	515	508	39	0					
14	0	0	0	0	511	509	40	0					
15	0	0	0	0	507	507	34	0					
0	0	0	0	0	502	508	30	0					
1	0	0	0	0	506	506	28	0					
2	0	0	0	0	508	507	28	0					
3	0	0	0	0	506	508	30	0					
4	0	0	0	0	508	506	30	0					
5	0	0	0	0	504	507	26	0					
6	0	0	0	0	506	506	21	0					
7	0	0	0	0	507	508	17	0					
8	0	0	0	0	508	509	16	0					
9	0	0	0	0	510	509	17	0					
10	0	0	0	0	512	510	17	0					
11	0	0	0	0	513	508	16	0					
12	0	0	0	0	516	508	16	0					
13	0	0	0	0	516	508	15	0					
14	0	0	0	0	514	510	15	0					
15	0	0	0	0	515	510	15	0					
0	0	0	0	0	515	509	15	0					
1	0	0	0	0	513	507	15	0					
2	0	0	0	0	513	508	12	0					
3	0	0	0	0	512	508	15	0					
4	0	0	0	0	511	507	16	0					
5	0	0	0	0	511	505	13	0					
6	0	0	0	0	508	506	14	0					
7	0	0	0	0	509	507	15	0					
8	0	0	0	0	509	508	15	0					
9	0	0	0	0	503	505	15	0					
10	0	0	0	0	503	507	15	0					
11	0	0	0	0	505	506	7	0					
12	0	0	0	0	507	507	6	0					
13	0	0	0	0	507	508	4	0					
14	0	0	0	0	514	509	7	0					
15	0	0	0	0	519	510	4	0					
0	0	0	0	0	515	509	4	0					
1	0	0	0	0	513	507	4	0					
2	0	0	0	0	515	509	3	0					
3	0	0	0	0	515	510	3	0					
4	0	0	0	0	517	509	3	0					
5	0	0	0	0	515	508	2	0					
6	0	0	0	0	512	509	2	0					
7	0	0	0	0	512	508	2	0					
8	0	0	0	0	514	509	2	0					
9	0	0	0	0	512	506	2	0					
10	0	0	0	0	509	506	2	0					
11	0	0	0	0	508	508	1	0					
12	0	0	0	0	503	506	0	0					
13	0	0	0	0	504	504	0	0					
14	0	0	0	0	503	506	0	0					
15	0	0	0	0	506	508	1	0					
0	0	0	0	0	509	510	1	0					
1	0	0	0	0	511	510	0	0					
2	0	0	0	0	510	508	0	0					
3	0	0	0	0	511	510	0	0					
4	0	0	0	0	515	508	0	0					
5	0	0	0	0	518	508	0	0					
6	0	0	0	0	515	510	0	0					
7	0	0	0	0	512	509	0	0					
8	0	0	0	0	514	510	0	0					
9	0	0	0	0	511	508	0	0					
10	0	0	0	0	510	507	0	0					
11	0	0	0	0	510	507	0	0					
12	0	0	0	0	515	507	0	0					
13	0	0	0	0	511	507	0	0					
14	0	0	0	0	512	508	0	0					
15	0	0	0	0	513	508	0	0					
0	0	0	0	0	510	508	0	0					
1	0	0	0	0	502	510	0	0					
2	0	0	0	0	499	509	0	0					
3	0	0	0	0	497	508	0	0					
4	0	0	0	0	503	508	0	0					
5	0	0	0	0	507	506	0	0					
6	0	0	0	0	513	509	0	0					
7	0	0	0	0	515	510	0	0					
8	0	0	0	0	515	508	0	0					
9	0	0	0	0	518	509	0	0					
10	0	0	0	0	516	511	0	0					
11	0	0	0	0	515	510	0	0					
12	0	0	0	0	514	510	0	0					
13	0	0	0	0	515	507	0	0					
14	0	0	0	0	515	507	0	0					
15	0	0	0	0	512	507	0	0					
0	0	0	0	0	510	506	0	0					
1	0	0	0	0	508	508	0	0					
2	0	0	0	0	510	506	0	0					
3	0	0	0	0	509	506	0	0					
4	0	0	0	0	508	508	0	0					
5	0	0	0	0	505	507	0	0					
6	0	0	0	0	507	504	0	0					
7	0	0	0	0	506	509	0	0					
8	0	0	0	0	507	507	0	0					
9	0	0	0	0	507	507	0	0					
10	0	0	0	0	509	511	0	0					
11	0	0	0	0	513	509	0	0					
12	0	0	0	0	515	508	0	0					
13	0	0	0	0	514	510	0	0					
14	0	0	0	0	514	511	0	0					
15	0	0	0	0	514	509	0	0					
0	0	0	0	0	516	507	0	0					
1	0	0	0	0	516	507	0	0					
2	0	0	0	0	512	507	0	0					
3	0	0	0	0	513	507	0	0					
4	0	0	0	0	512	506	0	0					
5	0	0	0	0	511	506	0	0					
6	0	0	0	0	508	507	0	0					
7	0	0	0	0	507	509	0	0					
8	0	0	0	0	507	507	0	0					
9	0	0	0	0	503	507	0	0					
10	0	0	0	0	505	508	0	0					
11	0	0	0	0	505	506	0	0					
12	0	0	0	0	507	507	0	0					
13	0	0	0	0	508	509	0	0					
14	0	0	0	0	512	509	0	0					
15	0	0	0	0	511	508	0	0					
0	0	0	0	0	514	508	0	0					
1	0	0	0	0	515	508	0	0					
2	0	0	0	0	512	510	0	0					
3	0	0	0	0	514	510	0	0					
4	0	0	0	0	513	509	0	0					
5	0	0	0	0	512	508	0	0					
6	0	0	0	0	513	506	0	0					
7	0	0	0	0	512	509	0	0					
8	0	0	0	0	511	507	0	0					
9	0	0	0	0	507	507	0	0					
10	0	0	0	0	508	507	0	0					
11	0	0	0	0	508	507	0	0					
12	0	0	0	0	506	506	0	0					
13	0	0	0	0	508	505	0	0					
14	0	0	0	0	507	509	0	0					
15	0	0	0	0	508	510	0	0					
0	0	0	0	0	507	508	0	0					
1	0	0	0	0	508	509	0	0					
2	0	0	0	0	511	508	0	0					
3	0	0	0	0	515	509	0	0					
4	0	0	0	0	513	508	0	0					
5	0	0	0	0	518	507	0	0					
6	0	0	0	0	515	510	0	0					
7	0	0	0	0	516	509	0	0					
8	0	0	0	0	515	508	0	0					
9	0	0	0	0	510	509	0	0					
10	0	0	0	0	512	507	0	0					
11	0	0	0	0	509	505	0	0					
12	0	0	0	0	513	507	0	0					
13	0	0	0	0	511	505	0	0					
14	0	0	0	0	506	507	0	0					
15	0	0	0	0	504	508	0	0					
0	0	0	0	0	506	508	0	0					
1	0	0	0	0	507	506	0	0					
2	0	0	0	0	508	505	0	0					
3	0	0	0	0	508	507	0	0					
4	0	0	0	0	507	507	0	0					
5	0	0	0	0	508	507	0	0					
6	0	0	0	0	510	510	0	0					
7	0	0	0	0	512	508	0	0					
8	0	0	0	0	514	510	0	0					
9	0	0	0	0	516	509	0	0					
10	0	0	0	0	513	510	0	0					
11	0	0	0	0	515	510	0	0					
12	0	0	0	0	513	510	0	0					
13	0	0	0	0	515	508	0	0					
14	0	0	0	0	513	506	0	0					
15	0	0	0	0	513	508	0	0					
0	0	0	0	0	512	507	0	0					
1	0	0	0	0	512	508	0	0					
2	0	0	0	0	509	507	0	0					
3	0	0	0	0	511	506	0	0					
4	0	0	0	0	510	506	0	0					
5	0	0	0	0	508	505	0	0					
6	0	0	0	0	506	507	0	0					
7	0	0	0	0	501	507	0	0					
8	0	0	0	0	509	508	0	0					
9	0	0	0	0	506	510	0	0					
10	0	0	0	0	505	509	0	0					
11	0	0	0	0	507	510	0	0					
12	0	0	0	0	511	508	0	0					
13	0	0	0	0	515	509	0	0					
14	0	0	0	0	515	510	0	0					
15	0	0	0	0	514	509	0	0					
0	0	0	0	0	515	508	0	0					
1	0	0	0	0	514	506	0	0					
2	0	0	0	0	513	506	0	0					
3	0	0	0	0	513	506	0	0					
4	0	0	0	0	512	508	0	0					
5	0	0	0	0	511	507	0	0					
6	0	0	0	0	510	508	0	0					
7	0	0	0	0	510	507	0	0					
8	0	0	0	0	508	506	0	0					
9	0	0	0	0	508	505	0	0					
10	0	0	0	0	504	507	0	0					
11	0	0	0	0	507	507	0	0					
12	0	0	0	0	508	509	0	0					
13	0	0	0	0	509	511	0	0					
14	0	0	0	0	511	511	0	0					
15	0	0	0	0	513	509	0	0					
0	0	0	0	0	515	508	0	0					
1	0	0	0	0	514	509	0	0					
2	0	0	0	0	513	510	0	0					
3	0	0	0	0	516	510	0	0					
4	0	0	0	0	515	511	0	0					
5	0	0	0	0	512	508	0	0					
6	0	0	0	0	512	506	0	0					
7	0	0	0	0	512	508	0	0					
8	0	0	0	0	510	505	0	0					
9	0	0	0	0	508	505	0	0					
10	0	0	0	0	508	506	0	0					
11	0	0	0	0	509	507	0	0					
12	0	0	0	0	509	508	1	0					
13	0	0	0	0	506	506	1	0					
14	0	0	0	0	506	507	0	0					
15	0	0	0	0	508	505	1	0					
0	0	0	0	0	508	508	1	0					
1	0	0	0	0	509	511	1	0					
2	0	0	0	0	512	509	1	0					
3	0	0	0	0	512	508	1	0					
4	0	0	0	0	513	510	1	0					
5	0	0	0	0	514	508	1	0					
6	0	0	0	0	513	509	1	0					
7	0	0	0	0	514	510	1	0					
8	0	0	0	0	515	509	1	0					
9	0	0	0	0	516	508	1	0					
10	0	0	0	0	516	507	1	0					
11	0	0	0	0	513	506	2	0					
12	0	0	0	0	512	506	2	0					
13	0	0	0	0	509	508	2	0					
14	0	0	0	0	505	505	3	0					
15	0	0	0	0	502	506	3	0					
0	0	0	0	0	506	507	3	0					
1	0	0	0	0	508	508	3	0					
2	0	0	0	0	510	506	4	0					
3	0	0	0	0	511	505	14	0					
4	0	0	0	0	511	508	15	0					
5	0	0	0	0	511	509	15	0					
6	0	0	0	0	507	509	15	0					
7	0	0	0	0	504	509	15	0					
8	0	0	0	0	508	510	16	0					
9	0	0	0	0	512	509	16	0					
10	0	0	0	0	511	508	16	0					
11	0	0	0	0	515	510	16	0					
12	0	0	0	0	515	510	17	0					
13	0	0	0	0	515	508	17	0					
14	0	0	0	0	512	506	17	0					
15	0	0	0	0	513	506	18	0					
0	0	0	0	0	513	507	17	0					
1	0	0	0	0	513	507	18	0					
2	0	0	0	0	513	507	18	0					
3	0	0	0	0	510	505	18	0					
4	0	0	0	0	511	507	19	0					
5	0	0	0	0	505	508	18	0					
6	0	0	0	0	505	508	18	0					
7	0	0	0	0	505	508	18	0					
8	0	0	0	0	509	507	19	0					
9	0	0	0	0	517	508	19	0					
10	0	0	0	0	520	508	20	0					
11	0	0	0	0	517	510	19	0					
12	0	0	0	0	512	511	20	0					
13	0	0	0	0	503	509	20	0					
14	0	0	0	0	497	511	21	0					
15	0	0	0	0	507	509	22	0					
0	0	0	0	0	510	509	22	0					
1	0	0	0	0	512	508	25	0					
2	0	0	0	0	512	508	22	0					
3	0	0	0	0	512	506	24	0					
4	0	0	0	0	509	507	26	0					
5	0	0	0	0	513	507	28	0					
6	0	0	0	0	510	507	30	0					
7	0	0	0	0	510	507	30	0					
8	0	0	0	0	512	505	32	0					
9	0	0	0	0	511	506	34	0					
10	0	0	0	0	508	508	35	0					
11	0	0	0	0	508	506	34	0					
12	0	0	0	0	508	508	34	0					
13	0	0	0	0	508	509	35	0					
14	0	0	0	0	509	507	35	0					
15	0	0	0	0	510	508	35	0					
0	0	0	0	0	515	510	36	0					
1	0	0	0	0	519	508	46	0					
2	0	0	0	0	519	511	41	0					
3	0	0	0	0	517	510	44	0					
4	0	0	0	0	515	509	46	0					
5	0	0	0	0	510	508	47	0					
6	0	0	0	0	507	507	47	0					
7	0	0	0	0	503	508	43	0					
8	0	0	0	0	502	505	41	0					
9	0	0	0	0	508	508	42	0					
10	0	0	0	0	508	505	43	0					
11	0	0	0	0	508	506	44	0					
12	0	0	0	0	510	507	43	0					
13	0	0	0	0	508	508	40	0					
14	0	0	0	0	508	506	39	0					
15	0	0	0	0	509	507	38	0					
0	0	0	0	0	509	509	40	0					
1	0	0	0	0	511	508	57	0					
2	0	0	0	0	514	510	56	0					
3	0	0	0	0	513	508	55	0					
4	0	0	0	0	516	510	57	0					
5	0	0	0	0	513	509	57	0					
6	0	0	0	0	513	508	57	0					
7	0	0	0	0	515	509	59	0					
8	0	0	0	0	512	510	53	0					
9	0	0	0	0	514	508	51	0					
10	0	0	0	0	520	507	51	0					
11	0	0	0	0	516	508	54	0					
12	0	0	0	0	511	507	58	0					
13	0	0	0	0	499	506	51	0					
14	0	0	0	0	494	506	59	0					
15	0	0	0	0	501	504	55	0					
0	0	0	0	0	505	505	58	0					
1	0	0	0	0	507	506	54	0					
2	0	0	0	0	509	508	55	0					
3	0	0	0	0	511	508	52	0					
4	0	0	0	0	519	510	53	0					
5	0	0	0	0	524	505	58	0					
6	0	0	0	0	523	508	59	0					
7	0	0	0	0	525	507	61	0					
8	0	0	0	0	524	510	61	0					
9	0	0	0	0	511	509	60	0					
10	0	0	0	0	497	509	60	0					
11	0	0	0	0	487	511	61	0					
12	0	0	0	0	494	509	60	0					
13	0	0	0	0	508	506	62	0					
14	0	0	0	0	518	508	62	0					
15	0	0	0	0	520	507	63	0					
0	0	0	0	0	520	504	62	0					
1	0	0	0	0	520	504	63	0					
2	0	0	0	0	515	507	63	0					
3	0	0	0	0	511	507	63	0					
4	0	0	0	0	510	509	65	0					
5	0	0	0	0	499	506	65	0					
6	0	0	0	0	493	508	65	0					
7	0	0	0	0	501	509	65	0					
8	0	0	0	0	513	510	65	0					
9	0	0	0	0	514	508	70	0					
10	0	0	0	0	517	508	70	0					
11	0	0	0	0	520	509	70	0					
12	0	0	0	0	516	507	73	0					
13	0	0	0	0	512	510	75	0					
14	0	0	0	0	505	510	69	0					
15	0	0	0	0	496	509	62	0					
0	0	0	0	0	506	508	73	0					
1	0	0	0	0	514	507	79	0					
2	0	0	0	0	519	508	71	0					
3	0	0	0	0	518	507	75	0					
4	0	0	0	0	518	507	68	0					
5	0	0	0	0	514	508	69	0					
6	0	0	0	0	506	508	70	0					
7	0	0	0	0	500	508	74	0					
8	0	0	0	0	505	505	76	0					
9	0	0	0	0	508	507	76	0					
10	0	0	0	0	508	508	71	0					
11	0	0	0	0	510	508	74	0					
12	0	0	0	0	516	508	74	0					
13	0	0	0	0	518	508	72	0					
14	0	0	0	0	517	510	77	0					
15	0	0	0	0	521	510	76	0					
0	0	0	0	0	521	509	76	0					
1	0	0	0	0	517	508	77	0					
2	0	0	0	0	513	513	71	0					
3	0	0	0	0	512	510	70	0					
4	0	0	0	0	514	507	67	0					
5	0	0	0	0	513	507	67	0					
6	0	0	0	0	499	508	67	0					
7	0	0	0	0	499	507	67	0					
8	0	0	0	0	505	505	67	0					
9	0	0	0	0	511	507	67	0					
10	0	0	0	0	515	509	68	0					
11	0	0	0	0	515	508	79	0					
12	0	0	0	0	507	506	82	0					
13	0	0	0	0	505	505	79	0					
14	0	0	0	0	499	507	79	0					
15	0	0	0	0	490	507	83	0					
0	0	0	0	0	492	506	83	0					
1	0	0	0	0	511	507	82	0					
2	0	0	0	0	516	509	82	0					
3	0	0	0	0	501	509	84	0					
4	0	0	0	0	500	507	81	0					
5	0	0	0	0	509	507	84	0					
6	0	0	0	0	519	509	83	0					
7	0	0	0	0	526	509	84	0					
8	0	0	0	0	525	509	86	0					
9	0	0	0	0	524	510	84	0					
10	0	0	0	0	517	510	86	0					
11	0	0	0	0	512	507	85	0					
12	0	0	0	0	515	508	86	0					
13	0	0	0	0	512	508	87	0					
14	0	0	0	0	508	507	86	0					
15	0	0	0	0	509	505	88	0					
0	0	0	0	0	512	505	89	0					
1	0	0	0	0	507	506	88	0					
2	0	0	0	0	504	507	87	0					
3	0	0	0	0	498	509	85	0					
4	0	0	0	0	507	508	88	0					
5	0	0	0	0	513	509	85	0					
6	0	0	0	0	516	509	86	0					
7	0	0	0	0	517	509	89	0					
8	0	0	0	0	520	510	90	0					
9	0	0	0	0	519	508	89	0					
10	0	0	0	0	520	509	89	0					
11	0	0	0	0	512	511	91	0					
12	0	0	0	0	511	509	88	0					
13	0	0	0	0	507	508	90	0					
14	0	0	0	0	509	506	76	0					
15	0	0	0	0	510	507	89	0					
0	0	0	0	0	503	505	92	0					
1	0	0	0	0	503	508	90	0					
2	0	0	0	0	501	507	91	0					
3	0	0	0	0	507	507	92	0					
4	0	0	0	0	511	506	91	0					
5	0	0	0	0	510	506	92	0					
6	0	0	0	0	511	506	94	0					
7	0	0	0	0	509	507	92	0					
8	0	0	0	0	508	508	94	0					
9	0	0	0	0	510	508	95	0					
10	0	0	0	0	513	509	87	0					
11	0	0	0	0	512	511	96	0					
12	0	0	0	0	516	510	93	0					
13	0	0	0	0	516	508	94	0					
14	0	0	0	0	515	510	87	0					
15	0	0	0	0	527	510	89	0					
0	0	0	0	0	526	509	88	0					
1	0	0	0	0	526	508	91	0					
2	0	0	0	0	527	508	88	0					
3	0	0	0	0	515	507	81	0					
4	0	0	0	0	507	506	87	0					
5	0	0	0	0	492	508	89	0					
6	0	0	0	0	471	506	91	0					
7	0	0	0	0	471	504	90	0					
8	0	0	0	0	497	507	89	0					
9	0	0	0	0	511	507	91	0					
10	0	0	0	0	513	508	88	0					
11	0	0	0	0	524	509	91	0					
12	0	0	0	0	526	508	95	0					
13	0	0	0	0	519	508	87	0					
14	0	0	0	0	518	510	94	0					
15	0	0	0	0	513	510	92	0					
0	0	0	0	0	510	508	84	0					
1	0	0	0	0	503	509	86	0					
2	0	0	0	0	500	511	93	0					
3	0	0	0	0	506	511	104	0					
4	0	0	0	0	509	510	102	0					
5	0	0	0	0	513	506	101	0					
6	0	0	0	0	515	506	100	0					
7	0	0	0	0	516	506	99	0					
8	0	0	0	0	513	507	104	0					
9	0	0	0	0	513	505	103	0					
10	0	0	0	0	513	507	98	0					
11	0	0	0	0	511	505	103	0					
12	0	0	0	0	509	506	103	0					
13	0	0	0	0	508	508	96	0					
14	0	0	0	0	506	507	105	0					
15	0	0	0	0	508	506	101	0					
0	0	0	0	0	513	508	101	0					
1	0	0	0	0	514	509	102	0					
2	0	0	0	0	515	509	99	0					
3	0	0	0	0	516	509	87	0					
4	0	0	0	0	512	507	86	0					
5	0	0	0	0	513	510	93	0					
6	0	0	0	0	511	508	85	0					
7	0	0	0	0	511	510	97	0					
8	0	0	0	0	513	510	93	0					
9	0	0	0	0	513	510	100	0					
10	0	0	0	0	515	508	94	0					
11	0	0	0	0	512	507	97	0					
12	0	0	0	0	512	507	95	0					
13	0	0	0	0	514	505	92	0					
14	0	0	0	0	513	506	87	0					
15	0	0	0	0	512	505	109	0					
0	0	0	0	0	510	506	111	0					
1	0	0	0	0	506	507	109	0					
2	0	0	0	0	502	508	111	0					
3	0	0	0	0	498	510	110	0					
4	0	0	0	0	503	508	110	0					
5	0	0	0	0	506	509	106	0					
6	0	0	0	0	512	509	107	0					
7	0	0	0	0	514	509	106	0					
8	0	0	0	0	515	508	106	0					
9	0	0	0	0	514	510	103	0					
10	0	0	0	0	511	509	102	0					
11	0	0	0	0	512	509	102	0					
12	0	0	0	0	511	509	99	0					
13	0	0	0	0	512	508	100	0					
14	0	0	0	0	515	508	100	0					
15	0	0	0	0	515	507	105	0					
0	0	0	0	0	512	506	102	0					
1	0	0	0	0	511	506	95	0					
2	0	0	0	0	509	507	87	0					
3	0	0	0	0	508	507	85	0					
4	0	0	0	0	511	506	84	0					
5	0	0	0	0	508	506	89	0					
6	0	0	0	0	508	506	91	0					
7	0	0	0	0	509	507	91	0					
8	0	0	0	0	508	509	87	0					
9	0	0	0	0	508	508	87	0					
10	0	0	0	0	510	510	86	0					
11	0	0	0	0	511	507	85	0					
12	0	0	0	0	508	510	85	0					
13	0	0	0	0	513	509	83	0					
14	0	0	0	0	512	508	84	0					
15	0	0	0	0	511	509	84	0					
0	0	0	0	0	512	510	87	0					
1	0	0	0	0	511	507	86	0					
2	0	0	0	0	514	506	86	0					
3	0	0	0	0	513	506	86	0					
4	0	0	0	0	515	507	86	0					
5	0	0	0	0	514	507	87	0					
6	0	0	0	0	513	506	86	0					
7	0	0	0	0	512	508	89	0					
8	0	0	0	0	507	506	89	0					
9	0	0	0	0	505	507	87	0					
10	0	0	0	0	503	507	86	0					
11	0	0	0	0	500	508	89	0					
12	0	0	0	0	499	509	92	0					
13	0	0	0	0	508	510	91	0					
14	0	0	0	0	515	509	93	0					
15	0	0	0	0	514	508	91	0					
0	0	0	0	0	513	508	92	0					
1	0	0	0	0	514	509	93	0					
2	0	0	0	0	513	509	90	0					
3	0	0	0	0	514	511	89	0					
4	0	0	0	0	515	510	83	0					
5	0	0	0	0	512	509	84	0					
6	0	0	0	0	512	508	83	0					
7	0	0	0	0	510	507	83	0					
8	0	0	0	0	512	506	86	0					
9	0	0	0	0	514	506	89	0					
10	0	0	0	0	512	508	89	0					
11	0	0	0	0	514	506	90	0					
12	0	0	0	0	509	506	88	0					
13	0	0	0	0	498	505	88	0					
14	0	0	0	0	504	505	89	0					
15	0	0	0	0	513	508	87	0					
0	0	0	0	0	513	507	88	0					
1	0	0	0	0	513	508	88	0					
2	0	0	0	0	513	509	88	0					
3	0	0	0	0	512	511	87	0					
4	0	0	0	0	510	509	88	0					
5	0	0	0	0	512	510	89	0					
6	0	0	0	0	508	510	88	0					
7	0	0	0	0	509	510	89	0					
8	0	0	0	0	513	511	89	0					
9	0	0	0	0	514	508	90	0					
10	0	0	0	0	514	507	91	0					
11	0	0	0	0	515	508	89	0					
12	0	0	0	0	516	506	90	0					
13	0	0	0	0	510	506	91	0					
14	0	0	0	0	504	507	91	0					
15	0	0	0	0	492	508	88	0					
0	0	0	0	0	499	506	91	0					
1	0	0	0	0	507	505	92	0					
2	0	0	0	0	509	507	91	0					
3	0	0	0	0	507	510	92	0					
4	0	0	0	0	515	509	92	0					
5	0	0	0	0	523	508	91	0					
6	0	0	0	0	520	508	92	0					
7	0	0	0	0	515	507	92	0					
8	0	0	0	0	515	509	93	0					
9	0	0	0	0	509	510	92	0					
10	0	0	0	0	501	511	91	0					
11	0	0	0	0	497	511	90	0					
12	0	0	0	0	507	508	90	0					
13	0	0	0	0	514	508	92	0					
14	0	0	0	0	512	506	90	0					
15	0	0	0	0	513	507	91	0					
0	0	0	0	0	514	507	92	0					
1	0	0	0	0	516	505	92	0					
2	0	0	0	0	519	507	92	0					
3	0	0	0	0	517	508	92	0					
4	0	0	0	0	515	507	89	0					
5	0	0	0	0	516	505	90	0					
6	0	0	0	0	512	505	90	0					
7	0	0	0	0	501	507	88	0					
8	0	0	0	0	488	510	88	0					
9	0	0	0	0	492	508	88	0					
10	0	0	0	0	503	509	88	0					
11	0	0	0	0	512	508	88	0					
12	0	0	0	0	516	508	88	0					
13	0	0	0	0	515	510	92	0					
14	0	0	0	0	512	509	89	0					
15	0	0	0	0	515	508	89	0					
0	0	0	0	0	519	508	92	0					
1	0	0	0	0	515	507	93	0					
2	0	0	0	0	515	506	92	0					
3	0	0	0	0	511	505	92	0					
4	0	0	0	0	513	507	92	0					
5	0	0	0	0	513	508	93	0					
6	0	0	0	0	511	507	95	0					
7	0	0	0	0	511	506	94	0					
8	0	0	0	0	510	506	95	0					
9	0	0	0	0	507	508	94	0					
10	0	0	0	0	508	506	93	0					
11	0	0	0	0	506	508	95	0					
12	0	0	0	0	503	508	93	0					
13	0	0	0	0	506	510	94	0					
14	0	0	0	0	511	510	94	0					
15	0	0	0	0	513	508	94	0					
0	0	0	0	0	513	509	94	0					
1	0	0	0	0	513	509	93	0					
2	0	0	0	0	513	511	95	0					
3	0	0	0	0	513	508	94	0					
4	0	0	0	0	512	509	94	0					
5	0	0	0	0	512	506	95	0					
6	0	0	0	0	511	507	94	0					
7	0	0	0	0	511	507	94	0					
8	0	0	0	0	508	507	95	0					
9	0	0	0	0	508	504	95	0					
10	0	0	0	0	508	505	95	0					
11	0	0	0	0	512	507	95	0					
12	0	0	0	0	510	507	94	0					
13	0	0	0	0	509	506	93	0					
14	0	0	0	0	508	508	93	0					
15	0	0	0	0	508	505	94	0					
0	0	0	0	0	510	508	92	0					
1	0	0	0	0	508	510	92	0					
2	0	0	0	0	511	509	94	0					
3	0	0	0	0	512	509	94	0					
4	0	0	0	0	515	510	95	0					
5	0	0	0	0	516	509	95	0					
6	0	0	0	0	511	511	94	0					
7	0	0	0	0	511	510	92	0					
8	0	0	0	0	515	508	91	0					
9	0	0	0	0	516	508	91	0					
10	0	0	0	0	516	509	91	0					
11	0	0	0	0	511	507	91	0					
12	0	0	0	0	497	505	92	0					
13	0	0	0	0	497	504	92	0					
14	0	0	0	0	504	507	91	0					
15	0	0	0	0	511	507	91	0					
0	0	0	0	0	510	505	90	0					
1	0	0	0	0	511	504	89	0					
2	0	0	0	0	510	507	88	0					
3	0	0	0	0	511	507	90	0					
4	0	0	0	0	507	508	90	0					
5	0	0	0	0	506	507	89	0					
6	0	0	0	0	509	508	89	0					
7	0	0	0	0	512	509	88	0					
8	0	0	0	0	511	510	88	0					
9	0	0	0	0	513	509	91	0					
10	0	0	0	0	515	512	90	0					
11	0	0	0	0	516	512	91	0					
12	0	0	0	0	515	508	91	0					
13	0	0	0	0	515	510	91	0					
14	0	0	0	0	515	508	90	0					
15	0	0	0	0	511	507	87	0					
0	0	0	0	0	512	505	90	0					
1	0	0	0	0	511	507	88	0					
2	0	0	0	0	510	506	88	0					
3	0	0	0	0	509	507	86	0					
4	0	0	0	0	508	508	83	0					
5	0	0	0	0	508	508	86	0					
6	0	0	0	0	508	508	86	0					
7	0	0	0	0	506	507	84	0					
8	0	0	0	0	508	509	84	0					
9	0	0	0	0	506	509	82	0					
10	0	0	0	0	510	510	82	0					
11	0	0	0	0	515	508	82	0					
12	0	0	0	0	513	510	81	0					
13	0	0	0	0	512	511	82	0					
14	0	0	0	0	512	508	81	0					
15	0	0	0	0	512	509	77	0					
0	0	0	0	0	512	509	76	0					
1	0	0	0	0	512	509	76	0					
2	0	0	0	0	512	505	76	0					
3	0	0	0	0	512	509	76	0					
4	0	0	0	0	510	507	76	0					
5	0	0	0	0	510	506	76	0					
6	0	0	0	0	511	506	77	0					
7	0	0	0	0	509	508	75	0					
8	0	0	0	0	508	506	74	0					
9	0	0	0	0	510	507	76	0					
10	0	0	0	0	508	506	73	0					
11	0	0	0	0	510	508	74	0					
12	0	0	0	0	517	508	70	0					
13	0	0	0	0	518	509	71	0					
14	0	0	0	0	512	506	75	0					
15	0	0	0	0	510	509	74	0					
0	0	0	0	0	501	509	77	0					
1	0	0	0	0	497	509	74	0					
2	0	0	0	0	507	509	72	0					
3	0	0	0	0	509	509	72	0					
4	0	0	0	0	514	510	71	0					
5	0	0	0	0	512	508	84	0					
6	0	0	0	0	514	506	78	0					
7	0	0	0	0	514	509	77	0					
8	0	0	0	0	513	508	79	0					
9	0	0	0	0	512	505	78	0					
10	0	0	0	0	511	509	71	0					
11	0	0	0	0	510	506	73	0					
12	0	0	0	0	510	508	72	0					
13	0	0	0	0	508	507	75	0					
14	0	0	0	0	510	507	73	0					
15	0	0	0	0	508	507	72	0					
0	0	0	0	0	510	508	71	0					
1	0	0	0	0	512	508	71	0					
2	0	0	0	0	513	508	69	0					
3	0	0	0	0	511	510	69	0					
4	0	0	0	0	512	508	69	0					
5	0	0	0	0	513	509	67	0					
6	0	0	0	0	513	510	66	0					
7	0	0	0	0	513	507	64	0					
8	0	0	0	0	514	509	64	0					
9	0	0	0	0	512	508	64	0					
10	0	0	0	0	512	507	65	0					
11	0	0	0	0	511	507	67	0					
12	0	0	0	0	511	505	66	0					
13	0	0	0	0	508	508	67	0					
14	0	0	0	0	508	507	63	0					
15	0	0	0	0	508	506	65	0					
0	0	0	0	0	508	505	67	0					
1	0	0	0	0	512	507	66	0					
2	0	0	0	0	510	509	65	0					
3	0	0	0	0	508	507	62	0					
4	0	0	0	0	508	508	61	0					
5	0	0	0	0	509	510	62	0					
6	0	0	0	0	508	509	62	0					
7	0	0	0	0	512	510	62	0					
8	0	0	0	0	515	510	63	0					
9	0	0	0	0	522	509	60	0					
10	0	0	0	0	519	510	62	0					
11	0	0	0	0	521	510	60	0					
12	0	0	0	0	522	508	60	0					
13	0	0	0	0	520	506	60	0					
14	0	0	0	0	515	507	60	0					
15	0	0	0	0	502	506	59	0					
0	0	0	0	0	488	508	60	0					
1	0	0	0	0	480	506	62	0					
2	0	0	0	0	496	507	60	0					
3	0	0	0	0	510	506	60	0					
4	0	0	0	0	510	507	60	0					
5	0	0	0	0	511	506	62	0					
6	0	0	0	0	513	508	62	0					
7	0	0	0	0	511	510	62	0					
8	0	0	0	0	512	508	62	0					
9	0	0	0	0	513	507	61	0					
10	0	0	0	0	512	508	62	0					
11	0	0	0	0	513	509	61	0					
12	0	0	0	0	514	508	61	0					
13	0	0	0	0	513	509	62	0					
14	0	0	0	0	515	511	62	0					
15	0	0	0	0	514	510	63	0					
0	0	0	0	0	515	511	63	0					
1	0	0	0	0	514	508	63	0					
2	0	0	0	0	513	505	66	0					
3	0	0	0	0	511	504	63	0					
4	0	0	0	0	511	504	64	0					
5	0	0	0	0	511	508	65	0					
6	0	0	0	0	508	507	65	0					
7	0	0	0	0	507	508	64	0					
8	0	0	0	0	509	507	64	0					
9	0	0	0	0	508	508	65	0					
10	0	0	0	0	507	508	64	0					
11	0	0	0	0	506	507	63	0					
12	0	0	0	0	512	508	63	0					
13	0	0	0	0	509	509	64	0					
14	0	0	0	0	512	510	64	0					
15	0	0	0	0	513	508	63	0					
0	0	0	0	0	513	510	63	0					
1	0	0	0	0	511	510	66	0					
2	0	0	0	0	504	510	67	0					
3	0	0	0	0	509	510	64	0					
4	0	0	0	0	512	508	66	0					
5	0	0	0	0	512	507	67	0					
6	0	0	0	0	516	505	66	0					
7	0	0	0	0	516	505	65	0					
8	0	0	0	0	515	505	65	0					
9	0	0	0	0	515	505	66	0					
10	0	0	0	0	515	507	63	0					
11	0	0	0	0	506	507	65	0					
12	0	0	0	0	500	507	62	0					
13	0	0	0	0	503	508	67	0					
14	0	0	0	0	495	508	66	0					
15	0	0	0	0	502	510	65	0					
0	0	0	0	0	510	508	63	0					
1	0	0	0	0	512	507	64	0					
2	0	0	0	0	515	507	64	0					
3	0	0	0	0	513	508	63	0					
4	0	0	0	0	515	509	67	0					
5	0	0	0	0	518	510	67	0					
6	0	0	0	0	515	511	67	0					
7	0	0	0	0	514	510	66	0					
8	0	0	0	0	513	509	65	0					
9	0	0	0	0	515	508	66	0					
10	0	0	0	0	512	509	67	0					
11	0	0	0	0	512	509	67	0					
12	0	0	0	0	510	508	66	0					
13	0	0	0	0	509	509	67	0					
14	0	0	0	0	507	504	65	0					
15	0	0	0	0	510	505	66	0					
0	0	0	0	0	508	506	65	0					
1	0	0	0	0	507	505	66	0					
2	0	0	0	0	505	507	64	0					
3	0	0	0	0	508	508	65	0					
4	0	0	0	0	512	511	65	0					
5	0	0	0	0	510	510	65	0					
6	0	0	0	0	513	510	67	0					
7	0	0	0	0	512	509	65	0					
8	0	0	0	0	513	508	65	0					
9	0	0	0	0	512	512	66	0					
10	0	0	0	0	512	510	64	0					
11	0	0	0	0	511	508	63	0					
12	0	0	0	0	511	510	65	0					
13	0	0	0	0	510	507	63	0					
14	0	0	0	0	512	508	64	0					
15	0	0	0	0	511	505	63	0					
0	0	0	0	0	512	507	63	0					
1	0	0	0	0	512	507	63	0					
2	0	0	0	0	513	507	62	0					
3	0	0	0	0	513	506	61	0					
4	0	0	0	0	510	505	61	0					
5	0	0	0	0	505	505	63	0					
6	0	0	0	0	497	508	62	0					
7	0	0	0	0	496	507	62	0					
8	0	0	0	0	504	509	62	0					
9	0	0	0	0	507	509	59	0					
10	0	0	0	0	512	511	60	0					
11	0	0	0	0	514	510	59	0					
12	0	0	0	0	515	510	58	0					
13	0	0	0	0	514	508	59	0					
14	0	0	0	0	514	511	57	0					
15	0	0	0	0	515	510	58	0					
0	0	0	0	0	515	508	57	0					
1	0	0	0	0	516	508	59	0					
2	0	0	0	0	515	505	58	0					
3	0	0	0	0	513	507	57	0					
4	0	0	0	0	512	506	56	0					
5	0	0	0	0	509	505	59	0					
6	0	0	0	0	509	506	57	0					
7	0	0	0	0	509	507	56	0					
8	0	0	0	0	506	506	56	0					
9	0	0	0	0	508	507	55	0					
10	0	0	0	0	506	507	55	0					
11	0	0	0	0	506	508	56	0					
12	0	0	0	0	510	510	54	0					
13	0	0	0	0	516	509	56	0					
14	0	0	0	0	518	509	56	0					
15	0	0	0	0	521	508	54	0					
0	0	0	0	0	523	510	56	0					
1	0	0	0	0	519	508	54	0					
2	0	0	0	0	503	511	53	0					
3	0	0	0	0	492	510	56	0					
4	0	0	0	0	486	509	54	0					
5	0	0	0	0	502	508	54	0					
6	0	0	0	0	514	508	55	0					
7	0	0	0	0	515	508	56	0					
8	0	0	0	0	515	507	55	0					
9	0	0	0	0	515	507	54	0					
10	0	0	0	0	512	507	55	0					
11	0	0	0	0	509	508	58	0					
12	0	0	0	0	508	505	54	0					
13	0	0	0	0	511	507	54	0					
14	0	0	0	0	514	508	55	0					
15	0	0	0	0	514	507	56	0					
0	0	0	0	0	515	508	56	0					
1	0	0	0	0	515	509	55	0					
2	0	0	0	0	515	508	55	0					
3	0	0	0	0	515	510	56	0					
4	0	0	0	0	510	509	57	0					
5	0	0	0	0	511	511	54	0					
6	0	0	0	0	504	510	56	0					
7	0	0	0	0	500	511	58	0					
8	0	0	0	0	506	509	58	0					
9	0	0	0	0	515	508	56	0					
10	0	0	0	0	515	508	52	0					
11	0	0	0	0	515	508	52	0					
12	0	0	0	0	514	506	54	0					
13	0	0	0	0	511	506	51	0					
14	0	0	0	0	509	505	51	0					
15	0	0	0	0	509	506	50	0					
0	0	0	0	0	509	507	55	0					
1	0	0	0	0	509	507	51	0					
2	0	0	0	0	509	508	53	0					
3	0	0	0	0	509	508	51	0					
4	0	0	0	0	509	508	51	0					
5	0	0	0	0	508	508	51	0					
6	0	0	0	0	508	508	51	0					
7	0	0	0	0	512	510	53	0					
8	0	0	0	0	514	509	53	0					
9	0	0	0	0	515	508	51	0					
10	0	0	0	0	511	510	49	0					
11	0	0	0	0	510	511	49	0					
12	0	0	0	0	514	508	50	0					
13	0	0	0	0	512	508	47	0					
14	0	0	0	0	514	508	49	0					
15	0	0	0	0	512	507	49	0					
0	0	0	0	0	511	508	48	0					
1	0	0	0	0	509	505	47	0					
2	0	0	0	0	509	506	49	0					
3	0	0	0	0	510	507	49	0					
4	0	0	0	0	508	506	50	0					
5	0	0	0	0	508	508	50	0					
6	0	0	0	0	507	505	51	0					
7	0	0	0	0	508	509	49	0					
8	0	0	0	0	507	509	51	0					
9	0	0	0	0	508	508	51	0					
10	0	0	0	0	508	508	52	0					
11	0	0	0	0	510	509	51	0					
12	0	0	0	0	512	507	53	0					
13	0	0	0	0	515	508	54	0					
14	0	0	0	0	513	510	54	0					
15	0	0	0	0	513	511	53	0					
0	0	0	0	0	514	510	52	0					
1	0	0	0	0	514	507	54	0					
2	0	0	0	0	514	507	54	0					
3	0	0	0	0	512	509	55	0					
4	0	0	0	0	505	508	55	0					
5	0	0	0	0	507	506	55	0					
6	0	0	0	0	508	505	55	0					
7	0	0	0	0	508	506	56	0					
8	0	0	0	0	508	508	54	0					
9	0	0	0	0	508	507	55	0					
10	0	0	0	0	509	504	54	0					
11	0	0	0	0	509	507	55	0					
12	0	0	0	0	512	509	55	0					
13	0	0	0	0	512	508	54	0					
14	0	0	0	0	514	507	53	0					
15	0	0	0	0	515	509	55	0					
0	0	0	0	0	512	509	54	0					
1	0	0	0	0	507	510	55	0					
2	0	0	0	0	510	511	55	0					
3	0	0	0	0	514	509	52	0					
4	0	0	0	0	512	511	52	0					
5	0	0	0	0	513	508	51	0					
6	0	0	0	0	511	507	51	0					
7	0	0	0	0	512	507	50	0					
8	0	0	0	0	510	507	50	0					
9	0	0	0	0	512	506	50	0					
10	0	0	0	0	512	507	48	0					
11	0	0	0	0	512	507	48	0					
12	0	0	0	0	507	507	48	0					
13	0	0	0	0	505	505	48	0					
14	0	0	0	0	505	507	48	0					
15	0	0	0	0	507	510	47	0					
0	0	0	0	0	510	508	47	0					
1	0	0	0	0	509	508	46	0					
2	0	0	0	0	510	509	46	0					
3	0	0	0	0	512	507	46	0					
4	0	0	0	0	510	509	47	0					
5	0	0	0	0	514	510	47	0					
6	0	0	0	0	513	508	46	0					
7	0	0	0	0	512	511	47	0					
8	0	0	0	0	513	508	45	0					
9	0	0	0	0	513	507	46	0					
10	0	0	0	0	512	506	47	0					
11	0	0	0	0	511	508	46	0					
12	0	0	0	0	513	508	46	0					
13	0	0	0	0	514	507	45	0					
14	0	0	0	0	510	507	44	0					
15	0	0	0	0	506	507	44	0					
0	0	0	0	0	509	507	44	0					
1	0	0	0	0	510	507	43	0					
2	0	0	0	0	508	508	43	0					
3	0	0	0	0	507	506	43	0					
4	0	0	0	0	508	508	44	0					
5	0	0	0	0	508	508	43	0					
6	0	0	0	0	509	508	43	0					
7	0	0	0	0	510	509	41	0					
8	0	0	0	0	511	508	41	0					
9	0	0	0	0	513	510	41	0					
10	0	0	0	0	511	511	41	0					
11	0	0	0	0	514	510	40	0					
12	0	0	0	0	515	509	41	0					
13	0	0	0	0	513	507	40	0					
14	0	0	0	0	511	507	39	0					
15	0	0	0	0	512	508	39	0					
0	0	0	0	0	511	504	39	0					
1	0	0	0	0	511	505	39	0					
2	0	0	0	0	510	509	37	0					
3	0	0	0	0	509	508	32	0					
4	0	0	0	0	510	507	33	0					
5	0	0	0	0	508	506	33	0					
6	0	0	0	0	504	506	32	0					
7	0	0	0	0	503	508	30	0					
8	0	0	0	0	507	508	30	0					
9	0	0	0	0	509	508	26	0					
10	0	0	0	0	513	511	29	0					
11	0	0	0	0	515	508	24	0					
12	0	0	0	0	515	508	24	0					
13	0	0	0	0	512	509	25	0					
14	0	0	0	0	512	509	24	0					
15	0	0	0	0	513	508	20	0					
0	0	0	0	0	516	508	18	0					
1	0	0	0	0	514	507	16	0					
2	0	0	0	0	512	506	17	0					
3	0	0	0	0	512	507	16	0					
4	0	0	0	0	511	508	14	0					
5	0	0	0	0	509	507	15	0					
6	0	0	0	0	509	508	15	0					
7	0	0	0	0	508	507	14	0					
8	0	0	0	0	509	506	14	0					
9	0	0	0	0	507	507	14	0					
10	0	0	0	0	508	508	11	0					
11	0	0	0	0	508	508	14	0					
12	0	0	0	0	509	509	12	0					
13	0	0	0	0	509	509	13	0					
14	0	0	0	0	510	507	12	0					
15	0	0	0	0	511	509	12	0					
0	0	0	0	0	513	508	12	0					
1	0	0	0	0	513	509	13	0					
2	0	0	0	0	511	510	12	0					
3	0	0	0	0	511	511	12	0					
4	0	0	0	0	511	510	10	0					
5	0	0	0	0	512	509	12	0					
6	0	0	0	0	514	507	11	0					
7	0	0	0	0	513	507	11	0					
8	0	0	0	0	510	507	11	0					
9	0	0	0	0	510	506	13	0					
10	0	0	0	0	509	507	11	0					
11	0	0	0	0	507	506	9	0					
12	0	0	0	0	505	508	0	0					
13	0	0	0	0	509	505	0	0					
14	0	0	0	0	507	508	0	0					
15	0	0	0	0	508	508	0	0					
0	0	0	0	0	509	509	0	0					
1	0	0	0	0	511	508	0	0					
2	0	0	0	0	508	508	0	0					
3	0	0	0	0	513	510	0	0					
4	0	0	0	0	512	508	0	0					
5	0	0	0	0	513	509	0	0					
6	0	0	0	0	514	511	0	0					
7	0	0	0	0	510	508	0	0					
8	0	0	0	0	513	508	0	0					
9	0	0	0	0	512	506	0	0					
10	0	0	0	0	508	508	0	0					
11	0	0	0	0	510	508	0	0					
12	0	0	0	0	513	507	0	0					
13	0	0	0	0	515	508	0	0					
14	0	0	0	0	511	506	0	0					
15	0	0	0	0	506	509	0	0					
0	0	0	0	0	505	507	0	0					
1	0	0	0	0	513	508	0	0					
2	0	0	0	0	510	505	0	0					
3	0	0	0	0	507	506	0	0					
4	0	0	0	0	507	507	0	0					
5	0	0	0	0	510	510	0	0					
6	0	0	0	0	511	509	0	0					
7	0	0	0	0	512	509	0	0					
8	0	0	0	0	513	509	0	0					
9	0	0	0	0	515	508	0	0					
10	0	0	0	0	514	509	0	0					
11	0	0	0	0	513	509	0	0					
12	0	0	0	0	515	508	0	0					
13	0	0	0	0	512	508	0	0					
14	0	0	0	0	513	508	0	0					
15	0	0	0	0	512	506	0	0					
0	0	0	0	0	513	506	0	0					
1	0	0	0	0	509	506	0	0					
2	0	0	0	0	508	507	0	0					
3	0	0	0	0	510	505	0	0					
4	0	0	0	0	509	507	0	0					
5	0	0	0	0	509	507	0	0					
6	0	0	0	0	506	508	0	0					
7	0	0	0	0	507	508	0	0					
8	0	0	0	0	507	509	0	0					
9	0	0	0	0	509	509	0	0					
10	0	0	0	0	511	508	0	0					
11	0	0	0	0	510	507	0	0					
12	0	0	0	0	514	509	0	0					
13	0	0	0	0	513	509	0	0					
14	0	0	0	0	512	511	0	0					
15	0	0	0	0	514	511	0	0					
0	0	0	0	0	514	510	0	0					
1	0	0	0	0	512	509	0	0					
2	0	0	0	0	510	507	0	0					
3	0	0	0	0	511	506	0	0					
4	0	0	0	0	509	506	0	0					
5	0	0	0	0	508	507	0	0					
6	0	0	0	0	508	508	0	0					
7	0	0	0	0	509	508	0	0					
8	0	0	0	0	507	506	0	0					
9	0	0	0	0	511	506	0	0					
10	0	0	0	0	510	507	0	0					
11	0	0	0	0	508	508	0	0					
12	0	0	0	0	508	507	0	0					
13	0	0	0	0	508	509	0	0					
14	0	0	0	0	512	509	0	0					
15	0	0	0	0	514	510	0	0					
0	0	0	0	0	514	507	0	0					
1	0	0	0	0	514	509	0	0					
2	0	0	0	0	512	509	0	0					
3	0	0	0	0	512	511	0	0					
4	0	0	0	0	515	508	0	0					
5	0	0	0	0	513	505	0	0					
6	0	0	0	0	513	507	0	0					
7	0	0	0	0	513	507	0	0					
8	0	0	0	0	512	507	0	0					
9	0	0	0	0	509	507	0	0					
10	0	0	0	0	508	508	0	0					
11	0	0	0	0	509	508	0	0					
12	0	0	0	0	508	508	0	0					
13	0	0	0	0	506	507	0	0					
14	0	0	0	0	508	507	0	0					
15	0	0	0	0	506	510	0	0					
0	0	0	0	0	508	510	0	0					
1	0	0	0	0	507	507	0	0					
2	0	0	0	0	512	507	0	0					
3	0	0	0	0	511	511	0	0					
4	0	0	0	0	510	509	0	0					
5	0	0	0	0	512	509	0	0					
6	0	0	0	0	513	510	0	0					
7	0	0	0	0	512	509	0	0					
8	0	0	0	0	514	507	0	0					
9	0	0	0	0	513	508	0	0					
10	0	0	0	0	511	510	0	0					
11	0	0	0	0	513	506	0	0					
12	0	0	0	0	512	506	0	0					
13	0	0	0	0	510	507	0	0					
14	0	0	0	0	508	507	0	0					
15	0	0	0	0	507	508	0	0					
0	0	0	0	0	508	505	0	0					
1	0	0	0	0	509	506	0	0					
2	0	0	0	0	508	506	0	0					
3	0	0	0	0	507	507	0	0					
4	0	0	0	0	509	508	0	0					
5	0	0	0	0	510	508	0	0					
6	0	0	0	0	513	509	0	0					
7	0	0	0	0	514	509	0	0					
8	0	0	0	0	514	509	0	0					
9	0	0	0	0	514	511	0	0					
10	0	0	0	0	513	508	0	0					
11	0	0	0	0	514	510	0	0					
12	0	0	0	0	514	508	0	0					
13	0	0	0	0	512	508	0	0					
14	0	0	0	0	513	505	0	0					
15	0	0	0	0	510	507	0	0					
0	0	0	0	0	511	508	0	0					
1	0	0	0	0	511	506	0	0					
2	0	0	0	0	510	506	0	0					
3	0	0	0	0	511	507	0	0					
4	0	0	0	0	509	506	0	0					
5	0	0	0	0	508	508	0	0					
6	0	0	0	0	507	507	0	0					
7	0	0	0	0	507	508	0	0					
8	0	0	0	0	508	508	0	0					
9	0	0	0	0	512	508	0	0					
10	0	0	0	0	509	507	0	0					
11	0	0	0	0	512	509	0	0					
12	0	0	0	0	513	508	0	0					
13	0	0	0	0	512	512	0	0					
14	0	0	0	0	512	510	0	0					
15	0	0	0	0	514	510	0	0					
0	0	0	0	0	513	509	0	0					
1	0	0	0	0	511	509	0	0					
2	0	0	0	0	512	507	0	0					
3	0	0	0	0	513	507	0	0					
4	0	0	0	0	509	507	0	0					
5	0	0	0	0	511	506	0	0					
6	0	0	0	0	511	505	0	0					
7	0	0	0	0	508	505	0	0					
8	0	0	0	0	510	507	0	0					
9	0	0	0	0	508	507	0	0					
10	0	0	0	0	508	506	0	0					
11	0	0	0	0	510	509	0	0					
12	0	0	0	0	510	509	0	0					
13	0	0	0	0	511	508	0	0					
14	0	0	0	0	510	509	0	0					
15	0	0	0	0	512	509	0	0					
0	0	0	0	0	511	509	0	0					
1	0	0	0	0	512	509	0	0					
2	0	0	0	0	514	510	0	0					
3	0	0	0	0	512	511	0	0					
4	0	0	0	0	512	511	0	0					
5	0	0	0	0	513	508	0	0					
6	0	0	0	0	511	507	0	0					
7	0	0	0	0	510	506	0	0					
8	0	0	0	0	510	504	0	0					
9	0	0	0	0	510	507	0	0					
10	0	0	0	0	508	508	0	0					
11	0	0	0	0	508	507	0	0					
12	0	0	0	0	506	505	0	0					
13	0	0	0	0	504	508	0	0					
14	0	0	0	0	508	507	0	0					
15	0	0	0	0	511	508	0	0					
0	0	0	0	0	512	506	0	0					
1	0	0	0	0	508	508	0	0					
2	0	0	0	0	512	507	0	0					
3	0	0	0	0	514	509	0	0					
4	0	0	0	0	513	510	0	0					
5	0	0	0	0	514	510	0	0					
6	0	0	0	0	511	510	0	0					
7	0	0	0	0	512	511	0	0					
8	0	0	0	0	513	508	0	0					
9	0	0	0	0	512	508	0	0					
10	0	0	0	0	513	508	0	0					
11	0	0	0	0	512	505	0	0					
12	0	0	0	0	510	507	0	0					
13	0	0	0	0	512	507	0	0					
14	0	0	0	0	508	506	0	0					
15	0	0	0	0	508	507	0	0					
0	0	0	0	0	510	506	0	0					
1	0	0	0	0	507	507	0	0					
2	0	0	0	0	509	505	0	0					
3	0	0	0	0	508	505	0	0					
4	0	0	0	0	509	510	0	0					
5	0	0	0	0	508	509	0	0					
6	0	0	0	0	510	510	0	0					
7	0	0	0	0	514	509	0	0					
8	0	0	0	0	511	508	0	0					
9	0	0	0	0	514	508	0	0					
10	0	0	0	0	510	511	0	0					
11	0	0	0	0	514	508	0	0					
12	0	0	0	0	512	510	0	0					
13	0	0	0	0	514	508	0	0					
14	0	0	0	0	511	508	0	0					
15	0	0	0	0	513	506	0	0					
0	0	0	0	0	513	505	0	0					
1	0	0	0	0	509	508	0	0					
2	0	0	0	0	508	506	0	0					
3	0	0	0	0	506	506	0	0					
4	0	0	0	0	510	508	0	0					
5	0	0	0	0	508	505	0	0					
6	0	0	0	0	508	507	0	0					
7	0	0	0	0	507	508	0	0					
8	0	0	0	0	511	508	0	0					
9	0	0	0	0	509	508	0	0					
10	0	0	0	0	512	508	0	0					
11	0	0	0	0	513	511	0	0					
12	0	0	0	0	512	509	0	0					
13	0	0	0	0	515	510	0	0					
14	0	0	0	0	510	508	0	0					
15	0	0	0	0	512	510	0	0					
0	0	0	0	0	512	508	0	0					
1	0	0	0	0	512	509	0	0					
2	0	0	0	0	512	507	0	0					
3	0	0	0	0	512	505	0	0					
4	0	0	0	0	510	506	0	0					
5	0	0	0	0	511	507	0	0					
6	0	0	0	0	509	506	0	0					
7	0	0	0	0	508	507	0	0					
8	0	0	0	0	510	507	0	0					
9	0	0	0	0	509	504	0	0					
10	0	0	0	0	509	506	0	0					
11	0	0	0	0	508	507	0	0					
12	0	0	0	0	510	508	0	0					
13	0	0	0	0	509	510	0	0					
14	0	0	0	0	508	508	0	0					
15	0	0	0	0	509	508	0	0					
0	0	0	0	0	510	510	0	0					
1	0	0	0	0	512	510	0	0					
2	0	0	0	0	514	509	0	0					
3	0	0	0	0	513	511	0	0					
4	0	0	0	0	514	510	0	0					
5	0	0	0	0	512	509	0	0					
6	0	0	0	0	510	506	0	0					
7	0	0	0	0	511	505	0	0					
8	0	0	0	0	513	505	0	0					
9	0	0	0	0	510	506	0	0					
10	0	0	0	0	511	506	0	0					
11	0	0	0	0	508	508	0	0					
12	0	0	0	0	507	505	0	0					
13	0	0	0	0	507	507	0	0					
14	0	0	0	0	508	510	0	0					
15	0	0	0	0	509	508	0	0					
0	0	0	0	0	510	508	0	0					
1	0	0	0	0	510	507	0	0					
2	0	0	0	0	513	509	0	0					
3	0	0	0	0	512	509	0	0					
4	0	0	0	0	515	510	0	0					
5	0	0	0	0	513	509	0	0					
6	0	0	0	0	512	512	0	0					
7	0	0	0	0	510	511	0	0					
8	0	0	0	0	514	511	0	0					
9	0	0	0	0	513	510	0	0					
10	0	0	0	0	511	507	0	0					
11	0	0	0	0	513	507	0	0					
12	0	0	0	0	511	504	0	0					
13	0	0	0	0	512	507	0	0					
14	0	0	0	0	509	507	0	0					
15	0	0	0	0	509	507	0	0					
0	0	0	0	0	508	504	0	0					
1	0	0	0	0	511	506	0	0					
2	0	0	0	0	508	508	0	0					
3	0	0	0	0	507	507	0	0					
4	0	0	0	0	508	508	0	0					
5	0	0	0	0	508	507	0	0					
6	0	0	0	0	510	508	0	0					
7	0	0	0	0	511	507	0	0					
8	0	0	0	0	512	508	0	0					
9	0	0	0	0	515	508	0	0					
10	0	0	0	0	512	510	0	0					
11	0	0	0	0	513	511	0	0					
12	0	0	0	0	515	509	0	0					
13	0	0	0	0	513	508	0	0					
14	0	0	0	0	512	509	0	0					
15	0	0	0	0	510	508	0	0					
0	0	0	0	0	510	508	0	0					
1	0	0	0	0	510	506	0	0					
2	0	0	0	0	509	508	0	0					
3	0	0	0	0	508	507	0	0					
4	0	0	0	0	510	507	0	0					
5	0	0	0	0	506	505	0	0					
6	0	0	0	0	508	506	0	0					
7	0	0	0	0	505	507	0	0					
8	0	0	0	0	507	509	0	0					
9	0	0	0	0	508	510	0	0					
10	0	0	0	0	513	510	0	0					
11	0	0	0	0	515	509	0	0					
12	0	0	0	0	515	510	0	0					
13	0	0	0	0	515	509	0	0					
14	0	0	0	0	512	508	0	0					
15	0	0	0	0	515	510	0	0					
0	0	0	0	0	514	510	0	0					
1	0	0	0	0	513	507	0	0					
2	0	0	0	0	511	506	0	0					
3	0	0	0	0	513	508	0	0					
4	0	0	0	0	514	507	0	0					
5	0	0	0	0	509	505	0	0					
6	0	0	0	0	508	506	0	0					
7	0	0	0	0	506	505	0	0					
8	0	0	0	0	508	506	0	0					
9	0	0	0	0	508	506	0	0					
10	0	0	0	0	507	505	0	0					
11	0	0	0	0	508	508	0	0					
12	0	0	0	0	509	507	0	0					
13	0	0	0	0	509	510	0	0					
14	0	0	0	0	510	509	0	0					
15	0	0	0	0	513	508	0	0					
0	0	0	0	0	511	509	0	0					
1	0	0	0	0	513	510	0	0					
2	0	0	0	0	512	511	0	0					
3	0	0	0	0	516	511	0	0					
4	0	0	0	0	515	509	0	0					
5	0	0	0	0	513	507	0	0					
6	0	0	0	0	511	508	0	0					
7	0	0	0	0	513	507	0	0					
8	0	0	0	0	510	508	0	0					
9	0	0	0	0	510	505	0	0					
10	0	0	0	0	508	506	0	0					
11	0	0	0	0	508	505	0	0					
12	0	0	0	0	508	506	0	0					
13	0	0	0	0	507	508	0	0					
14	0	0	0	0	508	507	0	0					
15	0	0	0	0	509	507	0	0					
0	0	0	0	0	508	508	0	0					
1	0	0	0	0	510	507	0	0					
2	0	0	0	0	509	508	0	0					
3	0	0	0	0	514	509	0	0					
4	0	0	0	0	513	509	0	0					
5	0	0	0	0	513	509	0	0					
6	0	0	0	0	508	510	0	0					
7	0	0	0	0	508	511	0	0					
8	0	0	0	0	511	510	0	0					
9	0	0	0	0	511	507	0	0					
10	0	0	0	0	513	509	0	0					
11	0	0	0	0	514	508	0	0					
12	0	0	0	0	514	506	0	0					
13	0	0	0	0	514	506	0	0					
14	0	0	0	0	509	508	0	0					
15	0	0	0	0	507	505	0	0					
0	0	0	0	0	508	506	0	0					
1	0	0	0	0	509	506	0	0					
2	0	0	0	0	508	508	0	0					
3	0	0	0	0	508	510	0	0					
4	0	0	0	0	509	507	0	0					
5	0	0	0	0	510	509	0	0					
6	0	0	0	0	511	508	0	0					
7	0	0	0	0	513	507	0	0					
8	0	0	0	0	512	509	0	0					
9	0	0	0	0	512	509	0	0					
10	0	0	0	0	514	510	0	0					
11	0	0	0	0	513	511	0	0					
12	0	0	0	0	512	508	0	0					
13	0	0	0	0	513	507	0	0					
14	0	0	0	0	512	506	0	0					
15	0	0	0	0	512	506	0	0					
0	0	0	0	0	509	507	0	0					
1	0	0	0	0	511	508	0	0					
2	0	0	0	0	513	506	0	0					
3	0	0	0	0	509	508	0	0					
4	0	0	0	0	510	505	0	0					
5	0	0	0	0	508	505	0	0					
6	0	0	0	0	507	506	0	0					
7	0	0	0	0	510	507	0	0					
8	0	0	0	0	509	509	0	0					
9	0	0	0	0	509	509	0	0					
10	0	0	0	0	509	509	0	0					
11	0	0	0	0	512	510	0	0					
12	0	0	0	0	513	510	0	0					
13	0	0	0	0	513	509	0	0					
14	0	0	0	0	511	508	0	0					
15	0	0	0	0	512	509	0	0					
0	0	0	0	0	514	510	0	0					
1	0	0	0	0	515	509	0	0					
2	0	0	0	0	512	507	0	0					
3	0	0	0	0	514	507	0	0					
4	0	0	0	0	510	507	0	0					
5	0	0	0	0	509	507	0	0					
6	0	0	0	0	509	507	0	0					
7	0	0	0	0	507	505	0	0					
8	0	0	0	0	509	507	0	0					
9	0	0	0	0	508	507	0	0					
10	0	0	0	0	507	508	0	0					
11	0	0	0	0	504	509	0	0					
12	0	0	0	0	505	508	0	0					
13	0	0	0	0	510	509	0	0					
14	0	0	0	0	512	508	0	0					
15	0	0	0	0	513	507	0	0					
0	0	0	0	0	515	509	0	0					
1	0	0	0	0	514	509	0	0					
2	0	0	0	0	514	511	0	0					
3	0	0	0	0	512	509	0	0					
4	0	0	0	0	511	510	0	0					
5	0	0	0	0	510	508	0	0					
6	0	0	0	0	512	506	0	0					
7	0	0	0	0	514	507	0	0					
8	0	0	0	0	513	504	0	0					
9	0	0	0	0	509	507	0	0					
10	0	0	0	0	510	505	0	0					
11	0	0	0	0	508	508	0	0					
12	0	0	0	0	507	507	0	0					
13	0	0	0	0	508	506	0	0					
14	0	0	0	0	509	508	0	0					
15	0	0	0	0	509	508	0	0					
0	0	0	0	0	507	511	0	0					
1	0	0	0	0	509	510	0	0					
2	0	0	0	0	511	508	0	0					
3	0	0	0	0	511	508	0	0					
4	0	0	0	0	509	509	0	0					
5	0	0	0	0	513	509	0	0					
6	0	0	0	0	514	510	0	0					
7	0	0	0	0	513	509	0	0					
8	0	0	0	0	514	509	0	0					
9	0	0	0	0	514	505	0	0					
10	0	0	0	0	515	507	0	0					
11	0	0	0	0	507	507	0	0					
12	0	0	0	0	506	503	0	0					
13	0	0	0	0	509	508	0	0					
14	0	0	0	0	512	508	0	0					
15	0	0	0	0	509	507	0	0					
0	0	0	0	0	508	508	0	0					
1	0	0	0	0	509	508	0	0					
2	0	0	0	0	510	508	0	0					
3	0	0	0	0	511	510	0	0					
4	0	0	0	0	510	508	0	0					
5	0	0	0	0	509	508	0	0					
6	0	0	0	0	511	510	0	0					
7	0	0	0	0	511	509	0	0					
8	0	0	0	0	511	509	0	0					
9	0	0	0	0	513	508	0	0					
10	0	0	0	0	513	507	0	0					
11	0	0	0	0	512	510	0	0					
12	0	0	0	0	513	508	0	0					
13	0	0	0	0	514	509	0	0					
14	0	0	0	0	513	508	0	0					
15	0	0	0	0	512	508	0	0					
0	0	0	0	0	513	507	0	0					
1	0	0	0	0	510	507	0	0					
2	0	0	0	0	509	505	0	0					
3	0	0	0	0	509	508	0	0					
4	0	0	0	0	509	507	0	0					
5	0	0	0	0	506	508	0	0					
6	0	0	0	0	508	507	0	0					
7	0	0	0	0	508	508	0	0					
8	0	0	0	0	506	508	0	0					
9	0	0	0	0	511	508	0	0					
10	0	0	0	0	511	508	0	0					
11	0	0	0	0	513	507	0	0					
12	0	0	0	0	514	505	0	0					
13	0	0	0	0	513	507	0	0					
14	0	0	0	0	512	508	0	0					
15	0	0	0	0	513	512	0	0					
0	0	0	0	0	514	509	0	0					
1	0	0	0	0	513	508	0	0					
2	0	0	0	0	513	507	0	0					
3	0	0	0	0	509	504	0	0					
4	0	0	0	0	509	508	0	0					
5	0	0	0	0	510	506	0	0					
6	0	0	0	0	510	508	0	0					
7	0	0	0	0	507	510	0	0					
8	0	0	0	0	509	508	0	0					
9	0	0	0	0	508	505	0	0					
10	0	0	0	0	509	507	0	0					
11	0	0	0	0	507	507	0	0					
12	0	0	0	0	510	507	0	0					
13	0	0	0	0	510	508	0	0					
14	0	0	0	0	512	509	0	0					
15	0	0	0	0	511	509	0	0					
0	0	0	0	0	513	508	0	0					
1	0	0	0	0	513	510	0	0					
2	0	0	0	0	512	509	0	0					
3	0	0	0	0	514	510	0	0					
4	0	0	0	0	512	510	0	0					
5	0	0	0	0	513	508	0	0					
6	0	0	0	0	512	506	0	0					
7	0	0	0	0	512	508	0	0					
8	0	0	0	0	511	507	0	0					
9	0	0	0	0	511	506	0	0					
10	0	0	0	0	508	505	0	0					
11	0	0	0	0	508	506	0	0					
12	0	0	0	0	507	507	0	0					
13	0	0	0	0	506	508	0	0					
14	0	0	0	0	507	508	0	0					
15	0	0	0	0	508	508	0	0					
0	0	0	0	0	509	508	0	0					
1	0	0	0	0	510	508	0	0					
2	0	0	0	0	512	510	0	0					
3	0	0	0	0	511	508	0	0					
4	0	0	0	0	513	509	0	0					
5	0	0	0	0	514	509	0	0					
6	0	0	0	0	512	509	0	0					
7	0	0	0	0	515	509	0	0					
8	0	0	0	0	515	510	0	0					
9	0	0	0	0	514	507	0	0					
10	0	0	0	0	511	508	0	0					
11	0	0	0	0	510	508	0	0					
12	0	0	0	0	512	505	0	0					
13	0	0	0	0	509	507	0	0					
14	0	0	0	0	511	508	0	0					
15	0	0	0	0	511	507	0	0					
0	0	0	0	0	508	508	0	0					
1	0	0	0	0	508	508	0	0					
2	0	0	0	0	508	507	0	0					
3	0	0	0	0	511	508	0	0					
4	0	0	0	0	509	508	0	0					
5	0	0	0	0	510	508	0	0					
6	0	0	0	0	512	510	0	0					
7	0	0	0	0	510	508	0	0					
8	0	0	0	0	512	508	0	0					
9	0	0	0	0	511	508	0	0					
10	0	0	0	0	510	510	0	0					
11	0	0	0	0	515	511	0	0					
12	0	0	0	0	512	510	0	0					
13	0	0	0	0	514	507	0	0					
14	0	0	0	0	512	505	0	0					
15	0	0	0	0	509	505	0	0					
0	0	0	0	0	510	505	0	0					
1	0	0	0	0	510	509	0	0					
2	0	0	0	0	510	507	0	0					
3	0	0	0	0	507	507	0	0					
4	0	0	0	0	508	508	0	0					
5	0	0	0	0	508	506	0	0					
6	0	0	0	0	507	506	0	0					
7	0	0	0	0	510	507	0	0					
8	0	0	0	0	512	509	0	0					
9	0	0	0	0	510	508	0	0					
10	0	0	0	0	514	509	0	0					
11	0	0	0	0	515	508	0	0					
12	0	0	0	0	514	510	0	0					
13	0	0	0	0	510	508	0	0					
14	0	0	0	0	504	509	0	0					
15	0	0	0	0	506	510	0	0					
0	0	0	0	0	512	508	0	0					
1	0	0	0	0	515	508	0	0					
2	0	0	0	0	514	508	0	0					
3	0	0	0	0	510	508	0	0					
4	0	0	0	0	513	507	0	0					
5	0	0	0	0	511	506	0	0					
6	0	0	0	0	511	507	0	0					
7	0	0	0	0	510	510	0	0					
8	0	0	0	0	508	506	0	0					
9	0	0	0	0	508	505	0	0					
10	0	0	0	0	508	508	0	0					
11	0	0	0	0	510	507	0	0					
12	0	0	0	0	512	507	0	0					
13	0	0	0	0	512	510	0	0					
14	0	0	0	0	515	510	0	0					
15	0	0	0	0	515	510	0	0					
0	0	0	0	0	512	509	0	0					
1	0	0	0	0	510	506	0	0					
2	0	0	0	0	509	511	0	0					
3	0	0	0	0	512	509	0	0					
4	0	0	0	0	511	508	0	0					
5	0	0	0	0	508	508	0	0					
6	0	0	0	0	510	509	0	0					
7	0	0	0	0	511	507	0	0					
8	0	0	0	0	511	506	0	0					
9	0	0	0	0	511	508	0	0					
10	0	0	0	0	504	505	0	0					
11	0	0	0	0	505	507	0	0					
12	0	0	0	0	506	506	0	0					
13	0	0	0	0	507	506	0	0					
14	0	0	0	0	508	507	0	0					
15	0	0	0	0	507	508	0	0					
0	0	0	0	0	510	507	0	0					
1	0	0	0	0	512	508	0	0					
2	0	0	0	0	510	510	0	0					
3	0	0	0	0	512	508	0	0					
4	0	0	0	0	515	508	0	0					
5	0	0	0	0	517	509	0	0					
6	0	0	0	0	516	511	0	0					
7	0	0	0	0	513	509	0	0					
8	0	0	0	0	516	509	0	0					
9	0	0	0	0	518	508	0	0					
10	0	0	0	0	514	506	0	0					
11	0	0	0	0	514	508	0	0					
12	0	0	0	0	512	507	0	0					
13	0	0	0	0	510	505	0	0					
14	0	0	0	0	512	507	0	0					
15	0	0	0	0	514	508	0	0					
0	0	0	0	0	513	510	0	0					
1	0	0	0	0	512	507	0	0					
2	0	0	0	0	504	507	0	0					
3	0	0	0	0	499	507	0	0					
4	0	0	0	0	500	508	0	0					
5	0	0	0	0	505	508	0	0					
6	0	0	0	0	515	505	0	0					
7	0	0	0	0	523	507	0	0					
8	0	0	0	0	527	507	0	0					
9	0	0	0	0	535	508	0	0					
10	0	0	0	0	524	511	0	0					
11	0	0	0	0	512	515	0	0					
12	0	0	0	0	510	510	0	0					
13	0	0	0	0	493	508	0	0					
14	0	0	0	0	491	505	0	0					
15	0	0	0	0	488	506	0	0					
0	0	0	0	0	489	507	0	0					
1	0	0	0	0	476	505	0	0					
2	0	0	0	0	486	502	0	0					
3	0	0	0	0	517	508	0	0					
4	0	0	0	0	521	505	0	0					
5	0	0	0	0	528	507	0	0					
6	0	0	0	0	522	512	9	0					
7	0	0	0	0	511	514	11	0					
8	0	0	0	0	503	512	12	0					
9	0	0	0	0	509	509	12	0					
10	0	0	0	0	504	508	13	0					
11	0	0	0	0	506	508	12	0					
12	0	0	0	0	510	502	19	0					
13	0	0	0	0	523	505	23	0					
14	0	0	0	0	525	509	25	0					
15	0	0	0	0	528	509	26	0					
0	0	0	0	0	518	505	35	0					
1	0	0	0	0	506	502	37	0					
2	0	0	0	0	508	503	38	0					
3	0	0	0	0	506	508	40	0					
4	0	0	0	0	515	514	41	0					
5	0	0	0	0	514	513	42	0					
6	0	0	0	0	510	513	41	0					
7	0	0	0	0	508	503	41	0					
8	0	0	0	0	510	506	41	0					
9	0	0	0	0	515	504	43	0					
10	0	0	0	0	518	508	43	0					
11	0	0	0	0	536	513	45	0					
12	0	0	0	0	526	515	46	0					
13	0	0	0	0	512	512	47	0					
14	0	0	0	0	518	509	47	0					
15	0	0	0	0	491	504	48	0					
0	0	0	0	0	475	498	49	0					
1	0	0	0	0	488	501	49	0					
2	0	0	0	0	533	508	49	0					
3	0	0	0	0	545	517	49	0					
4	0	0	0	0	531	523	51	0					
5	0	0	0	0	475	516	53	0					
6	0	0	0	0	484	507	51	0					
7	0	0	0	0	510	506	54	0					
8	0	0	0	0	519	498	54	0					
9	0	0	0	0	510	501	54	0					
10	0	0	0	0	532	509	55	0					
11	0	0	0	0	580	508	56	0					
12	0	0	0	0	571	504	56	0					
13	0	0	0	0	535	504	58	0					
14	0	0	0	0	485	500	58	0					
15	0	0	0	0	422	499	59	0					
0	0	0	0	0	344	506	61	0					
1	0	0	0	0	405	508	60	0					
2	0	0	0	0	495	504	61	0					
3	0	0	0	0	552	527	61	0					
4	0	0	0	0	540	518	61	0					
5	0	0	0	0	561	523	62	0					
6	0	0	0	0	607	521	65	0					
7	0	0	0	0	595	510	65	0					
8	0	0	0	0	525	503	66	0					
9	0	0	0	0	482	497	68	0					
10	0	0	0	0	478	493	68	0					
11	0	0	0	0	471	494	72	0					
12	0	0	0	0	483	495	73	0					
13	0	0	0	0	489	502	73	0					
14	0	0	0	0	507	508	77	0					
15	0	0	0	0	541	510	79	0					
0	0	0	0	0	551	508	80	0					
1	0	0	0	0	532	532	83	0					
2	0	0	0	0	519	532	87	0					
3	0	0	0	0	496	518	90	0					
4	0	0	0	0	472	508	93	0					
5	0	0	0	0	512	504	94	0					
6	0	0	0	0	524	500	94	0					
7	0	0	0	0	493	499	98	0					
8	0	0	0	0	505	510	101	0					
9	0	0	0	0	505	516	105	0					
10	0	0	0	0	489	513	108	0					
11	0	0	0	0	527	502	110	0					
12	0	0	0	0	543	492	108	0					
13	0	0	0	0	550	499	103	0					
14	0	0	0	0	520	498	105	0					
15	0	0	0	0	465	498	111	0					
0	0	0	0	0	459	506	117	0					
1	0	0	0	0	544	526	119	0					
2	0	0	0	0	600	534	127	0					
3	0	0	0	0	595	526	127	0					
4	0	0	0	0	585	508	133	0					
5	0	0	0	0	508	499	139	0					
6	0	0	0	0	363	487	141	0					
7	0	0	0	0	277	496	140	0					
8	0	0	0	0	430	519	138	0					
9	0	0	0	0	497	513	138	0					
10	0	0	0	0	508	507	137	0					
11	0	0	0	0	534	507	137	0					
12	0	0	0	0	542	515	138	0					
13	0	0	0	0	556	518	140	0					
14	0	0	0	0	547	505	141	0					
15	0	0	0	0	594	495	148	0					
0	0	0	0	0	604	509	150	0					
1	0	0	0	0	588	525	150	0					
2	0	0	0	0	566	510	154	0					
3	0	0	0	0	523	503	159	0					
4	0	0	0	0	475	497	159	0					
5	0	0	0	0	414	486	161	0					
6	0	0	0	0	437	498	160	0					
7	0	0	0	0	487	514	163	0					
8	0	0	0	0	529	509	164	0					
9	0	0	0	0	576	518	166	0					
10	0	0	0	0	542	521	167	0					
11	0	0	0	0	559	515	168	0					
12	0	0	0	0	491	512	159	0					
13	0	0	0	0	472	493	162	0					
14	0	0	0	0	449	471	167	0					
15	0	0	0	0	493	473	157	0					
0	0	0	0	0	497	495	164	0					
1	0	0	0	0	514	511	154	0					
2	0	0	0	0	485	531	153	0					
3	0	0	0	0	498	561	156	0					
4	0	0	0	0	520	553	167	0					
5	0	0	0	0	571	532	163	0					
6	0	0	0	0	598	508	163	0					
7	0	0	0	0	520	499	162	0					
8	0	0	0	0	427	494	160	0					
9	0	0	0	0	393	494	159	0					
10	0	0	0	0	435	484	161	0					
11	0	0	0	0	501	488	164	0					
12	0	0	0	0	518	503	162	0					
13	0	0	0	0	555	511	161	0					
14	0	0	0	0	565	515	160	0					
15	0	0	0	0	506	508	159	0					
0	0	0	0	0	497	497	161	0					
1	0	0	0	0	536	512	163	0					
2	0	0	0	0	539	514	169	0					
3	0	0	0	0	515	509	160	0					
4	0	0	0	0	510	508	156	0					
5	0	0	0	0	470	510	154	0					
6	0	0	0	0	488	509	154	0					
7	0	0	0	0	560	513	155	0					
8	0	0	0	0	579	506	155	0					
9	0	0	0	0	533	502	156	0					
10	0	0	0	0	512	506	156	0					
11	0	0	0	0	513	505	153	0					
12	0	0	0	0	438	499	149	0					
13	0	0	0	0	416	497	147	0					
14	0	0	0	0	503	507	140	0					
15	0	0	0	0	526	513	145	0					
0	0	0	0	0	518	517	153	0					
1	0	0	0	0	536	512	153	0					
2	0	0	0	0	552	513	156	0					
3	0	0	0	0	548	518	154	0					
4	0	0	0	0	497	510	152	0					
5	0	0	0	0	496	506	151	0					
6	0	0	0	0	519	507	151	0					
7	0	0	0	0	516	504	151	0					
8	0	0	0	0	521	501	152	0					
9	0	0	0	0	499	508	149	0					
10	0	0	0	0	510	508	146	0					
11	0	0	0	0	515	509	149	0					
12	0	0	0	0	501	507	147	0					
13	0	0	0	0	494	507	145	0					
14	0	0	0	0	498	510	143	0					
15	0	0	0	0	508	511	142	0					
0	0	0	0	0	511	508	142	0					
1	0	0	0	0	518	506	140	0					
2	0	0	0	0	522	508	139	0					
3	0	0	0	0	533	506	139	0					
4	0	0	0	0	531	504	149	0					
5	0	0	0	0	508	503	159	0					
6	0	0	0	0	511	508	158	0					
7	0	0	0	0	514	511	162	0					
8	0	0	0	0	505	509	156	0					
9	0	0	0	0	494	511	157	0					
10	0	0	0	0	486	509	155	0					
11	0	0	0	0	515	503	158	0					
12	0	0	0	0	520	505	158	0					
13	0	0	0	0	518	508	159	0					
14	0	0	0	0	536	510	157	0					
15	0	0	0	0	536	511	159	0					
0	0	0	0	0	539	516	159	0					
1	0	0	0	0	532	511	153	0					
2	0	0	0	0	533	497	152	0					
3	0	0	0	0	511	499	151	0					
4	0	0	0	0	513	501	149	0					
5	0	0	0	0	527	509	147	0					
6	0	0	0	0	552	509	149	0					
7	0	0	0	0	532	514	151	0					
8	0	0	0	0	436	506	151	0					
9	0	0	0	0	359	507	151	0					
10	0	0	0	0	395	524	181	0					
11	0	0	0	0	513	519	183	0					
12	0	0	0	0	528	508	182	0					
13	0	0	0	0	513	503	182	0					
14	0	0	0	0	514	504	183	0					
15	0	0	0	0	526	505	182	0					
0	0	0	0	0	531	506	182	0					
1	0	0	0	0	522	508	183	0					
2	0	0	0	0	521	508	184	0					
3	0	0	0	0	519	512	184	0					
4	0	0	0	0	524	510	184	0					
5	0	0	0	0	523	507	185	0					
6	0	0	0	0	521	506	184	0					
7	0	0	0	0	523	506	184	0					
8	0	0	0	0	520	507	185	0					
9	0	0	0	0	515	506	184	0					
10	0	0	0	0	513	506	184	0					
11	0	0	0	0	510	508	182	0					
12	0	0	0	0	510	508	182	0					
13	0	0	0	0	509	507	182	0					
14	0	0	0	0	508	507	183	0					
15	0	0	0	0	509	508	184	0					
0	0	0	0	0	517	508	184	0					
1	0	0	0	0	519	510	183	0					
2	0	0	0	0	521	508	182	0					
3	0	0	0	0	508	508	183	0					
4	0	0	0	0	498	509	182	0					
5	0	0	0	0	499	509	182	0					
6	0	0	0	0	509	510	181	0					
7	0	0	0	0	512	512	185	0					
8	0	0	0	0	512	511	184	0					
9	0	0	0	0	519	508	179	0					
10	0	0	0	0	522	505	180	0					
11	0	0	0	0	515	507	184	0					
12	0	0	0	0	512	507	185	0					
13	0	0	0	0	511	505	183	0					
14	0	0	0	0	511	506	183	0					
15	0	0	0	0	508	505	182	0					
0	0	0	0	0	508	506	181	0					
1	0	0	0	0	507	507	180	0					
2	0	0	0	0	500	506	180	0					
3	0	0	0	0	500	508	180	0					
4	0	0	0	0	508	508	180	0					
5	0	0	0	0	508	508	180	0					
6	0	0	0	0	512	507	182	0					
7	0	0	0	0	511	509	182	0					
8	0	0	0	0	512	510	181	0					
9	0	0	0	0	512	510	180	0					
10	0	0	0	0	514	509	175	0					
11	0	0	0	0	515	512	175	0					
12	0	0	0	0	514	510	175	0					
13	0	0	0	0	514	507	174	0					
14	0	0	0	0	511	507	175	0					
15	0	0	0	0	511	506	174	0					
0	0	0	0	0	510	505	174	0					
1	0	0	0	0	510	506	173	0					
2	0	0	0	0	506	508	172	0					
3	0	0	0	0	513	507	173	0					
4	0	0	0	0	509	507	173	0					
5	0	0	0	0	508	505	172	0					
6	0	0	0	0	508	508	172	0					
7	0	0	0	0	511	505	172	0					
8	0	0	0	0	508	509	172	0					
9	0	0	0	0	507	509	171	0					
10	0	0	0	0	512	510	174	0					
11	0	0	0	0	516	508	174	0					
12	0	0	0	0	511	508	172	0					
13	0	0	0	0	510	511	168	0					
14	0	0	0	0	507	510	167	0					
15	0	0	0	0	510	510	166	0					
0	0	0	0	0	508	508	167	0					
1	0	0	0	0	520	508	167	0					
2	0	0	0	0	514	508	163	0					
3	0	0	0	0	512	509	162	0					
4	0	0	0	0	507	508	158	0					
5	0	0	0	0	512	508	156	0					
6	0	0	0	0	510	506	153	0					
7	0	0	0	0	510	505	151	0					
8	0	0	0	0	509	505	150	0					
9	0	0	0	0	507	505	148	0					
10	0	0	0	0	509	506	149	0					
11	0	0	0	0	508	506	147	0					
12	0	0	0	0	509	508	146	0					
13	0	0	0	0	510	509	146	0					
14	0	0	0	0	511	508	144	0					
15	0	0	0	0	513	510	144	0					
0	0	0	0	0	512	510	143	0					
1	0	0	0	0	511	509	142	0					
2	0	0	0	0	510	508	138	0					
3	0	0	0	0	511	511	139	0					
4	0	0	0	0	512	508	136	0					
5	0	0	0	0	512	508	137	0					
6	0	0	0	0	514	507	132	0					
7	0	0	0	0	513	505	129	0					
8	0	0	0	0	510	507	99	0					
9	0	0	0	0	508	510	100	0					
10	0	0	0	0	508	509	99	0					
11	0	0	0	0	508	508	95	0					
12	0	0	0	0	515	504	88	0					
13	0	0	0	0	512	503	88	0					
14	0	0	0	0	508	508	85	0					
15	0	0	0	0	506	511	79	0					
0	0	0	0	0	510	508	78	0					
1	0	0	0	0	512	508	76	0					
2	0	0	0	0	508	509	71	0					
3	0	0	0	0	512	511	65	0					
4	0	0	0	0	515	509	63	0					
5	0	0	0	0	514	509	59	0					
6	0	0	0	0	514	509	46	0					
7	0	0	0	0	512	508	34	0					
8	0	0	0	0	512	507	28	0					
9	0	0	0	0	511	508	23	0					
10	0	0	0	0	512	508	16	0					
11	0	0	0	0	510	509	11	0					
12	0	0	0	0	510	507	7	0					
13	0	0	0	0	511	507	6	0					
14	0	0	0	0	508	505	2	0					
15	0	0	0	0	508	507	1	0					
0	0	0	0	0	505	508	0	0					
1	0	0	0	0	505	505	0	0					
2	0	0	0	0	507	507	0	0					
3	0	0	0	0	512	508	0	0					
4	0	0	0	0	512	507	0	0					
5	0	0	0	0	512	508	0	0					
6	0	0	0	0	512	509	0	0					
7	0	0	0	0	513	509	0	0					
8	0	0	0	0	510	507	0	0					
9	0	0	0	0	513	508	0	0					
10	0	0	0	0	511	508	0	0					
11	0	0	0	0	512	511	0	0					
12	0	0	0	0	510	511	0	0					
13	0	0	0	0	513	507	0	0					
14	0	0	0	0	512	507	0	0					
15	0	0	0	0	513	507	0	0					
0	0	0	0	0	510	508	0	0					
1	0	0	0	0	510	507	0	0					
2	0	0	0	0	510	508	0	0					
3	0	0	0	0	509	505	0	0					
4	0	0	0	0	507	506	0	0					
5	0	0	0	0	510	508	0	0					
6	0	0	0	0	505	507	0	0					
7	0	0	0	0	508	506	0	0					
8	0	0	0	0	507	509	0	0					
9	0	0	0	0	508	508	0	0					
10	0	0	0	0	508	509	0	0					
11	0	0	0	0	511	508	0	0					
12	0	0	0	0	512	511	0	0					
13	0	0	0	0	513	509	0	0					
14	0	0	0	0	514	511	0	0					
15	0	0	0	0	515	510	0	0					
0	0	0	0	0	514	512	0	0					
1	0	0	0	0	513	510	0	0					
2	0	0	0	0	514	507	0	0					
3	0	0	0	0	513	507	0	0					
4	0	0	0	0	511	507	0	0					
5	0	0	0	0	510	504	0	0					
6	0	0	0	0	508	508	0	0					
7	0	0	0	0	508	507	0	0					
8	0	0	0	0	508	506	0	0					
9	0	0	0	0	505	505	0	0					
10	0	0	0	0	508	507	0	0					
11	0	0	0	0	509	507	0	0					
12	0	0	0	0	508	508	0	0					
13	0	0	0	0	508	508	0	0					
14	0	0	0	0	512	508	0	0					
15	0	0	0	0	513	508	0	0					
0	0	0	0	0	514	508	0	0					
1	0	0	0	0	513	509	0	0					
2	0	0	0	0	511	510	0	0					
3	0	0	0	0	514	512	0	0					
4	0	0	0	0	513	510	0	0					
5	0	0	0	0	515	505	0	0					
6	0	0	0	0	513	506	0	0					
7	0	0	0	0	514	507	0	0					
8	0	0	0	0	511	507	0	0					
9	0	0	0	0	510	508	0	0					
10	0	0	0	0	509	507	0	0					
11	0	0	0	0	506	507	0	0					
12	0	0	0	0	505	508	0	0					
13	0	0	0	0	505	508	0	0					
14	0	0	0	0	506	507	0	0					
15	0	0	0	0	508	509	0	0					
0	0	0	0	0	508	508	0	0					
1	0	0	0	0	508	509	0	0					
2	0	0	0	0	512	508	0	0					
3	0	0	0	0	514	508	0	0					
4	0	0	0	0	517	507	0	0					
5	0	0	0	0	516	509	0	0					
6	0	0	0	0	514	511	0	0					
7	0	0	0	0	513	509	0	0					
8	0	0	0	0	512	509	0	0					
9	0	0	0	0	511	511	0	0					
10	0	0	0	0	513	509	1	0					
11	0	0	0	0	511	508	2	0					
12	0	0	0	0	510	507	3	0					
13	0	0	0	0	511	504	3	0					
14	0	0	0	0	509	506	3	0					
15	0	0	0	0	511	507	4	0					
0	0	0	0	0	508	507	5	0					
1	0	0	0	0	508	506	5	0					
2	0	0	0	0	505	509	5	0					
3	0	0	0	0	510	507	5	0					
4	0	0	0	0	510	507	5	0					
5	0	0	0	0	510	509	5	0					
6	0	0	0	0	511	511	5	0					
7	0	0	0	0	513	508	4	0					
8	0	0	0	0	514	509	4	0					
9	0	0	0	0	515	508	3	0					
10	0	0	0	0	511	511	3	0					
11	0	0	0	0	511	509	2	0					
12	0	0	0	0	513	510	0	0					
13	0	0	0	0	511	509	0	0					
14	0	0	0	0	512	507	0	0					
15	0	0	0	0	510	508	0	0					
0	0	0	0	0	510	506	0	0					
1	0	0	0	0	508	508	0	0					
2	0	0	0	0	508	505	0	0					
3	0	0	0	0	508	505	0	0					
4	0	0	0	0	509	506	0	0					
5	0	0	0	0	509	506	0	0					
6	0	0	0	0	507	507	0	0					
7	0	0	0	0	508	507	0	0					
8	0	0	0	0	509	508	0	0					
9	0	0	0	0	510	509	0	0					
10	0	0	0	0	510	511	0	0					
11	0	0	0	0	512	509	0	0					
12	0	0	0	0	512	509	0	0					
13	0	0	0	0	513	510	0	0					
14	0	0	0	0	507	506	0	0					
15	0	0	0	0	516	511	0	0					
0	0	0	0	0	518	508	0	0					
1	0	0	0	0	514	508	0	0					
2	0	0	0	0	513	508	0	0					
3	0	0	0	0	512	508	0	0					
4	0	0	0	0	510	507	0	0					
5	0	0	0	0	508	508	0	0					
6	0	0	0	0	508	507	0	0					
7	0	0	0	0	508	508	0	0					
8	0	0	0	0	510	508	0	0					
9	0	0	0	0	507	505	0	0					
10	0	0	0	0	505	505	0	0					
11	0	0	0	0	507	507	0	0					
12	0	0	0	0	508	507	0	0					
13	0	0	0	0	509	509	0	0					
14	0	0	0	0	511	510	0	0					
15	0	0	0	0	511	508	0	0					
0	0	0	0	0	512	509	0	0					
1	0	0	0	0	513	507	0	0					
2	0	0	0	0	511	512	0	0					
3	0	0	0	0	514	510	0	0					
4	0	0	0	0	513	508	0	0					
5	0	0	0	0	511	508	0	0					
6	0	0	0	0	510	507	0	0					
7	0	0	0	0	512	505	0	0					
8	0	0	0	0	512	506	0	0					
9	0	0	0	0	511	508	0	0					
10	0	0	0	0	508	508	0	0					
11	0	0	0	0	510	508	0	0					
12	0	0	0	0	511	507	0	0					
13	0	0	0	0	507	508	0	0					
14	0	0	0	0	507	507	0	0					
15	0	0	0	0	510	509	0	0					
0	0	0	0	0	508	506	0	0					
1	0	0	0	0	509	507	0	0					
2	0	0	0	0	511	511	0	0					
3	0	0	0	0	509	508	0	0					
4	0	0	0	0	512	510	0	0					
5	0	0	0	0	513	509	0	0					
6	0	0	0	0	517	510	0	0					
7	0	0	0	0	513	510	0	0					
8	0	0	0	0	516	509	0	0					
9	0	0	0	0	513	510	0	0					
10	0	0	0	0	513	508	0	0					
11	0	0	0	0	512	506	0	0					
12	0	0	0	0	510	507	0	0					
13	0	0	0	0	507	505	0	0					
14	0	0	0	0	509	507	0	0					
15	0	0	0	0	507	507	0	0					
0	0	0	0	0	508	506	0	0					
1	0	0	0	0	508	506	0	0					
2	0	0	0	0	506	505	0	0					
3	0	0	0	0	504	508	0	0					
4	0	0	0	0	510	506	0	0					
5	0	0	0	0	514	510	0	0					
6	0	0	0	0	514	508	0	0					
7	0	0	0	0	515	509	0	0					
8	0	0	0	0	515	511	0	0					
9	0	0	0	0	512	508	0	0					
10	0	0	0	0	510	509	0	0					
11	0	0	0	0	511	511	0	0					
12	0	0	0	0	515	510	0	0					
13	0	0	0	0	510	508	0	0					
14	0	0	0	0	512	507	0	0					
15	0	0	0	0	507	508	0	0					
0	0	0	0	0	511	506	0	0					
1	0	0	0	0	510	506	0	0					
2	0	0	0	0	510	508	0	0					
3	0	0	0	0	507	505	0	0					
4	0	0	0	0	510	505	0	0					
5	0	0	0	0	509	508	0	0					
6	0	0	0	0	510	508	0	0					
7	0	0	0	0	507	508	0	0					
8	0	0	0	0	508	506	0	0					
9	0	0	0	0	509	508	0	0					
10	0	0	0	0	508	508	0	0					
11	0	0	0	0	511	509	0	0					
12	0	0	0	0	518	511	0	0					
13	0	0	0	0	514	510	0	0					
14	0	0	0	0	513	508	0	0					
15	0	0	0	0	511	509	0	0					
0	0	0	0	0	512	510	0	0					
1	0	0	0	0	513	508	0	0					
2	0	0	0	0	513	507	0	0					
3	0	0	0	0	512	505	0	0					
4	0	0	0	0	510	505	0	0					
5	0	0	0	0	509	507	0	0					
6	0	0	0	0	508	508	0	0					
7	0	0	0	0	508	506	0	0					
8	0	0	0	0	507	506	0	0					
9	0	0	0	0	507	506	0	0					
10	0	0	0	0	506	508	0	0					
11	0	0	0	0	508	509	0	0					
12	0	0	0	0	509	507	0	0					
13	0	0	0	0	510	509	0	0					
14	0	0	0	0	511	507	0	0					
15	0	0	0	0	513	509	0	0					
0	0	0	0	0	513	509	0	0					
1	0	0	0	0	515	511	0	0					
2	0	0	0	0	511	507	0	0					
3	0	0	0	0	513	509	0	0					
4	0	0	0	0	513	509	0	0					
5	0	0	0	0	513	508	0	0					
6	0	0	0	0	513	507	0	0					
7	0	0	0	0	512	507	0	0					
8	0	0	0	0	511	509	0	0					
9	0	0	0	0	511	507	0	0					
10	0	0	0	0	510	507	0	0					
11	0	0	0	0	507	506	0	0					
12	0	0	0	0	509	507	0	0					
13	0	0	0	0	508	505	0	0					
14	0	0	0	0	507	505	0	0					
15	0	0	0	0	505	505	0	0					
0	0	0	0	0	508	509	0	0					
1	0	0	0	0	509	507	0	0					
2	0	0	0	0	512	509	0	0					
3	0	0	0	0	513	510	0	0					
4	0	0	0	0	515	510	0	0					
5	0	0	0	0	515	509	0	0					
6	0	0	0	0	511	508	0	0					
7	0	0	0	0	513	511	0	0					
8	0	0	0	0	513	507	0	0					
9	0	0	0	0	510	507	0	0					
10	0	0	0	0	512	507	0	0					
11	0	0	0	0	513	507	0	0					
12	0	0	0	0	513	507	0	0					
13	0	0	0	0	510	506	0	0					
14	0	0	0	0	510	509	0	0					
15	0	0	0	0	509	508	0	0					
0	0	0	0	0	508	507	0	0					
1	0	0	0	0	506	508	0	0					
2	0	0	0	0	506	507	0	0					
3	0	0	0	0	508	507	0	0					
4	0	0	0	0	509	507	0	0					
5	0	0	0	0	508	510	0	0					
6	0	0	0	0	511	508	0	0					
7	0	0	0	0	512	510	0	0					
8	0	0	0	0	516	508	0	0					
9	0	0	0	0	515	509	0	0					
10	0	0	0	0	513	510	0	0					
11	0	0	0	0	512	509	0	0					
12	0	0	0	0	513	510	0	0					
13	0	0	0	0	511	508	0	0					
14	0	0	0	0	510	508	0	0					
15	0	0	0	0	511	504	0	0					
0	0	0	0	0	513	507	0	0					
1	0	0	0	0	512	506	0	0					
2	0	0	0	0	508	508	0	0					
3	0	0	0	0	509	507	0	0					
4	0	0	0	0	508	506	0	0					
5	0	0	0	0	508	507	0	0					
6	0	0	0	0	508	507	0	0					
7	0	0	0	0	506	508	0	0					
8	0	0	0	0	508	507	0	0					
9	0	0	0	0	511	508	0	0					
10	0	0	0	0	510	510	0	0					
11	0	0	0	0	510	509	0	0					
12	0	0	0	0	513	508	0	0					
13	0	0	0	0	514	510	0	0					
14	0	0	0	0	513	510	0	0					
15	0	0	0	0	512	510	0	0					
0	0	0	0	0	512	508	0	0					
1	0	0	0	0	514	509	0	0					
2	0	0	0	0	511	505	0	0					
3	0	0	0	0	512	508	0	0					
4	0	0	0	0	512	506	0	0					
5	0	0	0	0	512	507	0	0					
6	0	0	0	0	509	507	0	0					
7	0	0	0	0	508	504	0	0					
8	0	0	0	0	508	507	0	0					
9	0	0	0	0	507	505	0	0					
10	0	0	0	0	510	505	0	0					
11	0	0	0	0	508	505	0	0					
12	0	0	0	0	511	508	0	0					
13	0	0	0	0	511	510	0	0					
14	0	0	0	0	511	508	0	0					
15	0	0	0	0	510	510	0	0					
0	0	0	0	0	513	511	0	0					
1	0	0	0	0	515	509	0	0					
2	0	0	0	0	513	509	0	0					
3	0	0	0	0	513	508	0	0					
4	0	0	0	0	514	508	0	0					
5	0	0	0	0	514	505	0	0					
6	0	0	0	0	510	506	0	0					
7	0	0	0	0	512	507	0	0					
8	0	0	0	0	511	506	0	0					
9	0	0	0	0	510	508	0	0					
10	0	0	0	0	510	508	0	0					
11	0	0	0	0	510	507	0	0					
12	0	0	0	0	508	506	0	0					
13	0	0	0	0	506	505	0	0					
14	0	0	0	0	507	508	0	0					
15	0	0	0	0	508	508	0	0					
0	0	0	0	0	511	508	0	0					
1	0	0	0	0	512	511	0	0					
2	0	0	0	0	512	510	0	0					
3	0	0	0	0	512	508	0	0					
4	0	0	0	0	514	509	0	0					
5	0	0	0	0	513	509	0	0					
6	0	0	0	0	513	510	0	0					
7	0	0	0	0	513	510	0	0					
8	0	0	0	0	513	510	0	0					
9	0	0	0	0	512	509	0	0					
10	0	0	0	0	512	507	0	0					
11	0	0	0	0	511	508	0	0					
