# OpenSignals Text File Format. Version 1
# {"20:18:06:13:21:78": {"position": 0, "device": "bitalino_rev", "device name": "20:18:06:13:21:78", "device connection": "BTH20:18:06:13:21:78", "sampling rate": 1000, "resolution": [4, 1, 1, 1, 1, 10, 10, 10, 10], "firmware version": 1281, "comments": "", "keywords": "", "mode": 0, "sync interval": 2, "date": "2023-5-30", "time": "19:1:34.351", "channels": [1, 2, 3, 4], "sensor": ["EMGBITREV", "EMGBITREV", "RAW", "RAW"], "label": ["A1", "A2", "A3", "A4"], "column": ["nSeq", "I1", "I2", "O1", "O2", "A1", "A2", "A3", "A4"], "special": [{}, {}, {}, {}], "digital IO": [0, 0, 1, 1]}}
# EndOfHeader
0	0	0	0	0	511	507	0	0	
1	0	0	0	0	513	508	0	0	
2	0	0	0	0	511	509	0	0	
3	0	0	0	0	511	509	0	0	
4	0	0	0	0	510	508	0	0	
5	0	0	0	0	510	508	0	0	
6	0	0	0	0	511	510	0	0	
7	0	0	0	0	510	509	0	0	
8	0	0	0	0	509	508	0	0	
9	0	0	0	0	510	507	0	0	
10	0	0	0	0	511	508	0	0	
11	0	0	0	0	512	509	0	0	
12	0	0	0	0	511	508	0	0	
13	0	0	0	0	511	507	0	0	
14	0	0	0	0	510	508	0	0	
15	0	0	0	0	512	507	0	0	
0	0	0	0	0	511	507	0	0	
1	0	0	0	0	511	509	0	0	
2	0	0	0	0	513	507	0	0	
3	0	0	0	0	515	510	0	0	
4	0	0	0	0	512	508	0	0	
5	0	0	0	0	513	508	0	0	
6	0	0	0	0	511	509	0	0	
7	0	0	0	0	513	513	0	0	
8	0	0	0	0	511	510	0	0	
9	0	0	0	0	510	508	0	0	
10	0	0	0	0	510	507	0	0	
11	0	0	0	0	511	510	0	0	
12	0	0	0	0	510	510	0	0	
13	0	0	0	0	510	508	0	0	
14	0	0	0	0	513	510	0	0	
15	0	0	0	0	512	508	0	0	
0	0	0	0	0	511	508	0	0	
1	0	0	0	0	511	509	0	0	
2	0	0	0	0	510	508	0	0	
3	0	0	0	0	513	510	0	0	
4	0	0	0	0	511	510	0	0	
5	0	0	0	0	514	511	0	0	
6	0	0	0	0	511	509	0	0	
7	0	0	0	0	513	505	0	0	
8	0	0	0	0	511	507	0	0	
9	0	0	0	0	511	509	0	0	
10	0	0	0	0	511	506	0	0	
11	0	0	0	0	510	508	0	0	
12	0	0	0	0	508	508	0	0	
13	0	0	0	0	511	509	0	0	
14	0	0	0	0	512	510	0	0	
15	0	0	0	0	507	508	0	0	
0	0	0	0	0	511	509	0	0	
1	0	0	0	0	511	507	0	0	
2	0	0	0	0	511	508	0	0	
3	0	0	0	0	511	508	0	0	
4	0	0	0	0	512	511	0	0	
5	0	0	0	0	510	507	0	0	
6	0	0	0	0	510	508	0	0	
7	0	0	0	0	510	509	0	0	
8	0	0	0	0	511	508	0	0	
9	0	0	0	0	512	510	0	0	
10	0	0	0	0	510	508	0	0	
11	0	0	0	0	510	508	0	0	
12	0	0	0	0	511	507	0	0	
13	0	0	0	0	513	509	0	0	
14	0	0	0	0	510	506	0	0	
15	0	0	0	0	512	508	0	0	
0	0	0	0	0	512	508	0	0	
1	0	0	0	0	513	510	0	0	
2	0	0	0	0	511	511	0	0	
3	0	0	0	0	512	509	0	0	
4	0	0	0	0	513	508	0	0	
5	0	0	0	0	512	509	0	0	
6	0	0	0	0	512	508	0	0	
7	0	0	0	0	511	509	0	0	
8	0	0	0	0	511	508	0	0	
9	0	0	0	0	511	508	0	0	
10	0	0	0	0	505	508	0	0	
11	0	0	0	0	510	507	0	0	
12	0	0	0	0	512	508	0	0	
13	0	0	0	0	512	508	0	0	
14	0	0	0	0	512	509	0	0	
15	0	0	0	0	512	506	0	0	
0	0	0	0	0	511	508	0	0	
1	0	0	0	0	510	508	0	0	
2	0	0	0	0	511	508	0	0	
3	0	0	0	0	511	509	0	0	
4	0	0	0	0	511	508	0	0	
5	0	0	0	0	512	508	0	0	
6	0	0	0	0	511	509	0	0	
7	0	0	0	0	513	510	0	0	
8	0	0	0	0	511	508	0	0	
9	0	0	0	0	511	508	0	0	
10	0	0	0	0	511	507	0	0	
11	0	0	0	0	513	507	0	0	
12	0	0	0	0	510	509	0	0	
13	0	0	0	0	511	509	0	0	
14	0	0	0	0	511	507	0	0	
15	0	0	0	0	511	507	0	0	
0	0	0	0	0	509	508	0	0	
1	0	0	0	0	511	507	0	0	
2	0	0	0	0	510	509	0	0	
3	0	0	0	0	510	507	0	0	
4	0	0	0	0	511	508	0	0	
5	0	0	0	0	511	508	0	0	
6	0	0	0	0	511	508	0	0	
7	0	0	0	0	510	509	0	0	
8	0	0	0	0	510	508	0	0	
9	0	0	0	0	513	507	0	0	
10	0	0	0	0	512	507	0	0	
11	0	0	0	0	512	510	0	0	
12	0	0	0	0	511	509	0	0	
13	0	0	0	0	511	508	0	0	
14	0	0	0	0	509	509	0	0	
15	0	0	0	0	512	509	0	0	
0	0	0	0	0	513	511	0	0	
1	0	0	0	0	511	508	0	0	
2	0	0	0	0	513	506	0	0	
3	0	0	0	0	511	509	0	0	
4	0	0	0	0	512	509	0	0	
5	0	0	0	0	512	509	0	0	
6	0	0	0	0	509	508	0	0	
7	0	0	0	0	511	508	0	0	
8	0	0	0	0	511	510	0	0	
9	0	0	0	0	512	508	0	0	
10	0	0	0	0	510	509	0	0	
11	0	0	0	0	513	507	0	0	
12	0	0	0	0	511	508	0	0	
13	0	0	0	0	511	511	0	0	
14	0	0	0	0	512	509	0	0	
15	0	0	0	0	509	510	0	0	
0	0	0	0	0	511	508	0	0	
1	0	0	0	0	511	508	0	0	
2	0	0	0	0	511	508	0	0	
3	0	0	0	0	510	508	0	0	
4	0	0	0	0	511	508	0	0	
5	0	0	0	0	512	506	0	0	
6	0	0	0	0	511	508	0	0	
7	0	0	0	0	509	507	0	0	
8	0	0	0	0	511	508	0	0	
9	0	0	0	0	513	508	0	0	
10	0	0	0	0	511	510	0	0	
11	0	0	0	0	514	509	0	0	
12	0	0	0	0	512	505	0	0	
13	0	0	0	0	509	509	0	0	
14	0	0	0	0	511	512	0	0	
15	0	0	0	0	509	509	0	0	
0	0	0	0	0	509	509	0	0	
1	0	0	0	0	510	507	0	0	
2	0	0	0	0	512	510	0	0	
3	0	0	0	0	511	506	0	0	
4	0	0	0	0	510	510	0	0	
5	0	0	0	0	510	509	0	0	
6	0	0	0	0	511	508	0	0	
7	0	0	0	0	510	510	0	0	
8	0	0	0	0	511	509	0	0	
9	0	0	0	0	511	507	0	0	
10	0	0	0	0	510	506	0	0	
11	0	0	0	0	511	508	0	0	
12	0	0	0	0	510	509	0	0	
13	0	0	0	0	513	507	0	0	
14	0	0	0	0	511	508	0	0	
15	0	0	0	0	511	509	0	0	
0	0	0	0	0	511	508	0	0	
1	0	0	0	0	511	507	0	0	
2	0	0	0	0	508	508	0	0	
3	0	0	0	0	510	508	0	0	
4	0	0	0	0	513	509	0	0	
5	0	0	0	0	507	507	0	0	
6	0	0	0	0	510	508	0	0	
7	0	0	0	0	512	511	0	0	
8	0	0	0	0	512	508	0	0	
9	0	0	0	0	511	508	0	0	
10	0	0	0	0	511	509	0	0	
11	0	0	0	0	509	508	0	0	
12	0	0	0	0	510	507	0	0	
13	0	0	0	0	512	510	0	0	
14	0	0	0	0	511	508	0	0	
15	0	0	0	0	513	509	0	0	
0	0	0	0	0	511	508	0	0	
1	0	0	0	0	512	508	0	0	
2	0	0	0	0	513	509	0	0	
3	0	0	0	0	511	508	0	0	
4	0	0	0	0	512	507	0	0	
5	0	0	0	0	513	508	0	0	
6	0	0	0	0	510	507	0	0	
7	0	0	0	0	511	506	0	0	
8	0	0	0	0	511	508	0	0	
9	0	0	0	0	511	509	0	0	
10	0	0	0	0	512	509	0	0	
11	0	0	0	0	510	506	0	0	
12	0	0	0	0	510	508	0	0	
13	0	0	0	0	509	508	0	0	
14	0	0	0	0	512	509	0	0	
15	0	0	0	0	512	510	0	0	
0	0	0	0	0	512	506	0	0	
1	0	0	0	0	513	508	0	0	
2	0	0	0	0	511	506	0	0	
3	0	0	0	0	511	509	0	0	
4	0	0	0	0	513	509	0	0	
5	0	0	0	0	511	508	0	0	
6	0	0	0	0	510	509	0	0	
7	0	0	0	0	510	507	0	0	
8	0	0	0	0	511	509	0	0	
9	0	0	0	0	512	507	0	0	
10	0	0	0	0	512	508	0	0	
11	0	0	0	0	512	508	0	0	
12	0	0	0	0	511	507	0	0	
13	0	0	0	0	510	507	0	0	
14	0	0	0	0	508	507	0	0	
15	0	0	0	0	511	508	0	0	
0	0	0	0	0	511	509	0	0	
1	0	0	0	0	510	508	0	0	
2	0	0	0	0	510	508	0	0	
3	0	0	0	0	511	508	0	0	
4	0	0	0	0	513	508	0	0	
5	0	0	0	0	513	507	0	0	
6	0	0	0	0	511	508	0	0	
7	0	0	0	0	510	510	0	0	
8	0	0	0	0	511	507	0	0	
9	0	0	0	0	512	508	0	0	
10	0	0	0	0	512	509	0	0	
11	0	0	0	0	510	507	0	0	
12	0	0	0	0	511	507	0	0	
13	0	0	0	0	511	506	0	0	
14	0	0	0	0	510	508	0	0	
15	0	0	0	0	510	509	0	0	
0	0	0	0	0	510	508	0	0	
1	0	0	0	0	510	508	0	0	
2	0	0	0	0	511	510	0	0	
3	0	0	0	0	511	511	0	0	
4	0	0	0	0	510	508	0	0	
5	0	0	0	0	511	507	0	0	
6	0	0	0	0	511	509	0	0	
7	0	0	0	0	511	508	0	0	
8	0	0	0	0	510	508	0	0	
9	0	0	0	0	511	507	0	0	
10	0	0	0	0	510	508	0	0	
11	0	0	0	0	511	507	0	0	
12	0	0	0	0	513	507	0	0	
13	0	0	0	0	510	509	0	0	
14	0	0	0	0	511	508	0	0	
15	0	0	0	0	511	508	0	0	
0	0	0	0	0	513	509	0	0	
1	0	0	0	0	512	508	0	0	
2	0	0	0	0	510	505	0	0	
3	0	0	0	0	511	510	0	0	
4	0	0	0	0	509	508	0	0	
5	0	0	0	0	512	509	0	0	
6	0	0	0	0	511	509	0	0	
7	0	0	0	0	510	507	0	0	
8	0	0	0	0	510	510	0	0	
9	0	0	0	0	510	509	0	0	
10	0	0	0	0	510	508	0	0	
11	0	0	0	0	511	508	0	0	
12	0	0	0	0	510	507	0	0	
13	0	0	0	0	511	507	0	0	
14	0	0	0	0	509	509	0	0	
15	0	0	0	0	512	509	0	0	
0	0	0	0	0	513	509	0	0	
1	0	0	0	0	511	508	0	0	
2	0	0	0	0	512	508	0	0	
3	0	0	0	0	513	507	0	0	
4	0	0	0	0	513	508	0	0	
5	0	0	0	0	514	509	0	0	
6	0	0	0	0	511	510	0	0	
7	0	0	0	0	511	508	0	0	
8	0	0	0	0	509	508	0	0	
9	0	0	0	0	509	506	0	0	
10	0	0	0	0	513	508	0	0	
11	0	0	0	0	512	509	0	0	
12	0	0	0	0	511	506	0	0	
13	0	0	0	0	510	506	0	0	
14	0	0	0	0	512	508	0	0	
15	0	0	0	0	510	508	0	0	
0	0	0	0	0	508	506	0	0	
1	0	0	0	0	512	509	0	0	
2	0	0	0	0	511	509	0	0	
3	0	0	0	0	511	506	0	0	
4	0	0	0	0	511	509	0	0	
5	0	0	0	0	511	507	0	0	
6	0	0	0	0	511	508	0	0	
7	0	0	0	0	511	508	0	0	
8	0	0	0	0	512	508	0	0	
9	0	0	0	0	511	508	0	0	
10	0	0	0	0	510	510	0	0	
11	0	0	0	0	510	509	0	0	
12	0	0	0	0	511	508	0	0	
13	0	0	0	0	509	508	0	0	
14	0	0	0	0	511	509	0	0	
15	0	0	0	0	510	508	0	0	
0	0	0	0	0	511	508	0	0	
1	0	0	0	0	511	507	0	0	
2	0	0	0	0	511	508	0	0	
3	0	0	0	0	513	509	0	0	
4	0	0	0	0	511	509	0	0	
5	0	0	0	0	511	508	0	0	
6	0	0	0	0	511	508	0	0	
7	0	0	0	0	511	508	0	0	
8	0	0	0	0	513	508	0	0	
9	0	0	0	0	512	507	0	0	
10	0	0	0	0	511	508	0	0	
11	0	0	0	0	511	509	0	0	
12	0	0	0	0	511	509	0	0	
13	0	0	0	0	512	510	0	0	
14	0	0	0	0	510	506	0	0	
15	0	0	0	0	512	509	0	0	
0	0	0	0	0	507	509	0	0	
1	0	0	0	0	511	508	0	0	
2	0	0	0	0	512	509	0	0	
3	0	0	0	0	511	508	0	0	
4	0	0	0	0	512	509	0	0	
5	0	0	0	0	510	508	0	0	
6	0	0	0	0	510	508	0	0	
7	0	0	0	0	511	509	0	0	
8	0	0	0	0	513	509	0	0	
9	0	0	0	0	510	508	0	0	
10	0	0	0	0	511	507	0	0	
11	0	0	0	0	511	508	0	0	
12	0	0	0	0	512	508	0	0	
13	0	0	0	0	512	510	0	0	
14	0	0	0	0	513	507	0	0	
15	0	0	0	0	508	508	0	0	
0	0	0	0	0	510	508	0	0	
1	0	0	0	0	512	509	0	0	
2	0	0	0	0	510	509	0	0	
3	0	0	0	0	511	508	0	0	
4	0	0	0	0	509	507	0	0	
5	0	0	0	0	510	509	0	0	
6	0	0	0	0	511	510	0	0	
7	0	0	0	0	511	506	0	0	
8	0	0	0	0	513	507	0	0	
9	0	0	0	0	511	507	0	0	
10	0	0	0	0	512	510	0	0	
11	0	0	0	0	513	508	0	0	
12	0	0	0	0	510	507	1	0	
13	0	0	0	0	511	510	0	0	
14	0	0	0	0	512	508	0	0	
15	0	0	0	0	508	508	0	0	
0	0	0	0	0	511	508	0	0	
1	0	0	0	0	512	509	0	0	
2	0	0	0	0	510	508	0	0	
3	0	0	0	0	512	508	0	0	
4	0	0	0	0	510	509	0	0	
5	0	0	0	0	511	507	0	0	
6	0	0	0	0	509	508	0	0	
7	0	0	0	0	512	508	0	0	
8	0	0	0	0	509	506	0	0	
9	0	0	0	0	511	507	0	0	
10	0	0	0	0	510	507	0	0	
11	0	0	0	0	511	508	0	0	
12	0	0	0	0	512	508	0	0	
13	0	0	0	0	513	509	0	0	
14	0	0	0	0	511	508	0	0	
15	0	0	0	0	510	508	0	0	
0	0	0	0	0	515	510	0	0	
1	0	0	0	0	511	508	0	0	
2	0	0	0	0	510	510	0	0	
3	0	0	0	0	512	508	0	0	
4	0	0	0	0	509	507	0	0	
5	0	0	0	0	511	510	0	0	
6	0	0	0	0	511	508	0	0	
7	0	0	0	0	511	507	0	0	
8	0	0	0	0	511	509	0	0	
9	0	0	0	0	511	509	0	0	
10	0	0	0	0	511	509	0	0	
11	0	0	0	0	511	509	0	0	
12	0	0	0	0	511	508	0	0	
13	0	0	0	0	510	504	0	0	
14	0	0	0	0	510	507	0	0	
15	0	0	0	0	511	508	0	0	
0	0	0	0	0	511	509	0	0	
1	0	0	0	0	510	507	0	0	
2	0	0	0	0	510	509	0	0	
3	0	0	0	0	513	506	0	0	
4	0	0	0	0	512	507	0	0	
5	0	0	0	0	511	509	0	0	
6	0	0	0	0	509	508	0	0	
7	0	0	0	0	509	508	0	0	
8	0	0	0	0	508	508	0	0	
9	0	0	0	0	511	510	0	0	
10	0	0	0	0	513	510	0	0	
11	0	0	0	0	512	510	0	0	
12	0	0	0	0	511	508	0	0	
13	0	0	0	0	510	507	0	0	
14	0	0	0	0	511	508	0	0	
15	0	0	0	0	511	508	0	0	
0	0	0	0	0	511	508	0	0	
1	0	0	0	0	511	509	0	0	
2	0	0	0	0	512	508	0	0	
3	0	0	0	0	512	509	0	0	
4	0	0	0	0	511	508	0	0	
5	0	0	0	0	508	508	0	0	
6	0	0	0	0	512	506	0	0	
7	0	0	0	0	513	508	0	0	
8	0	0	0	0	511	508	0	0	
9	0	0	0	0	512	508	0	0	
10	0	0	0	0	512	510	0	0	
11	0	0	0	0	512	507	0	0	
12	0	0	0	0	512	507	0	0	
13	0	0	0	0	513	510	0	0	
14	0	0	0	0	511	507	0	0	
15	0	0	0	0	509	509	0	0	
0	0	0	0	0	510	506	0	0	
1	0	0	0	0	510	505	0	0	
2	0	0	0	0	511	509	0	0	
3	0	0	0	0	511	509	0	0	
4	0	0	0	0	511	510	0	0	
5	0	0	0	0	510	508	0	0	
6	0	0	0	0	510	509	0	0	
7	0	0	0	0	510	508	0	0	
8	0	0	0	0	510	507	0	0	
9	0	0	0	0	510	507	0	0	
10	0	0	0	0	511	508	0	0	
11	0	0	0	0	510	510	0	0	
12	0	0	0	0	509	510	0	0	
13	0	0	0	0	510	507	0	0	
14	0	0	0	0	511	507	0	0	
15	0	0	0	0	513	508	0	0	
0	0	0	0	0	514	510	0	0	
1	0	0	0	0	511	510	0	0	
2	0	0	0	0	511	509	0	0	
3	0	0	0	0	511	507	0	0	
4	0	0	0	0	511	507	0	0	
5	0	0	0	0	512	509	0	0	
6	0	0	0	0	511	508	0	0	
7	0	0	0	0	511	508	0	0	
8	0	0	0	0	509	508	0	0	
9	0	0	0	0	510	508	0	0	
10	0	0	0	0	510	509	0	0	
11	0	0	0	0	510	507	0	0	
12	0	0	0	0	513	509	0	0	
13	0	0	0	0	511	508	0	0	
14	0	0	0	0	514	508	0	0	
15	0	0	0	0	511	509	0	0	
0	0	0	0	0	511	507	0	0	
1	0	0	0	0	510	509	0	0	
2	0	0	0	0	511	508	0	0	
3	0	0	0	0	511	508	0	0	
4	0	0	0	0	514	508	0	0	
5	0	0	0	0	510	511	0	0	
6	0	0	0	0	510	509	0	0	
7	0	0	0	0	509	507	0	0	
8	0	0	0	0	509	509	0	0	
9	0	0	0	0	511	508	0	0	
10	0	0	0	0	512	511	0	0	
11	0	0	0	0	513	509	0	0	
12	0	0	0	0	512	508	0	0	
13	0	0	0	0	511	506	0	0	
14	0	0	0	0	512	506	0	0	
15	0	0	0	0	514	508	0	0	
0	0	0	0	0	511	508	0	0	
1	0	0	0	0	510	508	0	0	
2	0	0	0	0	511	508	0	0	
3	0	0	0	0	514	510	0	0	
4	0	0	0	0	511	508	0	0	
5	0	0	0	0	512	510	0	0	
6	0	0	0	0	509	507	0	0	
7	0	0	0	0	509	509	0	0	
8	0	0	0	0	512	506	0	0	
9	0	0	0	0	509	507	0	0	
10	0	0	0	0	513	508	0	0	
11	0	0	0	0	512	507	0	0	
12	0	0	0	0	512	509	0	0	
13	0	0	0	0	511	509	0	0	
14	0	0	0	0	512	508	0	0	
15	0	0	0	0	511	509	0	0	
0	0	0	0	0	511	505	0	0	
1	0	0	0	0	512	506	0	0	
2	0	0	0	0	511	508	0	0	
3	0	0	0	0	510	509	0	0	
4	0	0	0	0	512	510	0	0	
5	0	0	0	0	510	508	0	0	
6	0	0	0	0	511	510	0	0	
7	0	0	0	0	513	509	0	0	
8	0	0	0	0	510	506	0	0	
9	0	0	0	0	510	509	0	0	
10	0	0	0	0	512	510	0	0	
11	0	0	0	0	510	507	0	0	
12	0	0	0	0	511	509	0	0	
13	0	0	0	0	512	509	0	0	
14	0	0	0	0	509	508	0	0	
15	0	0	0	0	511	507	0	0	
0	0	0	0	0	511	509	0	0	
1	0	0	0	0	510	508	0	0	
2	0	0	0	0	510	507	0	0	
3	0	0	0	0	511	510	0	0	
4	0	0	0	0	509	507	0	0	
5	0	0	0	0	509	509	0	0	
6	0	0	0	0	512	509	0	0	
7	0	0	0	0	511	506	0	0	
8	0	0	0	0	512	509	0	0	
9	0	0	0	0	513	508	0	0	
10	0	0	0	0	513	508	0	0	
11	0	0	0	0	512	509	0	0	
12	0	0	0	0	514	508	0	0	
13	0	0	0	0	509	507	0	0	
14	0	0	0	0	510	507	0	0	
15	0	0	0	0	509	508	0	0	
0	0	0	0	0	510	508	0	0	
1	0	0	0	0	512	510	0	0	
2	0	0	0	0	509	508	0	0	
3	0	0	0	0	511	509	0	0	
4	0	0	0	0	510	508	0	0	
5	0	0	0	0	511	508	0	0	
6	0	0	0	0	512	510	0	0	
7	0	0	0	0	509	509	0	0	
8	0	0	0	0	509	508	0	0	
9	0	0	0	0	512	510	0	0	
10	0	0	0	0	508	508	0	0	
11	0	0	0	0	511	507	0	0	
12	0	0	0	0	508	509	0	0	
13	0	0	0	0	509	509	0	0	
14	0	0	0	0	509	508	0	0	
15	0	0	0	0	511	508	0	0	
0	0	0	0	0	512	509	0	0	
1	0	0	0	0	511	509	0	0	
2	0	0	0	0	510	509	0	0	
3	0	0	0	0	509	508	0	0	
4	0	0	0	0	513	509	0	0	
5	0	0	0	0	511	507	0	0	
6	0	0	0	0	511	506	0	0	
7	0	0	0	0	511	507	0	0	
8	0	0	0	0	512	507	0	0	
9	0	0	0	0	511	511	0	0	
10	0	0	0	0	513	510	0	0	
11	0	0	0	0	513	508	0	0	
12	0	0	0	0	512	508	0	0	
13	0	0	0	0	512	508	0	0	
14	0	0	0	0	512	508	0	0	
15	0	0	0	0	513	511	0	0	
0	0	0	0	0	511	506	0	0	
1	0	0	0	0	508	508	0	0	
2	0	0	0	0	511	508	0	0	
3	0	0	0	0	511	505	0	0	
4	0	0	0	0	513	505	0	0	
5	0	0	0	0	514	508	0	0	
6	0	0	0	0	512	508	0	0	
7	0	0	0	0	512	509	0	0	
8	0	0	0	0	516	510	0	0	
9	0	0	0	0	511	508	0	0	
10	0	0	0	0	511	509	0	0	
11	0	0	0	0	511	507	0	0	
12	0	0	0	0	512	506	0	0	
13	0	0	0	0	514	507	0	0	
14	0	0	0	0	513	510	0	0	
15	0	0	0	0	512	509	0	0	
0	0	0	0	0	510	507	0	0	
1	0	0	0	0	511	508	0	0	
2	0	0	0	0	511	509	0	0	
3	0	0	0	0	511	508	0	0	
4	0	0	0	0	511	510	0	0	
5	0	0	0	0	508	506	0	0	
6	0	0	0	0	510	508	0	0	
7	0	0	0	0	511	510	0	0	
8	0	0	0	0	509	507	0	0	
9	0	0	0	0	509	508	0	0	
10	0	0	0	0	511	506	0	0	
11	0	0	0	0	511	511	0	0	
12	0	0	0	0	510	510	0	0	
13	0	0	0	0	509	509	0	0	
14	0	0	0	0	509	510	0	0	
15	0	0	0	0	512	507	0	0	
0	0	0	0	0	508	507	0	0	
1	0	0	0	0	510	508	0	0	
2	0	0	0	0	508	507	0	0	
3	0	0	0	0	511	507	0	0	
4	0	0	0	0	511	508	0	0	
5	0	0	0	0	511	509	0	0	
6	0	0	0	0	511	507	0	0	
7	0	0	0	0	513	510	0	0	
8	0	0	0	0	511	511	0	0	
9	0	0	0	0	510	508	0	0	
10	0	0	0	0	512	507	0	0	
11	0	0	0	0	514	507	0	0	
12	0	0	0	0	513	510	0	0	
13	0	0	0	0	512	507	0	0	
14	0	0	0	0	513	508	0	0	
15	0	0	0	0	511	510	0	0	
0	0	0	0	0	511	506	0	0	
1	0	0	0	0	510	511	0	0	
2	0	0	0	0	506	508	0	0	
3	0	0	0	0	507	510	0	0	
4	0	0	0	0	506	508	0	0	
5	0	0	0	0	505	509	0	0	
6	0	0	0	0	504	507	0	0	
7	0	0	0	0	502	508	0	0	
8	0	0	0	0	502	508	0	0	
9	0	0	0	0	502	508	0	0	
10	0	0	0	0	507	507	0	0	
11	0	0	0	0	507	510	0	0	
12	0	0	0	0	504	507	0	0	
13	0	0	0	0	505	507	0	0	
14	0	0	0	0	506	509	0	0	
15	0	0	0	0	508	508	0	0	
0	0	0	0	0	508	508	0	0	
1	0	0	0	0	511	507	0	0	
2	0	0	0	0	510	505	0	0	
3	0	0	0	0	514	508	0	0	
4	0	0	0	0	516	507	0	0	
5	0	0	0	0	516	511	0	0	
6	0	0	0	0	516	508	0	0	
7	0	0	0	0	514	510	0	0	
8	0	0	0	0	514	507	0	0	
9	0	0	0	0	513	508	0	0	
10	0	0	0	0	516	508	0	0	
11	0	0	0	0	513	509	0	0	
12	0	0	0	0	515	508	0	0	
13	0	0	0	0	514	510	0	0	
14	0	0	0	0	515	510	0	0	
15	0	0	0	0	514	509	0	0	
0	0	0	0	0	511	508	0	0	
1	0	0	0	0	513	509	0	0	
2	0	0	0	0	512	509	0	0	
3	0	0	0	0	515	511	0	0	
4	0	0	0	0	513	507	0	0	
5	0	0	0	0	514	510	0	0	
6	0	0	0	0	513	507	0	0	
7	0	0	0	0	512	507	0	0	
8	0	0	0	0	510	507	0	0	
9	0	0	0	0	511	508	0	0	
10	0	0	0	0	511	508	0	0	
11	0	0	0	0	514	505	0	0	
12	0	0	0	0	514	508	0	0	
13	0	0	0	0	511	509	0	0	
14	0	0	0	0	513	510	0	0	
15	0	0	0	0	513	510	0	0	
0	0	0	0	0	514	508	0	0	
1	0	0	0	0	515	508	0	0	
2	0	0	0	0	512	509	0	0	
3	0	0	0	0	514	511	0	0	
4	0	0	0	0	512	507	0	0	
5	0	0	0	0	512	505	0	0	
6	0	0	0	0	513	508	0	0	
7	0	0	0	0	515	508	0	0	
8	0	0	0	0	515	508	0	0	
9	0	0	0	0	513	509	0	0	
10	0	0	0	0	512	507	0	0	
11	0	0	0	0	515	509	0	0	
12	0	0	0	0	512	509	0	0	
13	0	0	0	0	515	509	0	0	
14	0	0	0	0	514	508	0	0	
15	0	0	0	0	511	508	0	0	
0	0	0	0	0	510	506	0	0	
1	0	0	0	0	511	508	0	0	
2	0	0	0	0	511	509	0	0	
3	0	0	0	0	511	508	0	0	
4	0	0	0	0	509	508	0	0	
5	0	0	0	0	510	509	0	0	
6	0	0	0	0	511	511	0	0	
7	0	0	0	0	510	506	0	0	
8	0	0	0	0	511	507	0	0	
9	0	0	0	0	509	507	0	0	
10	0	0	0	0	510	509	0	0	
11	0	0	0	0	512	509	0	0	
12	0	0	0	0	512	507	0	0	
13	0	0	0	0	511	509	0	0	
14	0	0	0	0	511	508	0	0	
15	0	0	0	0	512	507	0	0	
0	0	0	0	0	513	510	0	0	
1	0	0	0	0	514	508	0	0	
2	0	0	0	0	513	507	0	0	
3	0	0	0	0	511	508	0	0	
4	0	0	0	0	515	507	0	0	
5	0	0	0	0	515	511	0	0	
6	0	0	0	0	510	508	0	0	
7	0	0	0	0	510	510	0	0	
8	0	0	0	0	510	508	0	0	
9	0	0	0	0	508	508	0	0	
10	0	0	0	0	501	507	0	0	
11	0	0	0	0	498	506	0	0	
12	0	0	0	0	499	507	0	0	
13	0	0	0	0	498	508	0	0	
14	0	0	0	0	501	510	0	0	
15	0	0	0	0	502	508	0	0	
0	0	0	0	0	503	509	0	0	
1	0	0	0	0	505	509	0	0	
2	0	0	0	0	507	507	0	0	
3	0	0	0	0	507	508	0	0	
4	0	0	0	0	510	508	0	0	
5	0	0	0	0	512	508	0	0	
6	0	0	0	0	513	508	0	0	
7	0	0	0	0	511	507	0	0	
8	0	0	0	0	513	509	0	0	
9	0	0	0	0	511	510	0	0	
10	0	0	0	0	511	510	0	0	
11	0	0	0	0	511	507	0	0	
12	0	0	0	0	511	508	0	0	
13	0	0	0	0	511	508	0	0	
14	0	0	0	0	511	508	0	0	
15	0	0	0	0	512	508	0	0	
0	0	0	0	0	512	507	0	0	
1	0	0	0	0	514	510	0	0	
2	0	0	0	0	512	507	0	0	
3	0	0	0	0	510	508	0	0	
4	0	0	0	0	514	508	0	0	
5	0	0	0	0	512	507	0	0	
6	0	0	0	0	511	507	0	0	
7	0	0	0	0	513	508	0	0	
8	0	0	0	0	513	509	0	0	
9	0	0	0	0	513	509	0	0	
10	0	0	0	0	513	509	0	0	
11	0	0	0	0	511	507	0	0	
12	0	0	0	0	514	506	0	0	
13	0	0	0	0	513	508	0	0	
14	0	0	0	0	511	510	0	0	
15	0	0	0	0	511	509	0	0	
0	0	0	0	0	512	508	0	0	
1	0	0	0	0	514	507	0	0	
2	0	0	0	0	513	507	0	0	
3	0	0	0	0	511	507	0	0	
4	0	0	0	0	512	508	0	0	
5	0	0	0	0	512	507	0	0	
6	0	0	0	0	512	507	0	0	
7	0	0	0	0	512	507	0	0	
8	0	0	0	0	511	509	0	0	
9	0	0	0	0	510	509	0	0	
10	0	0	0	0	511	507	0	0	
11	0	0	0	0	511	509	0	0	
12	0	0	0	0	513	510	0	0	
13	0	0	0	0	510	510	0	0	
14	0	0	0	0	512	509	0	0	
15	0	0	0	0	510	508	0	0	
0	0	0	0	0	512	507	0	0	
1	0	0	0	0	511	508	0	0	
2	0	0	0	0	509	509	0	0	
3	0	0	0	0	508	510	0	0	
4	0	0	0	0	512	508	0	0	
5	0	0	0	0	513	508	0	0	
6	0	0	0	0	513	508	0	0	
7	0	0	0	0	508	508	0	0	
8	0	0	0	0	511	510	0	0	
9	0	0	0	0	509	508	0	0	
10	0	0	0	0	512	507	0	0	
11	0	0	0	0	511	509	0	0	
12	0	0	0	0	510	508	0	0	
13	0	0	0	0	511	509	0	0	
14	0	0	0	0	512	508	0	0	
15	0	0	0	0	509	509	0	0	
0	0	0	0	0	511	507	0	0	
1	0	0	0	0	512	508	0	0	
2	0	0	0	0	513	506	0	0	
3	0	0	0	0	509	507	0	0	
4	0	0	0	0	513	509	0	0	
5	0	0	0	0	513	510	0	0	
6	0	0	0	0	512	508	0	0	
7	0	0	0	0	510	509	0	0	
8	0	0	0	0	510	509	0	0	
9	0	0	0	0	512	511	0	0	
10	0	0	0	0	511	509	0	0	
11	0	0	0	0	512	509	0	0	
12	0	0	0	0	512	508	0	0	
13	0	0	0	0	510	506	0	0	
14	0	0	0	0	509	508	0	0	
15	0	0	0	0	511	508	0	0	
0	0	0	0	0	511	510	0	0	
1	0	0	0	0	511	509	0	0	
2	0	0	0	0	512	508	0	0	
3	0	0	0	0	509	508	0	0	
4	0	0	0	0	512	508	0	0	
5	0	0	0	0	510	506	0	0	
6	0	0	0	0	511	508	0	0	
7	0	0	0	0	512	505	0	0	
8	0	0	0	0	515	508	0	0	
9	0	0	0	0	514	509	0	0	
10	0	0	0	0	511	507	0	0	
11	0	0	0	0	511	509	0	0	
12	0	0	0	0	509	508	0	0	
13	0	0	0	0	510	508	0	0	
14	0	0	0	0	513	510	0	0	
15	0	0	0	0	509	506	0	0	
0	0	0	0	0	510	509	0	0	
1	0	0	0	0	509	507	0	0	
2	0	0	0	0	512	509	0	0	
3	0	0	0	0	507	508	0	0	
4	0	0	0	0	510	507	0	0	
5	0	0	0	0	510	508	0	0	
6	0	0	0	0	511	508	0	0	
7	0	0	0	0	510	507	0	0	
8	0	0	0	0	513	509	0	0	
9	0	0	0	0	513	509	0	0	
10	0	0	0	0	512	508	0	0	
11	0	0	0	0	510	508	0	0	
12	0	0	0	0	511	507	0	0	
13	0	0	0	0	511	507	0	0	
14	0	0	0	0	512	509	0	0	
15	0	0	0	0	510	507	0	0	
0	0	0	0	0	511	506	0	0	
1	0	0	0	0	512	509	0	0	
2	0	0	0	0	512	511	0	0	
3	0	0	0	0	511	508	0	0	
4	0	0	0	0	508	510	0	0	
5	0	0	0	0	508	508	0	0	
6	0	0	0	0	511	507	0	0	
7	0	0	0	0	511	510	0	0	
8	0	0	0	0	510	509	0	0	
9	0	0	0	0	510	510	0	0	
10	0	0	0	0	511	506	0	0	
11	0	0	0	0	512	508	0	0	
12	0	0	0	0	511	507	0	0	
13	0	0	0	0	510	509	0	0	
14	0	0	0	0	511	508	0	0	
15	0	0	0	0	513	509	0	0	
0	0	0	0	0	511	508	0	0	
1	0	0	0	0	511	508	0	0	
2	0	0	0	0	512	508	0	0	
3	0	0	0	0	511	507	0	0	
4	0	0	0	0	510	509	0	0	
5	0	0	0	0	509	507	0	0	
6	0	0	0	0	510	510	0	0	
7	0	0	0	0	511	507	0	0	
8	0	0	0	0	511	509	0	0	
9	0	0	0	0	508	506	0	0	
10	0	0	0	0	511	508	0	0	
11	0	0	0	0	509	508	0	0	
12	0	0	0	0	511	508	0	0	
13	0	0	0	0	511	508	0	0	
14	0	0	0	0	511	508	0	0	
15	0	0	0	0	513	508	0	0	
0	0	0	0	0	512	510	0	0	
1	0	0	0	0	510	508	0	0	
2	0	0	0	0	512	509	0	0	
3	0	0	0	0	512	508	0	0	
4	0	0	0	0	511	508	0	0	
5	0	0	0	0	511	510	0	0	
6	0	0	0	0	509	509	0	0	
7	0	0	0	0	510	506	0	0	
8	0	0	0	0	509	508	0	0	
9	0	0	0	0	511	508	0	0	
10	0	0	0	0	512	507	0	0	
11	0	0	0	0	512	508	0	0	
12	0	0	0	0	511	508	0	0	
13	0	0	0	0	508	508	0	0	
14	0	0	0	0	511	507	0	0	
15	0	0	0	0	513	508	0	0	
0	0	0	0	0	511	507	0	0	
1	0	0	0	0	512	508	0	0	
2	0	0	0	0	511	506	0	0	
3	0	0	0	0	511	507	0	0	
4	0	0	0	0	510	506	0	0	
5	0	0	0	0	513	508	0	0	
6	0	0	0	0	510	510	0	0	
7	0	0	0	0	511	507	0	0	
8	0	0	0	0	509	509	0	0	
9	0	0	0	0	513	508	0	0	
10	0	0	0	0	511	507	0	0	
11	0	0	0	0	513	509	0	0	
12	0	0	0	0	509	509	0	0	
13	0	0	0	0	509	504	0	0	
14	0	0	0	0	511	509	0	0	
15	0	0	0	0	508	509	0	0	
0	0	0	0	0	512	508	0	0	
1	0	0	0	0	512	512	0	0	
2	0	0	0	0	511	509	0	0	
3	0	0	0	0	510	506	0	0	
4	0	0	0	0	512	512	0	0	
5	0	0	0	0	510	507	0	0	
6	0	0	0	0	512	509	0	0	
7	0	0	0	0	511	508	0	0	
8	0	0	0	0	510	507	0	0	
9	0	0	0	0	511	508	0	0	
10	0	0	0	0	509	508	0	0	
11	0	0	0	0	511	507	0	0	
12	0	0	0	0	514	511	0	0	
13	0	0	0	0	514	508	0	0	
14	0	0	0	0	512	507	0	0	
15	0	0	0	0	512	508	0	0	
0	0	0	0	0	509	508	0	0	
1	0	0	0	0	510	505	0	0	
2	0	0	0	0	510	509	0	0	
3	0	0	0	0	512	510	0	0	
4	0	0	0	0	511	508	0	0	
5	0	0	0	0	512	506	0	0	
6	0	0	0	0	512	506	0	0	
7	0	0	0	0	511	507	0	0	
8	0	0	0	0	511	509	0	0	
9	0	0	0	0	509	508	0	0	
10	0	0	0	0	511	507	0	0	
11	0	0	0	0	511	508	0	0	
12	0	0	0	0	511	508	0	0	
13	0	0	0	0	510	510	0	0	
14	0	0	0	0	512	508	0	0	
15	0	0	0	0	508	506	0	0	
0	0	0	0	0	510	508	0	0	
1	0	0	0	0	512	508	0	0	
2	0	0	0	0	511	505	0	0	
3	0	0	0	0	511	508	0	0	
4	0	0	0	0	510	509	0	0	
5	0	0	0	0	510	509	0	0	
6	0	0	0	0	510	509	0	0	
7	0	0	0	0	510	507	0	0	
8	0	0	0	0	511	509	0	0	
9	0	0	0	0	510	508	0	0	
10	0	0	0	0	510	508	0	0	
11	0	0	0	0	513	507	0	0	
12	0	0	0	0	512	509	0	0	
13	0	0	0	0	512	508	0	0	
14	0	0	0	0	510	509	0	0	
15	0	0	0	0	509	508	0	0	
0	0	0	0	0	511	509	0	0	
1	0	0	0	0	513	507	0	0	
2	0	0	0	0	514	510	0	0	
3	0	0	0	0	513	508	0	0	
4	0	0	0	0	513	510	0	0	
5	0	0	0	0	514	508	0	0	
6	0	0	0	0	513	507	0	0	
7	0	0	0	0	511	508	0	0	
8	0	0	0	0	511	508	0	0	
9	0	0	0	0	510	508	0	0	
10	0	0	0	0	511	507	0	0	
11	0	0	0	0	514	510	0	0	
12	0	0	0	0	510	510	0	0	
13	0	0	0	0	509	508	0	0	
14	0	0	0	0	508	508	0	0	
15	0	0	0	0	512	508	0	0	
0	0	0	0	0	512	507	0	0	
1	0	0	0	0	511	508	0	0	
2	0	0	0	0	508	508	0	0	
3	0	0	0	0	510	509	0	0	
4	0	0	0	0	510	509	0	0	
5	0	0	0	0	512	509	0	0	
6	0	0	0	0	510	508	0	0	
7	0	0	0	0	510	507	0	0	
8	0	0	0	0	512	506	0	0	
9	0	0	0	0	510	509	0	0	
10	0	0	0	0	509	508	0	0	
11	0	0	0	0	509	509	0	0	
12	0	0	0	0	510	507	0	0	
13	0	0	0	0	511	507	0	0	
14	0	0	0	0	511	507	0	0	
15	0	0	0	0	512	510	0	0	
0	0	0	0	0	511	506	0	0	
1	0	0	0	0	512	509	0	0	
2	0	0	0	0	510	509	0	0	
3	0	0	0	0	511	507	0	0	
4	0	0	0	0	514	510	0	0	
5	0	0	0	0	511	507	0	0	
6	0	0	0	0	511	508	0	0	
7	0	0	0	0	511	508	0	0	
8	0	0	0	0	514	508	0	0	
9	0	0	0	0	513	509	0	0	
10	0	0	0	0	510	508	0	0	
11	0	0	0	0	512	508	0	0	
12	0	0	0	0	511	508	0	0	
13	0	0	0	0	511	508	0	0	
14	0	0	0	0	509	510	0	0	
15	0	0	0	0	511	508	0	0	
0	0	0	0	0	511	506	0	0	
1	0	0	0	0	512	507	0	0	
2	0	0	0	0	510	510	0	0	
3	0	0	0	0	513	510	0	0	
4	0	0	0	0	510	508	0	0	
5	0	0	0	0	512	506	0	0	
6	0	0	0	0	511	508	0	0	
7	0	0	0	0	511	509	0	0	
8	0	0	0	0	514	510	0	0	
9	0	0	0	0	512	508	0	0	
10	0	0	0	0	512	510	0	0	
11	0	0	0	0	511	507	0	0	
12	0	0	0	0	511	509	0	0	
13	0	0	0	0	514	511	0	0	
14	0	0	0	0	510	506	0	0	
15	0	0	0	0	511	508	0	0	
0	0	0	0	0	511	509	0	0	
1	0	0	0	0	512	510	0	0	
2	0	0	0	0	511	508	0	0	
3	0	0	0	0	511	507	0	0	
4	0	0	0	0	508	507	0	0	
5	0	0	0	0	512	507	0	0	
6	0	0	0	0	512	508	0	0	
7	0	0	0	0	512	507	0	0	
8	0	0	0	0	511	508	0	0	
9	0	0	0	0	511	507	0	0	
10	0	0	0	0	510	507	0	0	
11	0	0	0	0	511	508	0	0	
12	0	0	0	0	512	508	0	0	
13	0	0	0	0	512	507	0	0	
14	0	0	0	0	510	506	0	0	
15	0	0	0	0	508	508	0	0	
0	0	0	0	0	511	508	0	0	
1	0	0	0	0	511	510	0	0	
2	0	0	0	0	512	508	0	0	
3	0	0	0	0	511	509	0	0	
4	0	0	0	0	512	507	0	0	
5	0	0	0	0	512	507	0	0	
6	0	0	0	0	512	508	0	0	
7	0	0	0	0	511	509	0	0	
8	0	0	0	0	511	507	0	0	
9	0	0	0	0	510	508	0	0	
10	0	0	0	0	512	508	0	0	
11	0	0	0	0	510	510	0	0	
12	0	0	0	0	511	511	0	0	
13	0	0	0	0	511	508	0	0	
14	0	0	0	0	511	508	0	0	
15	0	0	0	0	511	508	0	0	
0	0	0	0	0	510	508	0	0	
1	0	0	0	0	509	508	0	0	
2	0	0	0	0	510	508	0	0	
3	0	0	0	0	508	509	0	0	
4	0	0	0	0	511	508	0	0	
5	0	0	0	0	512	508	0	0	
6	0	0	0	0	513	508	0	0	
7	0	0	0	0	514	510	0	0	
8	0	0	0	0	511	509	0	0	
9	0	0	0	0	511	508	0	0	
10	0	0	0	0	513	510	0	0	
11	0	0	0	0	511	508	0	0	
12	0	0	0	0	511	509	0	0	
13	0	0	0	0	510	508	0	0	
14	0	0	0	0	509	510	0	0	
15	0	0	0	0	512	509	0	0	
0	0	0	0	0	510	509	0	0	
1	0	0	0	0	508	508	0	0	
2	0	0	0	0	509	506	0	0	
3	0	0	0	0	509	508	0	0	
4	0	0	0	0	511	509	0	0	
5	0	0	0	0	511	507	0	0	
6	0	0	0	0	511	507	0	0	
7	0	0	0	0	510	508	0	0	
8	0	0	0	0	511	510	0	0	
9	0	0	0	0	511	509	0	0	
10	0	0	0	0	511	508	0	0	
11	0	0	0	0	511	507	0	0	
12	0	0	0	0	508	507	0	0	
13	0	0	0	0	511	508	0	0	
14	0	0	0	0	511	508	0	0	
15	0	0	0	0	512	509	0	0	
0	0	0	0	0	513	509	0	0	
1	0	0	0	0	511	509	0	0	
2	0	0	0	0	511	508	0	0	
3	0	0	0	0	515	511	0	0	
4	0	0	0	0	510	507	0	0	
5	0	0	0	0	509	506	0	0	
6	0	0	0	0	510	508	0	0	
7	0	0	0	0	512	510	0	0	
8	0	0	0	0	510	507	0	0	
9	0	0	0	0	511	507	0	0	
10	0	0	0	0	512	509	0	0	
11	0	0	0	0	511	510	0	0	
12	0	0	0	0	513	509	0	0	
13	0	0	0	0	513	510	0	0	
14	0	0	0	0	511	507	0	0	
15	0	0	0	0	510	508	0	0	
0	0	0	0	0	511	506	0	0	
1	0	0	0	0	511	509	0	0	
2	0	0	0	0	511	510	0	0	
3	0	0	0	0	512	508	0	0	
4	0	0	0	0	511	508	0	0	
5	0	0	0	0	511	507	0	0	
6	0	0	0	0	511	509	0	0	
7	0	0	0	0	511	510	0	0	
8	0	0	0	0	510	510	0	0	
9	0	0	0	0	511	507	0	0	
10	0	0	0	0	512	507	0	0	
11	0	0	0	0	510	509	0	0	
12	0	0	0	0	510	510	0	0	
13	0	0	0	0	511	507	0	0	
14	0	0	0	0	508	505	0	0	
15	0	0	0	0	511	509	0	0	
0	0	0	0	0	512	507	0	0	
1	0	0	0	0	510	507	0	0	
2	0	0	0	0	510	508	0	0	
3	0	0	0	0	512	508	0	0	
4	0	0	0	0	508	509	0	0	
5	0	0	0	0	511	508	0	0	
6	0	0	0	0	511	509	0	0	
7	0	0	0	0	511	511	0	0	
8	0	0	0	0	511	508	0	0	
9	0	0	0	0	511	509	0	0	
10	0	0	0	0	513	509	0	0	
11	0	0	0	0	511	509	0	0	
12	0	0	0	0	511	508	0	0	
13	0	0	0	0	511	506	0	0	
14	0	0	0	0	509	507	0	0	
15	0	0	0	0	511	508	0	0	
0	0	0	0	0	511	508	0	0	
1	0	0	0	0	513	509	0	0	
2	0	0	0	0	509	507	0	0	
3	0	0	0	0	511	507	0	0	
4	0	0	0	0	510	510	0	0	
5	0	0	0	0	511	507	0	0	
6	0	0	0	0	513	508	0	0	
7	0	0	0	0	512	507	0	0	
8	0	0	0	0	512	509	0	0	
9	0	0	0	0	513	509	0	0	
10	0	0	0	0	510	510	0	0	
11	0	0	0	0	511	510	0	0	
12	0	0	0	0	508	509	0	0	
13	0	0	0	0	509	509	0	0	
14	0	0	0	0	513	510	0	0	
15	0	0	0	0	510	507	0	0	
0	0	0	0	0	510	507	0	0	
1	0	0	0	0	511	508	0	0	
2	0	0	0	0	510	508	0	0	
3	0	0	0	0	509	508	0	0	
4	0	0	0	0	511	509	0	0	
5	0	0	0	0	512	507	0	0	
6	0	0	0	0	511	506	0	0	
7	0	0	0	0	513	508	0	0	
8	0	0	0	0	510	508	0	0	
9	0	0	0	0	511	507	0	0	
10	0	0	0	0	513	509	0	0	
11	0	0	0	0	512	508	0	0	
12	0	0	0	0	512	507	0	0	
13	0	0	0	0	511	510	0	0	
14	0	0	0	0	510	505	0	0	
15	0	0	0	0	514	509	0	0	
0	0	0	0	0	510	507	0	0	
1	0	0	0	0	511	510	0	0	
2	0	0	0	0	511	510	0	0	
3	0	0	0	0	511	508	0	0	
4	0	0	0	0	511	508	0	0	
5	0	0	0	0	511	508	0	0	
6	0	0	0	0	511	508	0	0	
7	0	0	0	0	510	508	0	0	
8	0	0	0	0	510	508	0	0	
9	0	0	0	0	510	509	0	0	
10	0	0	0	0	510	508	0	0	
11	0	0	0	0	513	507	0	0	
12	0	0	0	0	511	510	0	0	
13	0	0	0	0	511	509	0	0	
14	0	0	0	0	511	508	0	0	
15	0	0	0	0	511	505	0	0	
0	0	0	0	0	510	508	0	0	
1	0	0	0	0	511	508	0	0	
2	0	0	0	0	511	509	0	0	
3	0	0	0	0	511	508	0	0	
4	0	0	0	0	509	508	0	0	
5	0	0	0	0	511	511	0	0	
6	0	0	0	0	510	509	0	0	
7	0	0	0	0	510	506	0	0	
8	0	0	0	0	511	507	0	0	
9	0	0	0	0	511	508	0	0	
10	0	0	0	0	511	509	0	0	
11	0	0	0	0	510	508	0	0	
12	0	0	0	0	511	507	0	0	
13	0	0	0	0	512	509	0	0	
14	0	0	0	0	512	506	0	0	
15	0	0	0	0	511	508	0	0	
0	0	0	0	0	511	508	0	0	
1	0	0	0	0	511	508	0	0	
2	0	0	0	0	511	509	0	0	
3	0	0	0	0	511	507	0	0	
4	0	0	0	0	510	508	0	0	
5	0	0	0	0	512	511	0	0	
6	0	0	0	0	511	508	0	0	
7	0	0	0	0	513	508	0	0	
8	0	0	0	0	511	508	0	0	
9	0	0	0	0	511	507	0	0	
10	0	0	0	0	511	508	0	0	
11	0	0	0	0	510	511	0	0	
12	0	0	0	0	510	507	0	0	
13	0	0	0	0	509	509	0	0	
14	0	0	0	0	511	508	0	0	
15	0	0	0	0	512	506	0	0	
0	0	0	0	0	512	511	0	0	
1	0	0	0	0	511	510	0	0	
2	0	0	0	0	509	507	0	0	
3	0	0	0	0	513	510	0	0	
4	0	0	0	0	511	509	0	0	
5	0	0	0	0	510	509	0	0	
6	0	0	0	0	511	509	0	0	
7	0	0	0	0	509	507	0	0	
8	0	0	0	0	511	508	0	0	
9	0	0	0	0	514	508	0	0	
10	0	0	0	0	512	508	0	0	
11	0	0	0	0	512	510	0	0	
12	0	0	0	0	511	507	0	0	
13	0	0	0	0	512	508	0	0	
14	0	0	0	0	511	508	0	0	
15	0	0	0	0	511	508	0	0	
0	0	0	0	0	508	508	0	0	
1	0	0	0	0	506	508	0	0	
2	0	0	0	0	508	506	0	0	
3	0	0	0	0	510	508	0	0	
4	0	0	0	0	512	510	0	0	
5	0	0	0	0	511	508	0	0	
6	0	0	0	0	510	508	0	0	
7	0	0	0	0	511	509	0	0	
8	0	0	0	0	510	508	0	0	
9	0	0	0	0	510	509	0	0	
10	0	0	0	0	512	508	0	0	
11	0	0	0	0	511	510	0	0	
12	0	0	0	0	512	507	0	0	
13	0	0	0	0	511	508	0	0	
14	0	0	0	0	511	511	0	0	
15	0	0	0	0	511	507	0	0	
0	0	0	0	0	510	509	0	0	
1	0	0	0	0	510	507	0	0	
2	0	0	0	0	506	508	0	0	
3	0	0	0	0	508	508	0	0	
4	0	0	0	0	512	508	0	0	
5	0	0	0	0	508	508	0	0	
6	0	0	0	0	510	508	0	0	
7	0	0	0	0	510	508	0	0	
8	0	0	0	0	511	508	0	0	
9	0	0	0	0	511	507	0	0	
10	0	0	0	0	512	509	0	0	
11	0	0	0	0	510	505	0	0	
12	0	0	0	0	513	507	0	0	
13	0	0	0	0	511	510	0	0	
14	0	0	0	0	512	506	0	0	
15	0	0	0	0	512	507	0	0	
0	0	0	0	0	511	509	0	0	
1	0	0	0	0	512	508	0	0	
2	0	0	0	0	513	508	0	0	
3	0	0	0	0	514	510	0	0	
4	0	0	0	0	508	508	0	0	
5	0	0	0	0	510	508	0	0	
6	0	0	0	0	513	509	0	0	
7	0	0	0	0	513	508	0	0	
8	0	0	0	0	512	508	0	0	
9	0	0	0	0	509	509	0	0	
10	0	0	0	0	509	506	0	0	
11	0	0	0	0	509	508	0	0	
12	0	0	0	0	513	509	0	0	
13	0	0	0	0	510	507	0	0	
14	0	0	0	0	510	508	0	0	
15	0	0	0	0	511	509	0	0	
0	0	0	0	0	512	507	0	0	
1	0	0	0	0	512	509	0	0	
2	0	0	0	0	511	507	0	0	
3	0	0	0	0	512	508	0	0	
4	0	0	0	0	511	510	0	0	
5	0	0	0	0	513	511	0	0	
6	0	0	0	0	509	508	0	0	
7	0	0	0	0	511	508	0	0	
8	0	0	0	0	511	508	0	0	
9	0	0	0	0	511	508	0	0	
10	0	0	0	0	512	509	0	0	
11	0	0	0	0	512	507	0	0	
12	0	0	0	0	511	508	0	0	
13	0	0	0	0	509	509	0	0	
14	0	0	0	0	511	507	0	0	
15	0	0	0	0	513	508	0	0	
0	0	0	0	0	511	508	0	0	
1	0	0	0	0	510	507	0	0	
2	0	0	0	0	511	507	0	0	
3	0	0	0	0	511	508	0	0	
4	0	0	0	0	511	508	0	0	
5	0	0	0	0	511	507	0	0	
6	0	0	0	0	512	509	0	0	
7	0	0	0	0	510	508	0	0	
8	0	0	0	0	513	508	0	0	
9	0	0	0	0	512	509	0	0	
10	0	0	0	0	509	508	0	0	
11	0	0	0	0	510	509	0	0	
12	0	0	0	0	510	506	0	0	
13	0	0	0	0	511	509	0	0	
14	0	0	0	0	510	508	0	0	
15	0	0	0	0	510	507	0	0	
0	0	0	0	0	511	509	0	0	
1	0	0	0	0	509	507	0	0	
2	0	0	0	0	513	509	0	0	
3	0	0	0	0	511	508	0	0	
4	0	0	0	0	510	509	0	0	
5	0	0	0	0	510	510	0	0	
6	0	0	0	0	509	507	0	0	
7	0	0	0	0	512	509	0	0	
8	0	0	0	0	510	509	0	0	
9	0	0	0	0	510	509	0	0	
10	0	0	0	0	511	508	0	0	
11	0	0	0	0	511	508	0	0	
12	0	0	0	0	510	508	0	0	
13	0	0	0	0	512	508	0	0	
14	0	0	0	0	512	510	0	0	
15	0	0	0	0	510	511	0	0	
0	0	0	0	0	511	508	0	0	
1	0	0	0	0	513	509	0	0	
2	0	0	0	0	511	507	0	0	
3	0	0	0	0	511	508	0	0	
4	0	0	0	0	511	508	0	0	
5	0	0	0	0	510	507	0	0	
6	0	0	0	0	509	508	0	0	
7	0	0	0	0	509	508	0	0	
8	0	0	0	0	514	510	0	0	
9	0	0	0	0	511	507	0	0	
10	0	0	0	0	509	508	0	0	
11	0	0	0	0	508	509	0	0	
12	0	0	0	0	511	507	0	0	
13	0	0	0	0	515	509	0	0	
14	0	0	0	0	512	508	0	0	
15	0	0	0	0	512	507	0	0	
0	0	0	0	0	512	509	0	0	
1	0	0	0	0	511	509	0	0	
2	0	0	0	0	508	509	0	0	
3	0	0	0	0	507	510	0	0	
4	0	0	0	0	510	508	0	0	
5	0	0	0	0	510	509	0	0	
6	0	0	0	0	510	508	0	0	
7	0	0	0	0	512	510	0	0	
8	0	0	0	0	511	510	0	0	
9	0	0	0	0	511	508	0	0	
10	0	0	0	0	511	508	0	0	
11	0	0	0	0	511	508	0	0	
12	0	0	0	0	512	508	0	0	
13	0	0	0	0	512	509	0	0	
14	0	0	0	0	511	508	0	0	
15	0	0	0	0	511	505	0	0	
0	0	0	0	0	513	510	0	0	
1	0	0	0	0	510	507	0	0	
2	0	0	0	0	511	508	0	0	
3	0	0	0	0	513	508	0	0	
4	0	0	0	0	511	509	0	0	
5	0	0	0	0	511	507	0	0	
6	0	0	0	0	514	510	0	0	
7	0	0	0	0	511	510	0	0	
8	0	0	0	0	510	509	0	0	
9	0	0	0	0	511	508	0	0	
10	0	0	0	0	511	506	0	0	
11	0	0	0	0	512	508	0	0	
12	0	0	0	0	512	509	0	0	
13	0	0	0	0	511	508	0	0	
14	0	0	0	0	509	509	0	0	
15	0	0	0	0	512	509	0	0	
0	0	0	0	0	511	510	0	0	
1	0	0	0	0	510	509	0	0	
2	0	0	0	0	510	508	0	0	
3	0	0	0	0	512	506	0	0	
4	0	0	0	0	512	508	0	0	
5	0	0	0	0	513	508	0	0	
6	0	0	0	0	512	507	0	0	
7	0	0	0	0	511	506	0	0	
8	0	0	0	0	512	508	0	0	
9	0	0	0	0	510	508	0	0	
10	0	0	0	0	509	508	0	0	
11	0	0	0	0	511	507	0	0	
12	0	0	0	0	510	510	0	0	
13	0	0	0	0	510	506	0	0	
14	0	0	0	0	511	507	0	0	
15	0	0	0	0	512	511	0	0	
0	0	0	0	0	512	508	0	0	
1	0	0	0	0	507	508	0	0	
2	0	0	0	0	512	508	0	0	
3	0	0	0	0	512	509	0	0	
4	0	0	0	0	514	508	0	0	
5	0	0	0	0	510	509	0	0	
6	0	0	0	0	510	508	0	0	
7	0	0	0	0	509	510	0	0	
8	0	0	0	0	512	509	0	0	
9	0	0	0	0	512	508	0	0	
10	0	0	0	0	513	508	0	0	
11	0	0	0	0	512	507	0	0	
12	0	0	0	0	512	507	0	0	
13	0	0	0	0	512	508	0	0	
14	0	0	0	0	511	508	0	0	
15	0	0	0	0	513	508	0	0	
0	0	0	0	0	510	508	0	0	
1	0	0	0	0	508	508	0	0	
2	0	0	0	0	509	509	0	0	
3	0	0	0	0	513	508	0	0	
4	0	0	0	0	511	507	0	0	
5	0	0	0	0	509	507	0	0	
6	0	0	0	0	510	508	0	0	
7	0	0	0	0	510	508	0	0	
8	0	0	0	0	514	511	0	0	
9	0	0	0	0	510	508	0	0	
10	0	0	0	0	511	509	0	0	
11	0	0	0	0	511	506	0	0	
12	0	0	0	0	510	507	0	0	
13	0	0	0	0	514	510	0	0	
14	0	0	0	0	512	508	0	0	
15	0	0	0	0	510	510	0	0	
0	0	0	0	0	514	509	0	0	
1	0	0	0	0	514	508	0	0	
2	0	0	0	0	511	510	0	0	
3	0	0	0	0	509	507	0	0	
4	0	0	0	0	508	508	0	0	
5	0	0	0	0	511	508	0	0	
6	0	0	0	0	511	507	0	0	
7	0	0	0	0	510	508	0	0	
8	0	0	0	0	510	510	0	0	
9	0	0	0	0	512	506	0	0	
10	0	0	0	0	512	507	0	0	
11	0	0	0	0	512	509	0	0	
12	0	0	0	0	511	510	0	0	
13	0	0	0	0	512	507	0	0	
14	0	0	0	0	511	507	0	0	
15	0	0	0	0	513	507	0	0	
0	0	0	0	0	514	509	0	0	
1	0	0	0	0	514	508	0	0	
2	0	0	0	0	512	507	0	0	
3	0	0	0	0	509	507	0	0	
4	0	0	0	0	511	510	0	0	
5	0	0	0	0	512	507	0	0	
6	0	0	0	0	512	510	0	0	
7	0	0	0	0	510	508	0	0	
8	0	0	0	0	508	507	0	0	
9	0	0	0	0	508	508	0	0	
10	0	0	0	0	509	508	0	0	
11	0	0	0	0	510	508	0	0	
12	0	0	0	0	511	508	0	0	
13	0	0	0	0	508	507	0	0	
14	0	0	0	0	509	507	0	0	
15	0	0	0	0	511	507	0	0	
0	0	0	0	0	512	508	0	0	
1	0	0	0	0	513	512	0	0	
2	0	0	0	0	512	508	0	0	
3	0	0	0	0	512	506	0	0	
4	0	0	0	0	510	508	0	0	
5	0	0	0	0	513	511	0	0	
6	0	0	0	0	509	506	0	0	
7	0	0	0	0	513	508	0	0	
8	0	0	0	0	514	507	0	0	
9	0	0	0	0	513	508	0	0	
10	0	0	0	0	515	510	0	0	
11	0	0	0	0	510	508	0	0	
12	0	0	0	0	511	508	0	0	
13	0	0	0	0	510	508	0	0	
14	0	0	0	0	511	509	0	0	
15	0	0	0	0	513	510	0	0	
0	0	0	0	0	510	507	0	0	
1	0	0	0	0	509	508	0	0	
2	0	0	0	0	511	511	0	0	
3	0	0	0	0	512	510	0	0	
4	0	0	0	0	511	509	0	0	
5	0	0	0	0	513	509	0	0	
6	0	0	0	0	512	509	0	0	
7	0	0	0	0	514	509	0	0	
8	0	0	0	0	511	508	0	0	
9	0	0	0	0	511	507	0	0	
10	0	0	0	0	512	508	0	0	
11	0	0	0	0	509	507	0	0	
12	0	0	0	0	512	509	0	0	
13	0	0	0	0	511	508	0	0	
14	0	0	0	0	511	510	0	0	
15	0	0	0	0	512	509	0	0	
0	0	0	0	0	509	508	0	0	
1	0	0	0	0	508	508	0	0	
2	0	0	0	0	511	509	0	0	
3	0	0	0	0	511	507	0	0	
4	0	0	0	0	511	509	0	0	
5	0	0	0	0	508	507	0	0	
6	0	0	0	0	510	508	0	0	
7	0	0	0	0	510	507	0	0	
8	0	0	0	0	513	508	0	0	
9	0	0	0	0	512	508	0	0	
10	0	0	0	0	509	506	0	0	
11	0	0	0	0	511	509	0	0	
12	0	0	0	0	511	509	0	0	
13	0	0	0	0	512	509	0	0	
14	0	0	0	0	511	510	0	0	
15	0	0	0	0	511	506	0	0	
0	0	0	0	0	514	506	0	0	
1	0	0	0	0	514	508	0	0	
2	0	0	0	0	511	505	0	0	
3	0	0	0	0	512	510	0	0	
4	0	0	0	0	510	508	0	0	
5	0	0	0	0	510	508	0	0	
6	0	0	0	0	510	512	0	0	
7	0	0	0	0	511	506	0	0	
8	0	0	0	0	512	509	0	0	
9	0	0	0	0	512	508	0	0	
10	0	0	0	0	510	508	0	0	
11	0	0	0	0	508	508	0	0	
12	0	0	0	0	509	508	0	0	
13	0	0	0	0	509	509	0	0	
14	0	0	0	0	509	507	0	0	
15	0	0	0	0	510	508	0	0	
0	0	0	0	0	510	508	0	0	
1	0	0	0	0	511	508	0	0	
2	0	0	0	0	512	510	0	0	
3	0	0	0	0	509	508	0	0	
4	0	0	0	0	510	507	0	0	
5	0	0	0	0	511	510	0	0	
6	0	0	0	0	511	507	0	0	
7	0	0	0	0	513	507	0	0	
8	0	0	0	0	511	505	0	0	
9	0	0	0	0	511	510	0	0	
10	0	0	0	0	511	510	0	0	
11	0	0	0	0	512	507	0	0	
12	0	0	0	0	510	509	0	0	
13	0	0	0	0	510	510	0	0	
14	0	0	0	0	508	508	0	0	
15	0	0	0	0	510	507	0	0	
0	0	0	0	0	512	508	0	0	
1	0	0	0	0	512	508	0	0	
2	0	0	0	0	511	509	0	0	
3	0	0	0	0	515	507	0	0	
4	0	0	0	0	514	509	0	0	
5	0	0	0	0	512	508	0	0	
6	0	0	0	0	514	508	0	0	
7	0	0	0	0	512	508	0	0	
8	0	0	0	0	510	508	0	0	
9	0	0	0	0	513	511	0	0	
10	0	0	0	0	509	508	0	0	
11	0	0	0	0	511	508	0	0	
12	0	0	0	0	508	508	0	0	
13	0	0	0	0	509	508	0	0	
14	0	0	0	0	510	508	0	0	
15	0	0	0	0	511	507	0	0	
0	0	0	0	0	511	508	0	0	
1	0	0	0	0	508	508	0	0	
2	0	0	0	0	511	507	0	0	
3	0	0	0	0	511	510	0	0	
4	0	0	0	0	511	507	0	0	
5	0	0	0	0	514	508	0	0	
6	0	0	0	0	510	506	0	0	
7	0	0	0	0	511	509	0	0	
8	0	0	0	0	511	510	0	0	
9	0	0	0	0	511	508	0	0	
10	0	0	0	0	513	507	0	0	
11	0	0	0	0	511	508	0	0	
12	0	0	0	0	512	510	0	0	
13	0	0	0	0	514	508	0	0	
14	0	0	0	0	514	507	0	0	
15	0	0	0	0	512	510	0	0	
0	0	0	0	0	509	505	0	0	
1	0	0	0	0	511	511	0	0	
2	0	0	0	0	509	509	0	0	
3	0	0	0	0	511	508	0	0	
4	0	0	0	0	510	508	0	0	
5	0	0	0	0	511	507	0	0	
6	0	0	0	0	511	507	0	0	
7	0	0	0	0	509	509	0	0	
8	0	0	0	0	514	509	0	0	
9	0	0	0	0	513	508	0	0	
10	0	0	0	0	511	508	0	0	
11	0	0	0	0	511	507	0	0	
12	0	0	0	0	512	508	0	0	
13	0	0	0	0	508	508	0	0	
14	0	0	0	0	511	508	0	0	
15	0	0	0	0	510	505	0	0	
0	0	0	0	0	511	508	0	0	
1	0	0	0	0	510	509	0	0	
2	0	0	0	0	510	508	0	0	
3	0	0	0	0	511	509	0	0	
4	0	0	0	0	511	508	0	0	
5	0	0	0	0	510	507	0	0	
6	0	0	0	0	511	509	0	0	
7	0	0	0	0	510	509	0	0	
8	0	0	0	0	512	508	0	0	
9	0	0	0	0	509	508	0	0	
10	0	0	0	0	511	510	0	0	
11	0	0	0	0	512	508	0	0	
12	0	0	0	0	512	509	0	0	
13	0	0	0	0	510	508	0	0	
14	0	0	0	0	511	508	0	0	
15	0	0	0	0	510	508	0	0	
0	0	0	0	0	511	507	0	0	
1	0	0	0	0	513	508	0	0	
2	0	0	0	0	512	507	0	0	
3	0	0	0	0	510	508	0	0	
4	0	0	0	0	511	507	0	0	
5	0	0	0	0	513	509	0	0	
6	0	0	0	0	512	508	0	0	
7	0	0	0	0	512	507	0	0	
8	0	0	0	0	511	508	0	0	
9	0	0	0	0	507	507	0	0	
10	0	0	0	0	511	508	0	0	
11	0	0	0	0	512	510	0	0	
12	0	0	0	0	510	510	0	0	
13	0	0	0	0	509	506	0	0	
14	0	0	0	0	511	508	0	0	
15	0	0	0	0	511	508	0	0	
0	0	0	0	0	510	510	0	0	
1	0	0	0	0	510	508	0	0	
2	0	0	0	0	508	507	0	0	
3	0	0	0	0	512	508	0	0	
4	0	0	0	0	513	509	0	0	
5	0	0	0	0	511	509	0	0	
6	0	0	0	0	511	508	0	0	
7	0	0	0	0	511	507	0	0	
8	0	0	0	0	508	507	0	0	
9	0	0	0	0	512	507	0	0	
10	0	0	0	0	513	508	0	0	
11	0	0	0	0	511	507	0	0	
12	0	0	0	0	510	508	0	0	
13	0	0	0	0	510	507	0	0	
14	0	0	0	0	512	510	0	0	
15	0	0	0	0	512	510	0	0	
0	0	0	0	0	511	509	0	0	
1	0	0	0	0	510	508	0	0	
2	0	0	0	0	511	507	0	0	
3	0	0	0	0	511	510	0	0	
4	0	0	0	0	511	508	0	0	
5	0	0	0	0	511	508	0	0	
6	0	0	0	0	511	507	0	0	
7	0	0	0	0	511	508	0	0	
8	0	0	0	0	512	508	0	0	
9	0	0	0	0	514	511	0	0	
10	0	0	0	0	512	507	0	0	
11	0	0	0	0	511	508	0	0	
12	0	0	0	0	512	507	0	0	
13	0	0	0	0	509	508	0	0	
14	0	0	0	0	513	513	0	0	
15	0	0	0	0	511	508	0	0	
0	0	0	0	0	510	508	0	0	
1	0	0	0	0	509	509	0	0	
2	0	0	0	0	511	509	0	0	
3	0	0	0	0	511	511	0	0	
4	0	0	0	0	512	508	0	0	
5	0	0	0	0	509	508	0	0	
6	0	0	0	0	513	509	0	0	
7	0	0	0	0	512	509	0	0	
8	0	0	0	0	510	507	0	0	
9	0	0	0	0	511	510	0	0	
10	0	0	0	0	511	507	0	0	
11	0	0	0	0	512	510	0	0	
12	0	0	0	0	511	508	0	0	
13	0	0	0	0	512	510	0	0	
14	0	0	0	0	514	507	0	0	
15	0	0	0	0	512	508	0	0	
0	0	0	0	0	512	508	0	0	
1	0	0	0	0	510	510	0	0	
2	0	0	0	0	508	509	0	0	
3	0	0	0	0	511	506	0	0	
4	0	0	0	0	509	505	0	0	
5	0	0	0	0	511	505	0	0	
6	0	0	0	0	511	509	0	0	
7	0	0	0	0	511	508	0	0	
8	0	0	0	0	511	508	0	0	
9	0	0	0	0	507	510	0	0	
10	0	0	0	0	512	509	0	0	
11	0	0	0	0	512	510	0	0	
12	0	0	0	0	511	506	0	0	
13	0	0	0	0	510	508	0	0	
14	0	0	0	0	511	507	0	0	
15	0	0	0	0	512	507	0	0	
0	0	0	0	0	511	508	0	0	
1	0	0	0	0	511	508	0	0	
2	0	0	0	0	511	509	0	0	
3	0	0	0	0	510	509	0	0	
4	0	0	0	0	513	510	0	0	
5	0	0	0	0	510	507	0	0	
6	0	0	0	0	511	508	0	0	
7	0	0	0	0	511	508	0	0	
8	0	0	0	0	512	508	0	0	
9	0	0	0	0	511	509	0	0	
10	0	0	0	0	511	507	0	0	
11	0	0	0	0	510	510	0	0	
12	0	0	0	0	512	508	0	0	
13	0	0	0	0	511	507	0	0	
14	0	0	0	0	510	507	0	0	
15	0	0	0	0	512	508	0	0	
0	0	0	0	0	511	509	0	0	
1	0	0	0	0	511	508	0	0	
2	0	0	0	0	511	508	0	0	
3	0	0	0	0	512	509	0	0	
4	0	0	0	0	512	508	0	0	
5	0	0	0	0	512	509	0	0	
6	0	0	0	0	511	510	0	0	
7	0	0	0	0	511	506	0	0	
8	0	0	0	0	511	510	0	0	
9	0	0	0	0	511	507	0	0	
10	0	0	0	0	511	508	0	0	
11	0	0	0	0	512	509	0	0	
12	0	0	0	0	514	509	0	0	
13	0	0	0	0	511	506	0	0	
14	0	0	0	0	511	508	0	0	
15	0	0	0	0	511	507	0	0	
0	0	0	0	0	510	508	0	0	
1	0	0	0	0	508	506	0	0	
2	0	0	0	0	510	508	0	0	
3	0	0	0	0	512	509	0	0	
4	0	0	0	0	512	510	0	0	
5	0	0	0	0	511	509	0	0	
6	0	0	0	0	509	510	0	0	
7	0	0	0	0	511	509	0	0	
8	0	0	0	0	513	509	0	0	
9	0	0	0	0	511	508	0	0	
10	0	0	0	0	510	508	0	0	
11	0	0	0	0	510	506	0	0	
12	0	0	0	0	512	507	0	0	
13	0	0	0	0	509	507	0	0	
14	0	0	0	0	511	508	0	0	
15	0	0	0	0	511	510	0	0	
0	0	0	0	0	509	505	0	0	
1	0	0	0	0	511	509	0	0	
2	0	0	0	0	511	510	0	0	
3	0	0	0	0	511	507	0	0	
4	0	0	0	0	511	508	0	0	
5	0	0	0	0	511	509	0	0	
6	0	0	0	0	511	508	0	0	
7	0	0	0	0	510	507	0	0	
8	0	0	0	0	512	507	0	0	
9	0	0	0	0	511	508	0	0	
10	0	0	0	0	509	508	0	0	
11	0	0	0	0	511	505	0	0	
12	0	0	0	0	512	508	0	0	
13	0	0	0	0	511	509	0	0	
14	0	0	0	0	512	508	0	0	
15	0	0	0	0	510	510	0	0	
0	0	0	0	0	510	508	0	0	
1	0	0	0	0	511	508	0	0	
2	0	0	0	0	510	508	0	0	
3	0	0	0	0	513	508	0	0	
4	0	0	0	0	512	506	0	0	
5	0	0	0	0	511	508	0	0	
6	0	0	0	0	510	511	0	0	
7	0	0	0	0	508	508	0	0	
8	0	0	0	0	510	510	0	0	
9	0	0	0	0	508	507	0	0	
10	0	0	0	0	511	508	0	0	
11	0	0	0	0	510	508	0	0	
12	0	0	0	0	511	512	0	0	
13	0	0	0	0	512	508	0	0	
14	0	0	0	0	514	508	0	0	
15	0	0	0	0	511	506	0	0	
0	0	0	0	0	511	509	0	0	
1	0	0	0	0	511	508	0	0	
2	0	0	0	0	512	510	0	0	
3	0	0	0	0	510	505	0	0	
4	0	0	0	0	513	508	0	0	
5	0	0	0	0	512	507	0	0	
6	0	0	0	0	512	506	0	0	
7	0	0	0	0	512	508	0	0	
8	0	0	0	0	511	508	0	0	
9	0	0	0	0	511	508	0	0	
10	0	0	0	0	508	509	0	0	
11	0	0	0	0	511	507	0	0	
12	0	0	0	0	510	509	0	0	
13	0	0	0	0	509	506	0	0	
14	0	0	0	0	509	508	0	0	
15	0	0	0	0	512	508	0	0	
0	0	0	0	0	512	510	0	0	
1	0	0	0	0	510	508	0	0	
2	0	0	0	0	510	508	0	0	
3	0	0	0	0	510	508	0	0	
4	0	0	0	0	511	508	0	0	
5	0	0	0	0	512	508	0	0	
6	0	0	0	0	512	510	0	0	
7	0	0	0	0	511	509	0	0	
8	0	0	0	0	514	508	0	0	
9	0	0	0	0	514	507	0	0	
10	0	0	0	0	513	507	0	0	
11	0	0	0	0	511	508	0	0	
12	0	0	0	0	509	508	0	0	
13	0	0	0	0	513	510	0	0	
14	0	0	0	0	512	510	0	0	
15	0	0	0	0	511	508	0	0	
0	0	0	0	0	511	508	0	0	
1	0	0	0	0	509	507	0	0	
2	0	0	0	0	510	508	0	0	
3	0	0	0	0	511	508	0	0	
4	0	0	0	0	511	508	0	0	
5	0	0	0	0	510	508	0	0	
6	0	0	0	0	511	508	0	0	
7	0	0	0	0	512	509	0	0	
8	0	0	0	0	512	508	0	0	
9	0	0	0	0	511	507	0	0	
10	0	0	0	0	513	507	0	0	
11	0	0	0	0	511	508	0	0	
12	0	0	0	0	509	508	0	0	
13	0	0	0	0	514	508	0	0	
14	0	0	0	0	513	509	0	0	
15	0	0	0	0	511	507	0	0	
0	0	0	0	0	512	508	0	0	
1	0	0	0	0	511	510	0	0	
2	0	0	0	0	510	508	0	0	
3	0	0	0	0	513	511	0	0	
4	0	0	0	0	510	508	0	0	
5	0	0	0	0	508	507	0	0	
6	0	0	0	0	510	509	0	0	
7	0	0	0	0	509	508	0	0	
8	0	0	0	0	510	509	0	0	
9	0	0	0	0	511	507	0	0	
10	0	0	0	0	512	509	0	0	
11	0	0	0	0	513	505	0	0	
12	0	0	0	0	514	508	0	0	
13	0	0	0	0	511	510	0	0	
14	0	0	0	0	509	508	0	0	
15	0	0	0	0	511	509	0	0	
0	0	0	0	0	513	507	0	0	
1	0	0	0	0	511	508	0	0	
2	0	0	0	0	512	508	0	0	
3	0	0	0	0	511	509	0	0	
4	0	0	0	0	509	507	0	0	
5	0	0	0	0	513	510	0	0	
6	0	0	0	0	511	510	0	0	
7	0	0	0	0	512	511	0	0	
8	0	0	0	0	509	507	0	0	
9	0	0	0	0	510	507	0	0	
10	0	0	0	0	509	508	0	0	
11	0	0	0	0	509	507	0	0	
12	0	0	0	0	514	510	0	0	
13	0	0	0	0	509	508	0	0	
14	0	0	0	0	510	508	0	0	
15	0	0	0	0	512	508	0	0	
0	0	0	0	0	512	508	0	0	
1	0	0	0	0	511	508	0	0	
2	0	0	0	0	511	508	0	0	
3	0	0	0	0	510	507	0	0	
4	0	0	0	0	512	507	0	0	
5	0	0	0	0	512	510	0	0	
6	0	0	0	0	513	510	0	0	
7	0	0	0	0	511	508	0	0	
8	0	0	0	0	508	506	0	0	
9	0	0	0	0	510	507	0	0	
10	0	0	0	0	513	506	0	0	
11	0	0	0	0	512	508	0	0	
12	0	0	0	0	511	509	0	0	
13	0	0	0	0	509	508	0	0	
14	0	0	0	0	510	508	0	0	
15	0	0	0	0	509	509	0	0	
0	0	0	0	0	512	509	0	0	
1	0	0	0	0	511	506	0	0	
2	0	0	0	0	511	508	0	0	
3	0	0	0	0	511	508	0	0	
4	0	0	0	0	511	509	0	0	
5	0	0	0	0	511	508	0	0	
6	0	0	0	0	512	507	0	0	
7	0	0	0	0	510	508	0	0	
8	0	0	0	0	512	509	0	0	
9	0	0	0	0	512	511	0	0	
10	0	0	0	0	512	507	0	0	
11	0	0	0	0	511	509	0	0	
12	0	0	0	0	510	509	0	0	
13	0	0	0	0	509	508	0	0	
14	0	0	0	0	511	508	0	0	
15	0	0	0	0	509	508	0	0	
0	0	0	0	0	510	506	0	0	
1	0	0	0	0	511	507	0	0	
2	0	0	0	0	511	507	0	0	
3	0	0	0	0	512	508	0	0	
4	0	0	0	0	513	509	0	0	
5	0	0	0	0	511	508	0	0	
6	0	0	0	0	509	507	0	0	
7	0	0	0	0	508	508	0	0	
8	0	0	0	0	509	508	0	0	
9	0	0	0	0	513	508	0	0	
10	0	0	0	0	512	509	0	0	
11	0	0	0	0	510	508	0	0	
12	0	0	0	0	513	507	0	0	
13	0	0	0	0	513	509	0	0	
14	0	0	0	0	511	508	0	0	
15	0	0	0	0	510	509	0	0	
0	0	0	0	0	510	509	0	0	
1	0	0	0	0	512	509	0	0	
2	0	0	0	0	513	508	0	0	
3	0	0	0	0	510	507	0	0	
4	0	0	0	0	511	510	0	0	
5	0	0	0	0	509	507	0	0	
6	0	0	0	0	510	508	0	0	
7	0	0	0	0	511	508	0	0	
8	0	0	0	0	511	510	0	0	
9	0	0	0	0	514	508	0	0	
10	0	0	0	0	510	509	0	0	
11	0	0	0	0	510	508	0	0	
12	0	0	0	0	511	507	0	0	
13	0	0	0	0	512	508	0	0	
14	0	0	0	0	511	507	0	0	
15	0	0	0	0	511	507	0	0	
0	0	0	0	0	514	508	0	0	
1	0	0	0	0	513	509	0	0	
2	0	0	0	0	511	507	0	0	
3	0	0	0	0	513	509	0	0	
4	0	0	0	0	511	507	0	0	
5	0	0	0	0	510	510	0	0	
6	0	0	0	0	512	508	0	0	
7	0	0	0	0	510	505	0	0	
8	0	0	0	0	512	510	0	0	
9	0	0	0	0	511	506	0	0	
10	0	0	0	0	510	511	0	0	
11	0	0	0	0	511	509	0	0	
12	0	0	0	0	511	508	0	0	
13	0	0	0	0	509	508	0	0	
14	0	0	0	0	510	509	0	0	
15	0	0	0	0	510	508	0	0	
0	0	0	0	0	510	508	0	0	
1	0	0	0	0	512	510	0	0	
2	0	0	0	0	510	507	0	0	
3	0	0	0	0	511	508	0	0	
4	0	0	0	0	512	510	0	0	
5	0	0	0	0	511	510	0	0	
6	0	0	0	0	512	508	0	0	
7	0	0	0	0	512	507	0	0	
8	0	0	0	0	510	506	0	0	
9	0	0	0	0	509	507	0	0	
10	0	0	0	0	511	510	0	0	
11	0	0	0	0	512	508	0	0	
12	0	0	0	0	510	510	0	0	
13	0	0	0	0	509	510	0	0	
14	0	0	0	0	510	507	0	0	
15	0	0	0	0	511	508	0	0	
0	0	0	0	0	511	508	0	0	
1	0	0	0	0	509	506	0	0	
2	0	0	0	0	511	506	0	0	
3	0	0	0	0	511	509	0	0	
4	0	0	0	0	511	508	0	0	
5	0	0	0	0	511	506	0	0	
6	0	0	0	0	511	508	0	0	
7	0	0	0	0	512	507	0	0	
8	0	0	0	0	514	509	0	0	
9	0	0	0	0	514	509	0	0	
10	0	0	0	0	511	507	0	0	
11	0	0	0	0	515	509	0	0	
12	0	0	0	0	511	507	0	0	
13	0	0	0	0	511	509	0	0	
14	0	0	0	0	513	509	0	0	
15	0	0	0	0	508	509	0	0	
0	0	0	0	0	511	509	0	0	
1	0	0	0	0	505	506	0	0	
2	0	0	0	0	509	509	0	0	
3	0	0	0	0	511	510	0	0	
4	0	0	0	0	511	506	0	0	
5	0	0	0	0	512	513	0	0	
6	0	0	0	0	513	511	0	0	
7	0	0	0	0	512	508	0	0	
8	0	0	0	0	513	508	0	0	
9	0	0	0	0	511	506	0	0	
10	0	0	0	0	513	508	0	0	
11	0	0	0	0	511	508	0	0	
12	0	0	0	0	510	507	0	0	
13	0	0	0	0	511	508	0	0	
14	0	0	0	0	511	508	0	0	
15	0	0	0	0	512	508	0	0	
0	0	0	0	0	512	507	0	0	
1	0	0	0	0	512	506	0	0	
2	0	0	0	0	514	509	0	0	
3	0	0	0	0	514	508	0	0	
4	0	0	0	0	510	508	0	0	
5	0	0	0	0	508	508	0	0	
6	0	0	0	0	508	506	0	0	
7	0	0	0	0	510	508	0	0	
8	0	0	0	0	511	508	0	0	
9	0	0	0	0	512	509	0	0	
10	0	0	0	0	509	507	0	0	
11	0	0	0	0	512	508	0	0	
12	0	0	0	0	511	511	0	0	
13	0	0	0	0	511	507	0	0	
14	0	0	0	0	512	508	0	0	
15	0	0	0	0	509	507	0	0	
0	0	0	0	0	512	509	0	0	
1	0	0	0	0	510	507	0	0	
2	0	0	0	0	509	508	0	0	
3	0	0	0	0	511	511	0	0	
4	0	0	0	0	511	511	0	0	
5	0	0	0	0	513	509	0	0	
6	0	0	0	0	510	508	0	0	
7	0	0	0	0	509	507	0	0	
8	0	0	0	0	511	508	0	0	
9	0	0	0	0	511	508	0	0	
10	0	0	0	0	511	508	0	0	
11	0	0	0	0	511	507	0	0	
12	0	0	0	0	511	509	0	0	
13	0	0	0	0	509	508	0	0	
14	0	0	0	0	510	508	0	0	
15	0	0	0	0	512	506	0	0	
0	0	0	0	0	510	508	0	0	
1	0	0	0	0	511	508	0	0	
2	0	0	0	0	510	506	0	0	
3	0	0	0	0	510	508	0	0	
4	0	0	0	0	512	507	0	0	
5	0	0	0	0	514	508	0	0	
6	0	0	0	0	512	510	0	0	
7	0	0	0	0	512	508	0	0	
8	0	0	0	0	510	506	0	0	
9	0	0	0	0	514	509	0	0	
10	0	0	0	0	511	507	0	0	
11	0	0	0	0	511	507	0	0	
12	0	0	0	0	511	509	0	0	
13	0	0	0	0	510	509	0	0	
14	0	0	0	0	510	510	0	0	
15	0	0	0	0	512	510	0	0	
0	0	0	0	0	512	507	0	0	
1	0	0	0	0	512	506	0	0	
2	0	0	0	0	510	505	0	0	
3	0	0	0	0	512	511	0	0	
4	0	0	0	0	511	509	0	0	
5	0	0	0	0	510	509	0	0	
6	0	0	0	0	510	507	0	0	
7	0	0	0	0	511	509	0	0	
8	0	0	0	0	508	508	0	0	
9	0	0	0	0	512	508	0	0	
10	0	0	0	0	511	510	0	0	
11	0	0	0	0	511	507	0	0	
12	0	0	0	0	509	510	0	0	
13	0	0	0	0	511	508	0	0	
14	0	0	0	0	511	507	0	0	
15	0	0	0	0	512	507	0	0	
0	0	0	0	0	511	508	0	0	
1	0	0	0	0	508	508	0	0	
2	0	0	0	0	511	508	0	0	
3	0	0	0	0	512	509	0	0	
4	0	0	0	0	510	508	0	0	
5	0	0	0	0	513	508	0	0	
6	0	0	0	0	512	508	0	0	
7	0	0	0	0	510	509	0	0	
8	0	0	0	0	511	508	0	0	
9	0	0	0	0	512	508	0	0	
10	0	0	0	0	510	509	0	0	
11	0	0	0	0	512	508	0	0	
12	0	0	0	0	513	508	0	0	
13	0	0	0	0	513	508	0	0	
14	0	0	0	0	511	509	0	0	
15	0	0	0	0	513	510	0	0	
0	0	0	0	0	508	508	0	0	
1	0	0	0	0	510	511	0	0	
2	0	0	0	0	510	508	0	0	
3	0	0	0	0	510	508	0	0	
4	0	0	0	0	509	508	0	0	
5	0	0	0	0	510	508	0	0	
6	0	0	0	0	511	510	0	0	
7	0	0	0	0	512	507	0	0	
8	0	0	0	0	515	507	0	0	
9	0	0	0	0	512	507	0	0	
10	0	0	0	0	511	507	0	0	
11	0	0	0	0	511	509	0	0	
12	0	0	0	0	511	508	0	0	
13	0	0	0	0	510	510	0	0	
14	0	0	0	0	510	508	0	0	
15	0	0	0	0	508	508	0	0	
0	0	0	0	0	512	508	0	0	
1	0	0	0	0	510	510	0	0	
2	0	0	0	0	509	508	0	0	
3	0	0	0	0	511	507	0	0	
4	0	0	0	0	509	508	0	0	
5	0	0	0	0	512	508	0	0	
6	0	0	0	0	511	509	0	0	
7	0	0	0	0	509	509	0	0	
8	0	0	0	0	512	508	0	0	
9	0	0	0	0	509	507	0	0	
10	0	0	0	0	508	508	0	0	
11	0	0	0	0	512	510	0	0	
12	0	0	0	0	511	508	0	0	
13	0	0	0	0	512	507	0	0	
14	0	0	0	0	510	508	0	0	
15	0	0	0	0	511	509	0	0	
0	0	0	0	0	512	508	0	0	
1	0	0	0	0	513	505	0	0	
2	0	0	0	0	514	507	0	0	
3	0	0	0	0	511	508	0	0	
4	0	0	0	0	510	508	0	0	
5	0	0	0	0	510	509	0	0	
6	0	0	0	0	510	508	0	0	
7	0	0	0	0	510	508	0	0	
8	0	0	0	0	509	507	0	0	
9	0	0	0	0	509	507	0	0	
10	0	0	0	0	511	510	0	0	
11	0	0	0	0	511	507	0	0	
12	0	0	0	0	511	508	0	0	
13	0	0	0	0	508	505	0	0	
14	0	0	0	0	511	509	0	0	
15	0	0	0	0	510	510	0	0	
0	0	0	0	0	512	508	0	0	
1	0	0	0	0	514	507	0	0	
2	0	0	0	0	513	506	0	0	
3	0	0	0	0	514	508	0	0	
4	0	0	0	0	513	508	0	0	
5	0	0	0	0	513	510	0	0	
6	0	0	0	0	514	508	0	0	
7	0	0	0	0	511	508	0	0	
8	0	0	0	0	511	509	0	0	
9	0	0	0	0	511	509	0	0	
10	0	0	0	0	512	508	0	0	
11	0	0	0	0	511	509	0	0	
12	0	0	0	0	510	508	0	0	
13	0	0	0	0	508	507	0	0	
14	0	0	0	0	510	510	0	0	
15	0	0	0	0	512	507	0	0	
0	0	0	0	0	512	508	0	0	
1	0	0	0	0	507	508	0	0	
2	0	0	0	0	509	510	0	0	
3	0	0	0	0	511	507	0	0	
4	0	0	0	0	507	506	0	0	
5	0	0	0	0	511	509	0	0	
6	0	0	0	0	510	509	0	0	
7	0	0	0	0	510	510	0	0	
8	0	0	0	0	511	506	0	0	
9	0	0	0	0	511	511	0	0	
10	0	0	0	0	511	508	0	0	
11	0	0	0	0	512	509	0	0	
12	0	0	0	0	512	510	0	0	
13	0	0	0	0	511	508	0	0	
14	0	0	0	0	512	508	0	0	
15	0	0	0	0	512	507	0	0	
0	0	0	0	0	511	510	0	0	
1	0	0	0	0	510	510	0	0	
2	0	0	0	0	510	506	0	0	
3	0	0	0	0	511	508	0	0	
4	0	0	0	0	512	508	0	0	
5	0	0	0	0	511	507	0	0	
6	0	0	0	0	509	506	0	0	
7	0	0	0	0	512	508	0	0	
8	0	0	0	0	514	510	0	0	
9	0	0	0	0	513	508	0	0	
10	0	0	0	0	513	508	0	0	
11	0	0	0	0	513	510	0	0	
12	0	0	0	0	511	508	0	0	
13	0	0	0	0	511	508	0	0	
14	0	0	0	0	510	507	0	0	
15	0	0	0	0	510	509	0	0	
0	0	0	0	0	512	509	0	0	
1	0	0	0	0	511	508	0	0	
2	0	0	0	0	511	507	0	0	
3	0	0	0	0	511	509	0	0	
4	0	0	0	0	507	507	0	0	
5	0	0	0	0	509	509	0	0	
6	0	0	0	0	511	508	0	0	
7	0	0	0	0	509	508	0	0	
8	0	0	0	0	512	508	0	0	
9	0	0	0	0	511	510	0	0	
10	0	0	0	0	516	508	0	0	
11	0	0	0	0	511	510	0	0	
12	0	0	0	0	508	509	0	0	
13	0	0	0	0	509	508	0	0	
14	0	0	0	0	511	507	0	0	
15	0	0	0	0	512	509	0	0	
0	0	0	0	0	513	508	0	0	
1	0	0	0	0	514	509	0	0	
2	0	0	0	0	511	507	0	0	
3	0	0	0	0	512	509	0	0	
4	0	0	0	0	511	509	0	0	
5	0	0	0	0	509	507	0	0	
6	0	0	0	0	512	509	0	0	
7	0	0	0	0	509	508	0	0	
8	0	0	0	0	509	509	0	0	
9	0	0	0	0	511	510	0	0	
10	0	0	0	0	511	508	0	0	
11	0	0	0	0	512	508	0	0	
12	0	0	0	0	510	508	0	0	
13	0	0	0	0	511	507	0	0	
14	0	0	0	0	513	508	0	0	
15	0	0	0	0	512	508	0	0	
0	0	0	0	0	512	509	0	0	
1	0	0	0	0	510	507	0	0	
2	0	0	0	0	511	508	0	0	
3	0	0	0	0	509	506	0	0	
4	0	0	0	0	511	509	0	0	
5	0	0	0	0	512	510	0	0	
6	0	0	0	0	512	508	0	0	
7	0	0	0	0	508	507	0	0	
8	0	0	0	0	508	507	0	0	
9	0	0	0	0	511	507	0	0	
10	0	0	0	0	514	508	0	0	
11	0	0	0	0	511	508	0	0	
12	0	0	0	0	510	507	0	0	
13	0	0	0	0	509	509	0	0	
14	0	0	0	0	511	510	0	0	
15	0	0	0	0	511	510	0	0	
0	0	0	0	0	509	509	0	0	
1	0	0	0	0	509	508	0	0	
2	0	0	0	0	511	510	0	0	
3	0	0	0	0	513	509	0	0	
4	0	0	0	0	511	508	0	0	
5	0	0	0	0	510	508	0	0	
6	0	0	0	0	509	506	0	0	
7	0	0	0	0	511	509	0	0	
8	0	0	0	0	513	509	0	0	
9	0	0	0	0	512	508	0	0	
10	0	0	0	0	512	507	0	0	
11	0	0	0	0	510	508	0	0	
12	0	0	0	0	511	508	0	0	
13	0	0	0	0	511	508	0	0	
14	0	0	0	0	513	510	0	0	
15	0	0	0	0	511	509	0	0	
0	0	0	0	0	509	506	0	0	
1	0	0	0	0	511	506	0	0	
2	0	0	0	0	511	509	0	0	
3	0	0	0	0	510	510	0	0	
4	0	0	0	0	511	507	0	0	
5	0	0	0	0	512	509	0	0	
6	0	0	0	0	511	507	0	0	
7	0	0	0	0	511	508	0	0	
8	0	0	0	0	511	509	0	0	
9	0	0	0	0	511	510	0	0	
10	0	0	0	0	509	509	0	0	
11	0	0	0	0	510	508	0	0	
12	0	0	0	0	510	508	0	0	
13	0	0	0	0	512	508	0	0	
14	0	0	0	0	512	508	0	0	
15	0	0	0	0	510	507	0	0	
0	0	0	0	0	510	507	0	0	
1	0	0	0	0	511	512	0	0	
2	0	0	0	0	515	508	0	0	
3	0	0	0	0	512	508	0	0	
4	0	0	0	0	510	508	0	0	
5	0	0	0	0	510	508	0	0	
6	0	0	0	0	510	507	0	0	
7	0	0	0	0	507	509	0	0	
8	0	0	0	0	511	508	0	0	
9	0	0	0	0	511	509	0	0	
10	0	0	0	0	511	508	0	0	
11	0	0	0	0	509	509	0	0	
12	0	0	0	0	511	510	0	0	
13	0	0	0	0	511	506	0	0	
14	0	0	0	0	513	508	0	0	
15	0	0	0	0	511	508	0	0	
0	0	0	0	0	511	509	0	0	
1	0	0	0	0	511	506	0	0	
2	0	0	0	0	511	509	0	0	
3	0	0	0	0	510	508	0	0	
4	0	0	0	0	508	506	0	0	
5	0	0	0	0	512	508	0	0	
6	0	0	0	0	511	509	0	0	
7	0	0	0	0	511	509	0	0	
8	0	0	0	0	508	509	0	0	
9	0	0	0	0	512	509	0	0	
10	0	0	0	0	512	508	0	0	
11	0	0	0	0	512	507	0	0	
12	0	0	0	0	512	508	0	0	
13	0	0	0	0	510	507	0	0	
14	0	0	0	0	509	508	0	0	
15	0	0	0	0	510	509	0	0	
0	0	0	0	0	512	508	0	0	
1	0	0	0	0	511	508	0	0	
2	0	0	0	0	514	509	0	0	
3	0	0	0	0	511	508	0	0	
4	0	0	0	0	511	507	0	0	
5	0	0	0	0	513	512	0	0	
6	0	0	0	0	511	509	0	0	
7	0	0	0	0	510	508	0	0	
8	0	0	0	0	512	507	0	0	
9	0	0	0	0	511	510	0	0	
10	0	0	0	0	508	511	0	0	
11	0	0	0	0	508	508	0	0	
12	0	0	0	0	510	509	0	0	
13	0	0	0	0	512	507	0	0	
14	0	0	0	0	513	508	0	0	
15	0	0	0	0	512	508	0	0	
0	0	0	0	0	513	507	0	0	
1	0	0	0	0	511	508	0	0	
2	0	0	0	0	510	507	0	0	
3	0	0	0	0	511	508	0	0	
4	0	0	0	0	510	507	0	0	
5	0	0	0	0	512	508	0	0	
6	0	0	0	0	511	507	0	0	
7	0	0	0	0	510	505	0	0	
8	0	0	0	0	510	507	0	0	
9	0	0	0	0	513	508	0	0	
10	0	0	0	0	513	508	0	0	
11	0	0	0	0	512	508	0	0	
12	0	0	0	0	511	509	0	0	
13	0	0	0	0	509	510	0	0	
14	0	0	0	0	513	510	0	0	
15	0	0	0	0	512	509	0	0	
0	0	0	0	0	510	509	0	0	
1	0	0	0	0	511	508	0	0	
2	0	0	0	0	510	509	0	0	
3	0	0	0	0	511	509	0	0	
4	0	0	0	0	511	506	0	0	
5	0	0	0	0	510	510	0	0	
6	0	0	0	0	510	509	0	0	
7	0	0	0	0	512	508	0	0	
8	0	0	0	0	510	508	0	0	
9	0	0	0	0	510	509	0	0	
10	0	0	0	0	511	508	0	0	
11	0	0	0	0	510	507	0	0	
12	0	0	0	0	512	509	0	0	
13	0	0	0	0	509	508	0	0	
14	0	0	0	0	512	509	0	0	
15	0	0	0	0	509	507	0	0	
0	0	0	0	0	513	508	0	0	
1	0	0	0	0	512	509	0	0	
2	0	0	0	0	513	509	0	0	
3	0	0	0	0	511	509	0	0	
4	0	0	0	0	511	507	0	0	
5	0	0	0	0	513	505	0	0	
6	0	0	0	0	511	506	0	0	
7	0	0	0	0	511	509	0	0	
8	0	0	0	0	510	508	0	0	
9	0	0	0	0	511	508	0	0	
10	0	0	0	0	511	508	0	0	
11	0	0	0	0	508	508	0	0	
12	0	0	0	0	513	510	0	0	
13	0	0	0	0	511	508	0	0	
14	0	0	0	0	509	508	0	0	
15	0	0	0	0	512	511	0	0	
0	0	0	0	0	512	508	0	0	
1	0	0	0	0	510	508	0	0	
2	0	0	0	0	511	509	0	0	
3	0	0	0	0	510	508	0	0	
4	0	0	0	0	514	508	0	0	
5	0	0	0	0	507	507	0	0	
6	0	0	0	0	510	510	0	0	
7	0	0	0	0	512	508	0	0	
8	0	0	0	0	512	508	0	0	
9	0	0	0	0	510	508	0	0	
10	0	0	0	0	510	509	0	0	
11	0	0	0	0	511	508	0	0	
12	0	0	0	0	509	508	0	0	
13	0	0	0	0	509	508	0	0	
14	0	0	0	0	510	507	0	0	
15	0	0	0	0	511	509	0	0	
0	0	0	0	0	512	508	0	0	
1	0	0	0	0	511	507	0	0	
2	0	0	0	0	512	507	0	0	
3	0	0	0	0	511	509	0	0	
4	0	0	0	0	512	508	0	0	
5	0	0	0	0	512	507	0	0	
6	0	0	0	0	512	507	0	0	
7	0	0	0	0	510	507	0	0	
8	0	0	0	0	511	509	0	0	
9	0	0	0	0	512	510	0	0	
10	0	0	0	0	508	507	0	0	
11	0	0	0	0	510	508	0	0	
12	0	0	0	0	509	508	0	0	
13	0	0	0	0	511	507	0	0	
14	0	0	0	0	511	510	0	0	
15	0	0	0	0	511	507	0	0	
0	0	0	0	0	511	508	0	0	
1	0	0	0	0	509	509	0	0	
2	0	0	0	0	509	508	0	0	
3	0	0	0	0	512	510	0	0	
4	0	0	0	0	513	510	0	0	
5	0	0	0	0	511	508	0	0	
6	0	0	0	0	511	507	0	0	
7	0	0	0	0	511	505	0	0	
8	0	0	0	0	511	509	0	0	
9	0	0	0	0	513	508	0	0	
10	0	0	0	0	509	507	0	0	
11	0	0	0	0	509	508	0	0	
12	0	0	0	0	512	508	0	0	
13	0	0	0	0	512	509	0	0	
14	0	0	0	0	513	508	0	0	
15	0	0	0	0	512	509	0	0	
0	0	0	0	0	508	507	0	0	
1	0	0	0	0	511	508	0	0	
2	0	0	0	0	508	508	0	0	
3	0	0	0	0	510	508	0	0	
4	0	0	0	0	513	508	0	0	
5	0	0	0	0	509	507	0	0	
6	0	0	0	0	510	506	0	0	
7	0	0	0	0	510	507	0	0	
8	0	0	0	0	513	510	0	0	
9	0	0	0	0	511	509	0	0	
10	0	0	0	0	511	508	0	0	
11	0	0	0	0	510	509	0	0	
12	0	0	0	0	508	509	0	0	
13	0	0	0	0	511	511	0	0	
14	0	0	0	0	509	508	0	0	
15	0	0	0	0	512	508	0	0	
0	0	0	0	0	511	507	0	0	
1	0	0	0	0	512	506	0	0	
2	0	0	0	0	514	510	0	0	
3	0	0	0	0	511	508	0	0	
4	0	0	0	0	512	507	0	0	
5	0	0	0	0	511	508	0	0	
6	0	0	0	0	510	510	0	0	
7	0	0	0	0	511	508	0	0	
8	0	0	0	0	514	509	0	0	
9	0	0	0	0	511	506	0	0	
10	0	0	0	0	513	508	0	0	
11	0	0	0	0	512	507	0	0	
12	0	0	0	0	511	508	0	0	
13	0	0	0	0	510	511	0	0	
14	0	0	0	0	509	507	0	0	
15	0	0	0	0	512	508	0	0	
0	0	0	0	0	512	509	0	0	
1	0	0	0	0	512	510	0	0	
2	0	0	0	0	511	508	0	0	
3	0	0	0	0	511	507	0	0	
4	0	0	0	0	512	507	0	0	
5	0	0	0	0	512	509	0	0	
6	0	0	0	0	511	510	0	0	
7	0	0	0	0	511	510	0	0	
8	0	0	0	0	509	508	0	0	
9	0	0	0	0	510	509	0	0	
10	0	0	0	0	511	507	0	0	
11	0	0	0	0	512	507	0	0	
12	0	0	0	0	512	508	0	0	
13	0	0	0	0	511	507	0	0	
14	0	0	0	0	511	508	0	0	
15	0	0	0	0	511	509	0	0	
0	0	0	0	0	511	508	0	0	
1	0	0	0	0	512	510	0	0	
2	0	0	0	0	509	507	0	0	
3	0	0	0	0	513	510	0	0	
4	0	0	0	0	512	506	0	0	
5	0	0	0	0	509	508	0	0	
6	0	0	0	0	510	506	0	0	
7	0	0	0	0	508	507	0	0	
8	0	0	0	0	510	509	0	0	
9	0	0	0	0	513	508	0	0	
10	0	0	0	0	511	506	0	0	
11	0	0	0	0	511	509	0	0	
12	0	0	0	0	511	508	0	0	
13	0	0	0	0	511	507	0	0	
14	0	0	0	0	511	510	0	0	
15	0	0	0	0	513	508	0	0	
0	0	0	0	0	510	508	0	0	
1	0	0	0	0	508	506	0	0	
2	0	0	0	0	512	508	0	0	
3	0	0	0	0	511	511	0	0	
4	0	0	0	0	509	509	0	0	
5	0	0	0	0	512	508	0	0	
6	0	0	0	0	510	506	0	0	
7	0	0	0	0	510	508	0	0	
8	0	0	0	0	511	508	0	0	
9	0	0	0	0	511	509	0	0	
10	0	0	0	0	513	508	0	0	
11	0	0	0	0	513	508	0	0	
12	0	0	0	0	513	509	0	0	
13	0	0	0	0	512	509	0	0	
14	0	0	0	0	510	508	0	0	
15	0	0	0	0	511	509	0	0	
0	0	0	0	0	509	506	0	0	
1	0	0	0	0	511	507	0	0	
2	0	0	0	0	512	508	0	0	
3	0	0	0	0	513	509	0	0	
4	0	0	0	0	509	510	0	0	
5	0	0	0	0	508	508	0	0	
6	0	0	0	0	511	509	0	0	
7	0	0	0	0	511	509	0	0	
8	0	0	0	0	511	509	0	0	
9	0	0	0	0	511	508	0	0	
10	0	0	0	0	509	507	0	0	
11	0	0	0	0	510	508	0	0	
12	0	0	0	0	512	509	0	0	
13	0	0	0	0	511	508	0	0	
14	0	0	0	0	512	510	0	0	
15	0	0	0	0	511	508	0	0	
0	0	0	0	0	512	507	0	0	
1	0	0	0	0	509	505	0	0	
2	0	0	0	0	511	510	0	0	
3	0	0	0	0	508	508	0	0	
4	0	0	0	0	512	507	0	0	
5	0	0	0	0	513	508	0	0	
6	0	0	0	0	511	506	0	0	
7	0	0	0	0	511	508	0	0	
8	0	0	0	0	510	510	0	0	
9	0	0	0	0	510	509	0	0	
10	0	0	0	0	511	507	0	0	
11	0	0	0	0	512	509	0	0	
12	0	0	0	0	512	508	0	0	
13	0	0	0	0	510	508	0	0	
14	0	0	0	0	509	509	0	0	
15	0	0	0	0	510	508	0	0	
0	0	0	0	0	514	509	0	0	
1	0	0	0	0	512	508	0	0	
2	0	0	0	0	512	508	0	0	
3	0	0	0	0	511	506	0	0	
4	0	0	0	0	511	508	0	0	
5	0	0	0	0	511	509	0	0	
6	0	0	0	0	511	510	0	0	
7	0	0	0	0	511	508	0	0	
8	0	0	0	0	512	509	0	0	
9	0	0	0	0	511	507	0	0	
10	0	0	0	0	510	510	0	0	
11	0	0	0	0	509	508	0	0	
12	0	0	0	0	511	509	0	0	
13	0	0	0	0	510	508	0	0	
14	0	0	0	0	510	508	0	0	
15	0	0	0	0	511	508	0	0	
0	0	0	0	0	510	508	0	0	
1	0	0	0	0	512	508	0	0	
2	0	0	0	0	511	508	0	0	
3	0	0	0	0	510	508	0	0	
4	0	0	0	0	510	510	0	0	
5	0	0	0	0	514	508	0	0	
6	0	0	0	0	511	508	0	0	
7	0	0	0	0	511	508	0	0	
8	0	0	0	0	511	508	0	0	
9	0	0	0	0	512	507	0	0	
10	0	0	0	0	512	508	0	0	
11	0	0	0	0	515	505	0	0	
12	0	0	0	0	513	508	0	0	
13	0	0	0	0	511	510	0	0	
14	0	0	0	0	508	508	0	0	
15	0	0	0	0	512	508	0	0	
0	0	0	0	0	512	509	0	0	
1	0	0	0	0	513	509	0	0	
2	0	0	0	0	510	509	0	0	
3	0	0	0	0	509	508	0	0	
4	0	0	0	0	510	511	0	0	
5	0	0	0	0	511	508	0	0	
6	0	0	0	0	511	510	0	0	
7	0	0	0	0	509	508	0	0	
8	0	0	0	0	511	509	0	0	
9	0	0	0	0	513	511	0	0	
10	0	0	0	0	511	508	0	0	
11	0	0	0	0	511	507	0	0	
12	0	0	0	0	512	509	0	0	
13	0	0	0	0	512	507	0	0	
14	0	0	0	0	510	509	0	0	
15	0	0	0	0	512	506	0	0	
0	0	0	0	0	512	507	0	0	
1	0	0	0	0	512	507	0	0	
2	0	0	0	0	510	509	0	0	
3	0	0	0	0	510	510	0	0	
4	0	0	0	0	512	506	0	0	
5	0	0	0	0	512	507	0	0	
6	0	0	0	0	511	509	0	0	
7	0	0	0	0	510	507	0	0	
8	0	0	0	0	511	509	0	0	
9	0	0	0	0	512	510	0	0	
10	0	0	0	0	512	507	0	0	
11	0	0	0	0	512	508	0	0	
12	0	0	0	0	511	508	0	0	
13	0	0	0	0	510	507	0	0	
14	0	0	0	0	511	508	0	0	
15	0	0	0	0	508	507	0	0	
0	0	0	0	0	511	508	0	0	
1	0	0	0	0	515	507	0	0	
2	0	0	0	0	512	508	0	0	
3	0	0	0	0	511	507	0	0	
4	0	0	0	0	510	509	0	0	
5	0	0	0	0	511	507	0	0	
6	0	0	0	0	511	509	0	0	
7	0	0	0	0	510	508	0	0	
8	0	0	0	0	509	508	0	0	
9	0	0	0	0	509	507	0	0	
10	0	0	0	0	511	506	0	0	
11	0	0	0	0	511	508	0	0	
12	0	0	0	0	510	511	0	0	
13	0	0	0	0	510	507	0	0	
14	0	0	0	0	510	508	0	0	
15	0	0	0	0	512	510	0	0	
0	0	0	0	0	512	508	0	0	
1	0	0	0	0	511	508	0	0	
2	0	0	0	0	511	508	0	0	
3	0	0	0	0	511	507	0	0	
4	0	0	0	0	512	509	0	0	
5	0	0	0	0	511	505	0	0	
6	0	0	0	0	511	508	0	0	
7	0	0	0	0	510	507	0	0	
8	0	0	0	0	511	508	0	0	
9	0	0	0	0	512	508	0	0	
10	0	0	0	0	509	505	0	0	
11	0	0	0	0	510	510	0	0	
12	0	0	0	0	510	508	0	0	
13	0	0	0	0	508	507	0	0	
14	0	0	0	0	508	507	0	0	
15	0	0	0	0	512	509	0	0	
0	0	0	0	0	514	508	0	0	
1	0	0	0	0	511	509	0	0	
2	0	0	0	0	511	508	0	0	
3	0	0	0	0	512	509	0	0	
4	0	0	0	0	515	508	0	0	
5	0	0	0	0	511	508	0	0	
6	0	0	0	0	511	507	0	0	
7	0	0	0	0	509	509	0	0	
8	0	0	0	0	510	507	0	0	
9	0	0	0	0	509	509	0	0	
10	0	0	0	0	509	509	0	0	
11	0	0	0	0	512	507	0	0	
12	0	0	0	0	511	508	0	0	
13	0	0	0	0	510	508	0	0	
14	0	0	0	0	512	506	0	0	
15	0	0	0	0	511	508	0	0	
0	0	0	0	0	510	507	0	0	
1	0	0	0	0	508	508	0	0	
2	0	0	0	0	511	508	0	0	
3	0	0	0	0	510	506	0	0	
4	0	0	0	0	513	510	0	0	
5	0	0	0	0	511	507	0	0	
6	0	0	0	0	513	510	0	0	
7	0	0	0	0	511	507	0	0	
8	0	0	0	0	511	510	0	0	
9	0	0	0	0	511	508	0	0	
10	0	0	0	0	513	507	0	0	
11	0	0	0	0	512	510	0	0	
12	0	0	0	0	509	507	0	0	
13	0	0	0	0	510	511	0	0	
14	0	0	0	0	511	508	0	0	
15	0	0	0	0	512	510	0	0	
0	0	0	0	0	513	510	0	0	
1	0	0	0	0	513	508	0	0	
2	0	0	0	0	511	508	0	0	
3	0	0	0	0	513	509	0	0	
4	0	0	0	0	510	508	0	0	
5	0	0	0	0	506	509	0	0	
6	0	0	0	0	508	506	0	0	
7	0	0	0	0	509	508	0	0	
8	0	0	0	0	511	510	0	0	
9	0	0	0	0	511	508	0	0	
10	0	0	0	0	511	508	0	0	
11	0	0	0	0	512	507	0	0	
12	0	0	0	0	511	509	0	0	
13	0	0	0	0	513	510	0	0	
14	0	0	0	0	511	508	0	0	
15	0	0	0	0	511	507	0	0	
0	0	0	0	0	511	507	0	0	
1	0	0	0	0	511	508	0	0	
2	0	0	0	0	510	508	0	0	
3	0	0	0	0	509	511	0	0	
4	0	0	0	0	513	507	0	0	
5	0	0	0	0	513	509	0	0	
6	0	0	0	0	511	510	0	0	
7	0	0	0	0	511	510	0	0	
8	0	0	0	0	512	508	0	0	
9	0	0	0	0	509	505	0	0	
10	0	0	0	0	511	507	0	0	
11	0	0	0	0	511	507	0	0	
12	0	0	0	0	511	510	0	0	
13	0	0	0	0	510	510	0	0	
14	0	0	0	0	508	507	0	0	
15	0	0	0	0	513	508	0	0	
0	0	0	0	0	512	510	0	0	
1	0	0	0	0	513	507	0	0	
2	0	0	0	0	511	508	0	0	
3	0	0	0	0	510	510	0	0	
4	0	0	0	0	511	510	0	0	
5	0	0	0	0	511	508	0	0	
6	0	0	0	0	511	508	0	0	
7	0	0	0	0	511	507	0	0	
8	0	0	0	0	513	508	0	0	
9	0	0	0	0	510	508	0	0	
10	0	0	0	0	510	509	0	0	
11	0	0	0	0	510	508	0	0	
12	0	0	0	0	511	511	0	0	
13	0	0	0	0	511	508	0	0	
14	0	0	0	0	511	508	0	0	
15	0	0	0	0	513	508	0	0	
0	0	0	0	0	510	508	0	0	
1	0	0	0	0	513	507	0	0	
2	0	0	0	0	512	507	0	0	
3	0	0	0	0	510	507	0	0	
4	0	0	0	0	511	509	0	0	
5	0	0	0	0	509	508	0	0	
6	0	0	0	0	510	509	0	0	
7	0	0	0	0	511	510	0	0	
8	0	0	0	0	512	508	0	0	
9	0	0	0	0	511	507	0	0	
10	0	0	0	0	512	510	0	0	
11	0	0	0	0	510	507	0	0	
12	0	0	0	0	513	507	0	0	
13	0	0	0	0	509	509	0	0	
14	0	0	0	0	510	509	0	0	
15	0	0	0	0	511	510	0	0	
0	0	0	0	0	509	508	0	0	
1	0	0	0	0	508	506	0	0	
2	0	0	0	0	508	508	0	0	
3	0	0	0	0	510	510	0	0	
4	0	0	0	0	510	508	0	0	
5	0	0	0	0	516	509	0	0	
6	0	0	0	0	512	508	0	0	
7	0	0	0	0	515	508	0	0	
8	0	0	0	0	513	508	0	0	
9	0	0	0	0	511	507	0	0	
10	0	0	0	0	512	509	0	0	
11	0	0	0	0	509	509	0	0	
12	0	0	0	0	511	510	0	0	
13	0	0	0	0	508	508	0	0	
14	0	0	0	0	510	508	0	0	
15	0	0	0	0	508	508	0	0	
0	0	0	0	0	510	507	0	0	
1	0	0	0	0	511	509	0	0	
2	0	0	0	0	516	509	0	0	
3	0	0	0	0	515	510	0	0	
4	0	0	0	0	513	508	0	0	
5	0	0	0	0	509	508	0	0	
6	0	0	0	0	511	507	0	0	
7	0	0	0	0	513	506	0	0	
8	0	0	0	0	513	507	0	0	
9	0	0	0	0	510	507	0	0	
10	0	0	0	0	515	511	0	0	
11	0	0	0	0	513	509	0	0	
12	0	0	0	0	511	510	0	0	
13	0	0	0	0	512	511	0	0	
14	0	0	0	0	511	507	0	0	
15	0	0	0	0	513	509	0	0	
0	0	0	0	0	511	508	0	0	
1	0	0	0	0	511	506	0	0	
2	0	0	0	0	513	509	0	0	
3	0	0	0	0	509	507	0	0	
4	0	0	0	0	509	507	0	0	
5	0	0	0	0	512	511	0	0	
6	0	0	0	0	510	510	0	0	
7	0	0	0	0	509	509	0	0	
8	0	0	0	0	510	508	0	0	
9	0	0	0	0	509	507	0	0	
10	0	0	0	0	511	509	0	0	
11	0	0	0	0	511	509	0	0	
12	0	0	0	0	511	508	0	0	
13	0	0	0	0	511	510	0	0	
14	0	0	0	0	511	507	0	0	
15	0	0	0	0	509	508	0	0	
0	0	0	0	0	511	510	0	0	
1	0	0	0	0	513	509	0	0	
2	0	0	0	0	511	507	0	0	
3	0	0	0	0	508	507	0	0	
4	0	0	0	0	509	507	0	0	
5	0	0	0	0	512	508	0	0	
6	0	0	0	0	514	509	0	0	
7	0	0	0	0	512	508	0	0	
8	0	0	0	0	509	507	0	0	
9	0	0	0	0	510	508	0	0	
10	0	0	0	0	510	506	0	0	
11	0	0	0	0	509	509	0	0	
12	0	0	0	0	509	507	0	0	
13	0	0	0	0	509	507	0	0	
14	0	0	0	0	509	507	0	0	
15	0	0	0	0	510	507	0	0	
0	0	0	0	0	510	510	0	0	
1	0	0	0	0	511	510	0	0	
2	0	0	0	0	509	508	0	0	
3	0	0	0	0	509	509	0	0	
4	0	0	0	0	511	508	0	0	
5	0	0	0	0	512	509	0	0	
6	0	0	0	0	511	507	0	0	
7	0	0	0	0	510	505	0	0	
8	0	0	0	0	513	509	0	0	
9	0	0	0	0	514	512	0	0	
10	0	0	0	0	511	508	0	0	
11	0	0	0	0	509	508	0	0	
12	0	0	0	0	509	506	0	0	
13	0	0	0	0	509	509	0	0	
14	0	0	0	0	512	508	0	0	
15	0	0	0	0	510	511	0	0	
0	0	0	0	0	515	508	0	0	
1	0	0	0	0	509	507	0	0	
2	0	0	0	0	511	507	0	0	
3	0	0	0	0	510	508	0	0	
4	0	0	0	0	506	509	0	0	
5	0	0	0	0	509	510	0	0	
6	0	0	0	0	510	507	0	0	
7	0	0	0	0	513	508	0	0	
8	0	0	0	0	511	508	0	0	
9	0	0	0	0	511	506	0	0	
10	0	0	0	0	515	509	0	0	
11	0	0	0	0	512	509	0	0	
12	0	0	0	0	515	508	0	0	
13	0	0	0	0	516	510	0	0	
14	0	0	0	0	512	506	0	0	
15	0	0	0	0	513	508	0	0	
0	0	0	0	0	513	508	0	0	
1	0	0	0	0	514	508	0	0	
2	0	0	0	0	514	509	0	0	
3	0	0	0	0	509	508	0	0	
4	0	0	0	0	511	508	0	0	
5	0	0	0	0	505	507	0	0	
6	0	0	0	0	505	508	0	0	
7	0	0	0	0	510	511	0	0	
8	0	0	0	0	512	508	0	0	
9	0	0	0	0	512	508	0	0	
10	0	0	0	0	509	507	0	0	
11	0	0	0	0	508	508	0	0	
12	0	0	0	0	511	510	0	0	
13	0	0	0	0	508	507	0	0	
14	0	0	0	0	511	509	0	0	
15	0	0	0	0	514	508	0	0	
0	0	0	0	0	515	509	0	0	
1	0	0	0	0	515	510	0	0	
2	0	0	0	0	510	506	0	0	
3	0	0	0	0	512	508	0	0	
4	0	0	0	0	513	505	0	0	
5	0	0	0	0	513	508	0	0	
6	0	0	0	0	512	509	0	0	
7	0	0	0	0	511	508	0	0	
8	0	0	0	0	509	509	0	0	
9	0	0	0	0	510	509	0	0	
10	0	0	0	0	510	509	0	0	
11	0	0	0	0	507	508	0	0	
12	0	0	0	0	513	511	0	0	
13	0	0	0	0	510	509	0	0	
14	0	0	0	0	513	507	0	0	
15	0	0	0	0	511	507	0	0	
0	0	0	0	0	506	506	0	0	
1	0	0	0	0	512	508	0	0	
2	0	0	0	0	510	508	0	0	
3	0	0	0	0	512	508	0	0	
4	0	0	0	0	511	508	0	0	
5	0	0	0	0	513	507	0	0	
6	0	0	0	0	513	511	0	0	
7	0	0	0	0	510	508	0	0	
8	0	0	0	0	512	507	0	0	
9	0	0	0	0	510	508	0	0	
10	0	0	0	0	513	509	0	0	
11	0	0	0	0	513	507	0	0	
12	0	0	0	0	513	506	0	0	
13	0	0	0	0	511	507	0	0	
14	0	0	0	0	507	510	0	0	
15	0	0	0	0	508	506	0	0	
0	0	0	0	0	512	510	0	0	
1	0	0	0	0	510	508	0	0	
2	0	0	0	0	510	508	0	0	
3	0	0	0	0	512	508	0	0	
4	0	0	0	0	513	507	0	0	
5	0	0	0	0	512	509	0	0	
6	0	0	0	0	511	507	0	0	
7	0	0	0	0	510	507	0	0	
8	0	0	0	0	509	509	0	0	
9	0	0	0	0	511	509	0	0	
10	0	0	0	0	507	510	0	0	
11	0	0	0	0	505	508	0	0	
12	0	0	0	0	502	508	0	0	
13	0	0	0	0	501	507	0	0	
14	0	0	0	0	510	507	0	0	
15	0	0	0	0	519	508	0	0	
0	0	0	0	0	517	508	0	0	
1	0	0	0	0	514	507	0	0	
2	0	0	0	0	515	504	0	0	
3	0	0	0	0	512	509	0	0	
4	0	0	0	0	513	507	0	0	
5	0	0	0	0	514	510	0	0	
6	0	0	0	0	515	505	0	0	
7	0	0	0	0	518	506	0	0	
8	0	0	0	0	514	508	0	0	
9	0	0	0	0	510	510	0	0	
10	0	0	0	0	511	509	0	0	
11	0	0	0	0	509	508	0	0	
12	0	0	0	0	509	508	0	0	
13	0	0	0	0	508	509	0	0	
14	0	0	0	0	506	506	0	0	
15	0	0	0	0	508	509	0	0	
0	0	0	0	0	507	509	0	0	
1	0	0	0	0	507	507	0	0	
2	0	0	0	0	508	509	0	0	
3	0	0	0	0	511	510	0	0	
4	0	0	0	0	508	508	0	0	
5	0	0	0	0	508	507	0	0	
6	0	0	0	0	511	508	0	0	
7	0	0	0	0	513	508	0	0	
8	0	0	0	0	517	508	0	0	
9	0	0	0	0	515	507	0	0	
10	0	0	0	0	511	507	0	0	
11	0	0	0	0	514	506	0	0	
12	0	0	0	0	514	509	0	0	
13	0	0	0	0	511	507	0	0	
14	0	0	0	0	510	509	0	0	
15	0	0	0	0	509	508	0	0	
0	0	0	0	0	511	507	0	0	
1	0	0	0	0	509	507	0	0	
2	0	0	0	0	507	508	0	0	
3	0	0	0	0	509	507	0	0	
4	0	0	0	0	506	510	0	0	
5	0	0	0	0	509	507	0	0	
6	0	0	0	0	513	508	0	0	
7	0	0	0	0	515	510	0	0	
8	0	0	0	0	513	507	0	0	
9	0	0	0	0	507	510	0	0	
10	0	0	0	0	508	508	0	0	
11	0	0	0	0	509	508	0	0	
12	0	0	0	0	511	510	0	0	
13	0	0	0	0	511	507	0	0	
14	0	0	0	0	510	508	0	0	
15	0	0	0	0	513	507	0	0	
0	0	0	0	0	513	510	0	0	
1	0	0	0	0	510	508	0	0	
2	0	0	0	0	508	508	0	0	
3	0	0	0	0	508	507	0	0	
4	0	0	0	0	510	507	0	0	
5	0	0	0	0	511	508	0	0	
6	0	0	0	0	512	511	0	0	
7	0	0	0	0	511	507	0	0	
8	0	0	0	0	513	508	0	0	
9	0	0	0	0	509	509	0	0	
10	0	0	0	0	511	507	0	0	
11	0	0	0	0	516	510	0	0	
12	0	0	0	0	512	508	0	0	
13	0	0	0	0	511	508	0	0	
14	0	0	0	0	512	510	0	0	
15	0	0	0	0	512	510	0	0	
0	0	0	0	0	511	510	0	0	
1	0	0	0	0	512	510	0	0	
2	0	0	0	0	509	507	0	0	
3	0	0	0	0	515	508	0	0	
4	0	0	0	0	513	509	0	0	
5	0	0	0	0	513	507	0	0	
6	0	0	0	0	513	508	0	0	
7	0	0	0	0	511	510	0	0	
8	0	0	0	0	511	509	0	0	
9	0	0	0	0	508	508	0	0	
10	0	0	0	0	510	507	0	0	
11	0	0	0	0	512	510	0	0	
12	0	0	0	0	507	507	0	0	
13	0	0	0	0	511	509	0	0	
14	0	0	0	0	510	507	0	0	
15	0	0	0	0	508	508	0	0	
0	0	0	0	0	511	507	0	0	
1	0	0	0	0	505	508	0	0	
2	0	0	0	0	508	507	0	0	
3	0	0	0	0	511	509	0	0	
4	0	0	0	0	513	506	0	0	
5	0	0	0	0	515	507	0	0	
6	0	0	0	0	510	508	0	0	
7	0	0	0	0	511	508	0	0	
8	0	0	0	0	511	508	0	0	
9	0	0	0	0	509	508	0	0	
10	0	0	0	0	512	509	0	0	
11	0	0	0	0	510	508	0	0	
12	0	0	0	0	513	508	0	0	
13	0	0	0	0	516	509	0	0	
14	0	0	0	0	510	509	0	0	
15	0	0	0	0	511	509	0	0	
0	0	0	0	0	515	506	0	0	
1	0	0	0	0	515	509	0	0	
2	0	0	0	0	514	507	0	0	
3	0	0	0	0	515	510	0	0	
4	0	0	0	0	512	508	0	0	
5	0	0	0	0	509	508	0	0	
6	0	0	0	0	509	508	0	0	
7	0	0	0	0	510	508	0	0	
8	0	0	0	0	511	509	0	0	
9	0	0	0	0	508	508	0	0	
10	0	0	0	0	506	507	0	0	
11	0	0	0	0	508	506	0	0	
12	0	0	0	0	510	508	0	0	
13	0	0	0	0	514	506	0	0	
14	0	0	0	0	514	506	0	0	
15	0	0	0	0	512	506	0	0	
0	0	0	0	0	523	509	0	0	
1	0	0	0	0	520	509	0	0	
2	0	0	0	0	510	508	0	0	
3	0	0	0	0	499	508	0	0	
4	0	0	0	0	499	507	0	0	
5	0	0	0	0	507	508	0	0	
6	0	0	0	0	505	508	0	0	
7	0	0	0	0	508	510	0	0	
8	0	0	0	0	507	507	0	0	
9	0	0	0	0	511	508	0	0	
10	0	0	0	0	513	509	0	0	
11	0	0	0	0	516	509	0	0	
12	0	0	0	0	512	510	0	0	
13	0	0	0	0	512	508	0	0	
14	0	0	0	0	506	505	0	0	
15	0	0	0	0	505	507	0	0	
0	0	0	0	0	509	509	0	0	
1	0	0	0	0	509	508	0	0	
2	0	0	0	0	509	507	0	0	
3	0	0	0	0	512	507	0	0	
4	0	0	0	0	515	510	0	0	
5	0	0	0	0	519	509	0	0	
6	0	0	0	0	515	509	0	0	
7	0	0	0	0	511	508	0	0	
8	0	0	0	0	510	507	0	0	
9	0	0	0	0	508	507	0	0	
10	0	0	0	0	509	508	0	0	
11	0	0	0	0	510	510	0	0	
12	0	0	0	0	508	508	0	0	
13	0	0	0	0	512	509	0	0	
14	0	0	0	0	515	510	0	0	
15	0	0	0	0	513	508	0	0	
0	0	0	0	0	516	507	0	0	
1	0	0	0	0	511	508	0	0	
2	0	0	0	0	515	510	0	0	
3	0	0	0	0	515	510	0	0	
4	0	0	0	0	512	508	0	0	
5	0	0	0	0	510	508	0	0	
6	0	0	0	0	509	510	0	0	
7	0	0	0	0	505	507	0	0	
8	0	0	0	0	505	508	0	0	
9	0	0	0	0	501	509	0	0	
10	0	0	0	0	498	508	0	0	
11	0	0	0	0	520	508	0	0	
12	0	0	0	0	508	507	0	0	
13	0	0	0	0	516	509	0	0	
14	0	0	0	0	524	509	0	0	
15	0	0	0	0	518	508	0	0	
0	0	0	0	0	512	505	0	0	
1	0	0	0	0	513	506	0	0	
2	0	0	0	0	512	509	0	0	
3	0	0	0	0	509	509	0	0	
4	0	0	0	0	512	510	0	0	
5	0	0	0	0	510	505	0	0	
6	0	0	0	0	508	507	0	0	
7	0	0	0	0	510	508	0	0	
8	0	0	0	0	515	508	0	0	
9	0	0	0	0	513	508	0	0	
10	0	0	0	0	511	511	0	0	
11	0	0	0	0	507	506	0	0	
12	0	0	0	0	508	509	0	0	
13	0	0	0	0	510	507	0	0	
14	0	0	0	0	510	507	0	0	
15	0	0	0	0	512	510	0	0	
0	0	0	0	0	510	508	0	0	
1	0	0	0	0	509	509	0	0	
2	0	0	0	0	513	507	0	0	
3	0	0	0	0	508	508	0	0	
4	0	0	0	0	510	508	0	0	
5	0	0	0	0	507	507	0	0	
6	0	0	0	0	512	510	0	0	
7	0	0	0	0	512	510	0	0	
8	0	0	0	0	510	510	0	0	
9	0	0	0	0	512	506	0	0	
10	0	0	0	0	511	510	0	0	
11	0	0	0	0	516	508	0	0	
12	0	0	0	0	512	508	0	0	
13	0	0	0	0	508	505	0	0	
14	0	0	0	0	509	510	0	0	
15	0	0	0	0	509	508	0	0	
0	0	0	0	0	509	508	0	0	
1	0	0	0	0	511	508	0	0	
2	0	0	0	0	514	508	0	0	
3	0	0	0	0	521	507	0	0	
4	0	0	0	0	516	508	0	0	
5	0	0	0	0	510	508	0	0	
6	0	0	0	0	510	507	0	0	
7	0	0	0	0	508	510	0	0	
8	0	0	0	0	507	508	0	0	
9	0	0	0	0	508	508	0	0	
10	0	0	0	0	510	509	0	0	
11	0	0	0	0	509	508	0	0	
12	0	0	0	0	512	509	0	0	
13	0	0	0	0	514	507	0	0	
14	0	0	0	0	519	505	0	0	
15	0	0	0	0	521	508	0	0	
0	0	0	0	0	512	509	0	0	
1	0	0	0	0	515	510	0	0	
2	0	0	0	0	516	506	0	0	
3	0	0	0	0	512	508	0	0	
4	0	0	0	0	508	507	0	0	
5	0	0	0	0	498	509	0	0	
6	0	0	0	0	511	513	0	0	
7	0	0	0	0	521	509	0	0	
8	0	0	0	0	499	508	0	0	
9	0	0	0	0	511	510	0	0	
10	0	0	0	0	503	510	0	0	
11	0	0	0	0	492	508	0	0	
12	0	0	0	0	508	509	0	0	
13	0	0	0	0	518	506	0	0	
14	0	0	0	0	525	509	0	0	
15	0	0	0	0	511	509	0	0	
0	0	0	0	0	487	511	0	0	
1	0	0	0	0	506	507	0	0	
2	0	0	0	0	506	507	0	0	
3	0	0	0	0	506	508	0	0	
4	0	0	0	0	516	508	0	0	
5	0	0	0	0	519	507	0	0	
6	0	0	0	0	518	507	0	0	
7	0	0	0	0	499	507	0	0	
8	0	0	0	0	507	508	0	0	
9	0	0	0	0	516	508	0	0	
10	0	0	0	0	528	511	0	0	
11	0	0	0	0	534	508	0	0	
12	0	0	0	0	538	504	0	0	
13	0	0	0	0	534	507	0	0	
14	0	0	0	0	518	509	0	0	
15	0	0	0	0	531	508	0	0	
0	0	0	0	0	520	507	0	0	
1	0	0	0	0	509	510	0	0	
2	0	0	0	0	491	508	0	0	
3	0	0	0	0	481	507	0	0	
4	0	0	0	0	477	508	0	0	
5	0	0	0	0	466	509	0	0	
6	0	0	0	0	485	508	0	0	
7	0	0	0	0	532	509	0	0	
8	0	0	0	0	525	509	0	0	
9	0	0	0	0	525	511	0	0	
10	0	0	0	0	494	511	0	0	
11	0	0	0	0	529	506	0	0	
12	0	0	0	0	565	508	0	0	
13	0	0	0	0	514	509	0	0	
14	0	0	0	0	460	510	0	0	
15	0	0	0	0	452	509	0	0	
0	0	0	0	0	479	505	0	0	
1	0	0	0	0	529	505	0	0	
2	0	0	0	0	564	507	0	0	
3	0	0	0	0	546	510	0	0	
4	0	0	0	0	537	510	0	0	
5	0	0	0	0	558	507	0	0	
6	0	0	0	0	492	508	0	0	
7	0	0	0	0	466	511	0	0	
8	0	0	0	0	506	507	0	0	
9	0	0	0	0	519	505	0	0	
10	0	0	0	0	514	505	0	0	
11	0	0	0	0	484	508	0	0	
12	0	0	0	0	497	508	0	0	
13	0	0	0	0	510	509	0	0	
14	0	0	0	0	501	509	0	0	
15	0	0	0	0	537	505	0	0	
0	0	0	0	0	552	506	0	0	
1	0	0	0	0	556	504	0	0	
2	0	0	0	0	547	515	0	0	
3	0	0	0	0	495	517	0	0	
4	0	0	0	0	533	516	0	0	
5	0	0	0	0	481	508	0	0	
6	0	0	0	0	528	496	0	0	
7	0	0	0	0	481	508	20	0	
8	0	0	0	0	434	508	22	0	
9	0	0	0	0	489	512	23	0	
10	0	0	0	0	511	502	36	0	
11	0	0	0	0	544	501	41	0	
12	0	0	0	0	475	507	43	0	
13	0	0	0	0	516	504	44	0	
14	0	0	0	0	539	505	42	0	
15	0	0	0	0	480	509	34	0	
0	0	0	0	0	467	512	33	0	
1	0	0	0	0	473	512	31	0	
2	0	0	0	0	470	517	23	0	
3	0	0	0	0	467	511	5	0	
4	0	0	0	0	560	518	0	0	
5	0	0	0	0	591	525	0	0	
6	0	0	0	0	544	527	0	0	
7	0	0	0	0	578	512	0	0	
8	0	0	0	0	733	503	0	0	
9	0	0	0	0	682	504	0	0	
10	0	0	0	0	542	493	0	0	
11	0	0	0	0	433	490	0	0	
12	0	0	0	0	354	486	0	0	
13	0	0	0	0	283	489	0	0	
14	0	0	0	0	254	508	0	0	
15	0	0	0	0	433	504	0	0	
0	0	0	0	0	524	504	0	0	
1	0	0	0	0	574	513	0	0	
2	0	0	0	0	593	515	0	0	
3	0	0	0	0	589	518	0	0	
4	0	0	0	0	589	517	0	0	
5	0	0	0	0	490	514	0	0	
6	0	0	0	0	556	514	0	0	
7	0	0	0	0	577	509	0	0	
8	0	0	0	0	488	510	0	0	
9	0	0	0	0	548	511	0	0	
10	0	0	0	0	552	510	0	0	
11	0	0	0	0	459	512	0	0	
12	0	0	0	0	423	508	0	0	
13	0	0	0	0	467	506	0	0	
14	0	0	0	0	523	510	0	0	
15	0	0	0	0	550	507	0	0	
0	0	0	0	0	544	506	0	0	
1	0	0	0	0	486	506	0	0	
2	0	0	0	0	371	512	0	0	
3	0	0	0	0	494	511	0	0	
4	0	0	0	0	608	508	0	0	
5	0	0	0	0	748	508	0	0	
6	0	0	0	0	663	509	0	0	
7	0	0	0	0	485	509	0	0	
8	0	0	0	0	406	504	0	0	
9	0	0	0	0	440	497	0	0	
10	0	0	0	0	451	507	0	0	
11	0	0	0	0	443	512	0	0	
12	0	0	0	0	460	503	0	0	
13	0	0	0	0	495	504	0	0	
14	0	0	0	0	496	513	0	0	
15	0	0	0	0	442	519	0	0	
0	0	0	0	0	615	510	0	0	
1	0	0	0	0	559	518	0	0	
2	0	0	0	0	513	517	0	0	
3	0	0	0	0	491	506	0	0	
4	0	0	0	0	454	499	0	0	
5	0	0	0	0	431	507	0	0	
6	0	0	0	0	501	503	0	0	
7	0	0	0	0	548	496	0	0	
8	0	0	0	0	496	496	0	0	
9	0	0	0	0	473	506	0	0	
10	0	0	0	0	604	513	0	0	
11	0	0	0	0	663	516	0	0	
12	0	0	0	0	547	516	0	0	
13	0	0	0	0	568	516	0	0	
14	0	0	0	0	583	510	0	0	
15	0	0	0	0	525	508	0	0	
0	0	0	0	0	410	508	0	0	
1	0	0	0	0	386	515	0	0	
2	0	0	0	0	345	518	0	0	
3	0	0	0	0	487	499	0	0	
4	0	0	0	0	570	497	0	0	
5	0	0	0	0	448	504	0	0	
6	0	0	0	0	491	501	0	0	
7	0	0	0	0	580	498	0	0	
8	0	0	0	0	707	506	0	0	
9	0	0	0	0	641	508	0	0	
10	0	0	0	0	579	524	0	0	
11	0	0	0	0	541	526	0	0	
12	0	0	0	0	286	522	0	0	
13	0	0	0	0	107	510	0	0	
14	0	0	0	0	312	494	0	0	
15	0	0	0	0	530	498	0	0	
0	0	0	0	0	767	500	0	0	
1	0	0	0	0	874	492	0	0	
2	0	0	0	0	639	508	0	0	
3	0	0	0	0	440	520	0	0	
4	0	0	0	0	478	521	0	0	
5	0	0	0	0	451	525	0	0	
6	0	0	0	0	631	505	0	0	
7	0	0	0	0	642	499	0	0	
8	0	0	0	0	447	504	0	0	
9	0	0	0	0	391	499	0	0	
10	0	0	0	0	361	503	0	0	
11	0	0	0	0	505	511	0	0	
12	0	0	0	0	527	516	0	0	
13	0	0	0	0	467	513	0	0	
14	0	0	0	0	511	507	0	0	
15	0	0	0	0	529	499	0	0	
0	0	0	0	0	485	496	0	0	
1	0	0	0	0	536	505	0	0	
2	0	0	0	0	455	508	0	0	
3	0	0	0	0	416	518	0	0	
4	0	0	0	0	602	519	0	0	
5	0	0	0	0	686	518	0	0	
6	0	0	0	0	305	525	0	0	
7	0	0	0	0	557	518	0	0	
8	0	0	0	0	590	510	0	0	
9	0	0	0	0	503	514	0	0	
10	0	0	0	0	481	508	0	0	
11	0	0	0	0	490	487	0	0	
12	0	0	0	0	579	489	0	0	
13	0	0	0	0	579	481	0	0	
14	0	0	0	0	435	495	0	0	
15	0	0	0	0	398	502	0	0	
0	0	0	0	0	443	503	0	0	
1	0	0	0	0	485	522	0	0	
2	0	0	0	0	691	524	0	0	
3	0	0	0	0	606	526	0	0	
4	0	0	0	0	505	512	0	0	
5	0	0	0	0	465	504	0	0	
6	0	0	0	0	420	502	0	0	
7	0	0	0	0	392	504	0	0	
8	0	0	0	0	499	506	0	0	
9	0	0	0	0	598	505	0	0	
10	0	0	0	0	553	518	0	0	
11	0	0	0	0	415	524	0	0	
12	0	0	0	0	428	515	0	0	
13	0	0	0	0	603	500	0	0	
14	0	0	0	0	753	505	0	0	
15	0	0	0	0	615	513	0	0	
0	0	0	0	0	424	520	0	0	
1	0	0	0	0	512	506	0	0	
2	0	0	0	0	597	507	0	0	
3	0	0	0	0	529	523	0	0	
4	0	0	0	0	578	509	0	0	
5	0	0	0	0	494	481	0	0	
6	0	0	0	0	424	491	0	0	
7	0	0	0	0	455	496	0	0	
8	0	0	0	0	425	502	0	0	
9	0	0	0	0	523	499	0	0	
10	0	0	0	0	555	511	0	0	
11	0	0	0	0	300	540	0	0	
12	0	0	0	0	378	519	0	0	
13	0	0	0	0	417	508	0	0	
14	0	0	0	0	431	506	0	0	
15	0	0	0	0	527	509	0	0	
0	0	0	0	0	741	513	0	0	
1	0	0	0	0	615	515	0	0	
2	0	0	0	0	833	509	0	0	
3	0	0	0	0	565	499	0	0	
4	0	0	0	0	355	502	0	0	
5	0	0	0	0	344	494	0	0	
6	0	0	0	0	400	496	0	0	
7	0	0	0	0	472	502	0	0	
8	0	0	0	0	497	508	0	0	
9	0	0	0	0	470	515	0	0	
10	0	0	0	0	600	522	0	0	
11	0	0	0	0	537	524	0	0	
12	0	0	0	0	462	512	0	0	
13	0	0	0	0	453	506	0	0	
14	0	0	0	0	467	512	0	0	
15	0	0	0	0	643	518	0	0	
0	0	0	0	0	775	535	0	0	
1	0	0	0	0	698	538	0	0	
2	0	0	0	0	596	518	0	0	
3	0	0	0	0	504	494	0	0	
4	0	0	0	0	484	484	0	0	
5	0	0	0	0	560	473	0	0	
6	0	0	0	0	486	488	0	0	
7	0	0	0	0	273	481	0	0	
8	0	0	0	0	305	485	0	0	
9	0	0	0	0	382	507	0	0	
10	0	0	0	0	406	505	0	0	
11	0	0	0	0	526	516	0	0	
12	0	0	0	0	613	517	0	0	
13	0	0	0	0	662	522	0	0	
14	0	0	0	0	386	540	0	0	
15	0	0	0	0	436	513	20	0	
0	0	0	0	0	631	511	22	0	
1	0	0	0	0	598	505	25	0	
2	0	0	0	0	459	500	29	0	
3	0	0	0	0	510	505	31	0	
4	0	0	0	0	531	514	31	0	
5	0	0	0	0	600	519	35	0	
6	0	0	0	0	639	510	39	0	
7	0	0	0	0	535	504	43	0	
8	0	0	0	0	359	499	45	0	
9	0	0	0	0	385	496	52	0	
10	0	0	0	0	739	506	63	0	
11	0	0	0	0	610	503	63	0	
12	0	0	0	0	450	498	65	0	
13	0	0	0	0	518	520	68	0	
14	0	0	0	0	786	533	71	0	
15	0	0	0	0	648	525	75	0	
0	0	0	0	0	236	520	76	0	
1	0	0	0	0	178	500	79	0	
2	0	0	0	0	355	496	80	0	
3	0	0	0	0	506	498	82	0	
4	0	0	0	0	545	505	84	0	
5	0	0	0	0	483	511	88	0	
6	0	0	0	0	600	517	93	0	
7	0	0	0	0	591	504	93	0	
8	0	0	0	0	564	502	94	0	
9	0	0	0	0	493	504	96	0	
10	0	0	0	0	628	503	97	0	
11	0	0	0	0	508	499	102	0	
12	0	0	0	0	493	513	103	0	
13	0	0	0	0	437	540	107	0	
14	0	0	0	0	464	540	110	0	
15	0	0	0	0	540	518	112	0	
0	0	0	0	0	463	511	109	0	
1	0	0	0	0	322	492	111	0	
2	0	0	0	0	359	494	112	0	
3	0	0	0	0	562	499	114	0	
4	0	0	0	0	755	500	115	0	
5	0	0	0	0	844	488	131	0	
6	0	0	0	0	582	486	131	0	
7	0	0	0	0	432	490	135	0	
8	0	0	0	0	195	512	143	0	
9	0	0	0	0	564	524	144	0	
10	0	0	0	0	739	515	146	0	
11	0	0	0	0	507	513	153	0	
12	0	0	0	0	350	508	152	0	
13	0	0	0	0	519	499	159	0	
14	0	0	0	0	630	506	156	0	
15	0	0	0	0	446	517	158	0	
0	0	0	0	0	393	521	162	0	
1	0	0	0	0	595	524	171	0	
2	0	0	0	0	522	521	182	0	
3	0	0	0	0	400	500	195	0	
4	0	0	0	0	250	503	201	0	
5	0	0	0	0	391	507	204	0	
6	0	0	0	0	553	512	207	0	
7	0	0	0	0	687	526	210	0	
8	0	0	0	0	685	510	213	0	
9	0	0	0	0	577	499	214	0	
10	0	0	0	0	537	492	216	0	
11	0	0	0	0	485	503	217	0	
12	0	0	0	0	480	505	218	0	
13	0	0	0	0	423	500	223	0	
14	0	0	0	0	575	504	229	0	
15	0	0	0	0	558	503	230	0	
0	0	0	0	0	558	515	232	0	
1	0	0	0	0	508	519	232	0	
2	0	0	0	0	532	517	232	0	
3	0	0	0	0	489	513	231	0	
4	0	0	0	0	528	514	234	0	
5	0	0	0	0	524	512	234	0	
6	0	0	0	0	519	509	236	0	
7	0	0	0	0	398	505	238	0	
8	0	0	0	0	465	501	238	0	
9	0	0	0	0	490	515	236	0	
10	0	0	0	0	553	516	238	0	
11	0	0	0	0	792	515	238	0	
12	0	0	0	0	515	500	237	0	
13	0	0	0	0	423	496	239	0	
14	0	0	0	0	137	504	240	0	
15	0	0	0	0	332	493	238	0	
0	0	0	0	0	508	486	241	0	
1	0	0	0	0	800	505	241	0	
2	0	0	0	0	651	532	241	0	
3	0	0	0	0	453	536	242	0	
4	0	0	0	0	468	520	242	0	
5	0	0	0	0	427	494	245	0	
6	0	0	0	0	319	493	249	0	
7	0	0	0	0	426	496	249	0	
8	0	0	0	0	514	523	252	0	
9	0	0	0	0	753	512	251	0	
10	0	0	0	0	732	508	249	0	
11	0	0	0	0	575	503	250	0	
12	0	0	0	0	440	499	252	0	
13	0	0	0	0	463	503	255	0	
14	0	0	0	0	651	511	256	0	
15	0	0	0	0	646	508	257	0	
0	0	0	0	0	517	500	259	0	
1	0	0	0	0	390	515	260	0	
2	0	0	0	0	406	527	260	0	
3	0	0	0	0	370	520	260	1	
4	0	0	0	0	442	507	261	4	
5	0	0	0	0	516	504	262	2	
6	0	0	0	0	552	516	264	4	
7	0	0	0	0	536	513	263	4	
8	0	0	0	0	562	505	263	3	
9	0	0	0	0	426	497	263	3	
10	0	0	0	0	472	498	263	2	
11	0	0	0	0	545	507	263	3	
12	0	0	0	0	546	506	263	2	
13	0	0	0	0	502	512	263	4	
14	0	0	0	0	467	514	263	4	
15	0	0	0	0	514	514	260	3	
0	0	0	0	0	563	499	258	3	
1	0	0	0	0	450	495	257	3	
2	0	0	0	0	379	509	258	4	
3	0	0	0	0	536	511	257	4	
4	0	0	0	0	636	515	257	5	
5	0	0	0	0	687	512	255	6	
6	0	0	0	0	557	508	256	6	
7	0	0	0	0	450	515	256	9	
8	0	0	0	0	385	510	258	13	
9	0	0	0	0	503	497	260	17	
10	0	0	0	0	684	504	259	16	
11	0	0	0	0	400	498	259	14	
12	0	0	0	0	305	504	260	16	
13	0	0	0	0	405	510	260	17	
14	0	0	0	0	495	507	260	16	
15	0	0	0	0	737	507	262	19	
0	0	0	0	0	593	512	261	17	
1	0	0	0	0	507	518	261	23	
2	0	0	0	0	514	522	260	19	
3	0	0	0	0	427	507	261	18	
4	0	0	0	0	494	505	261	20	
5	0	0	0	0	539	508	260	20	
6	0	0	0	0	585	505	262	21	
7	0	0	0	0	583	508	263	21	
8	0	0	0	0	522	504	263	22	
9	0	0	0	0	622	511	263	23	
10	0	0	0	0	401	520	262	21	
11	0	0	0	0	425	511	263	21	
12	0	0	0	0	399	500	261	22	
13	0	0	0	0	472	493	261	20	
14	0	0	0	0	575	499	262	21	
15	0	0	0	0	622	509	262	23	
0	0	0	0	0	667	513	264	23	
1	0	0	0	0	583	519	265	23	
2	0	0	0	0	300	508	266	24	
3	0	0	0	0	344	498	267	23	
4	0	0	0	0	349	520	267	24	
5	0	0	0	0	551	515	267	23	
6	0	0	0	0	678	501	268	27	
7	0	0	0	0	632	505	266	25	
8	0	0	0	0	634	505	268	27	
9	0	0	0	0	371	510	270	28	
10	0	0	0	0	335	518	271	33	
11	0	0	0	0	441	513	271	28	
12	0	0	0	0	525	510	271	30	
13	0	0	0	0	555	514	270	30	
14	0	0	0	0	604	512	270	34	
15	0	0	0	0	540	508	271	35	
0	0	0	0	0	496	508	271	37	
1	0	0	0	0	430	506	272	38	
2	0	0	0	0	552	505	271	39	
3	0	0	0	0	521	499	272	39	
4	0	0	0	0	532	504	272	40	
5	0	0	0	0	508	510	274	39	
6	0	0	0	0	563	519	274	41	
7	0	0	0	0	586	511	276	41	
8	0	0	0	0	494	495	274	39	
9	0	0	0	0	405	501	275	40	
10	0	0	0	0	364	510	274	39	
11	0	0	0	0	514	505	273	41	
12	0	0	0	0	653	495	275	41	
13	0	0	0	0	563	504	274	41	
14	0	0	0	0	498	499	275	41	
15	0	0	0	0	448	508	273	43	
0	0	0	0	0	409	519	273	43	
1	0	0	0	0	545	519	273	45	
2	0	0	0	0	664	521	274	45	
3	0	0	0	0	530	506	274	46	
4	0	0	0	0	427	507	275	44	
5	0	0	0	0	455	490	274	43	
6	0	0	0	0	575	510	274	43	
7	0	0	0	0	572	519	274	43	
8	0	0	0	0	625	505	275	42	
9	0	0	0	0	582	509	278	43	
10	0	0	0	0	476	512	277	42	
11	0	0	0	0	435	511	276	43	
12	0	0	0	0	451	516	277	43	
13	0	0	0	0	464	513	276	41	
14	0	0	0	0	490	512	278	41	
15	0	0	0	0	521	503	278	41	
0	0	0	0	0	584	510	278	41	
1	0	0	0	0	516	510	279	42	
2	0	0	0	0	430	501	278	44	
3	0	0	0	0	432	492	278	46	
4	0	0	0	0	518	501	278	45	
5	0	0	0	0	568	503	277	45	
6	0	0	0	0	629	505	278	43	
7	0	0	0	0	626	507	279	44	
8	0	0	0	0	531	516	278	41	
9	0	0	0	0	287	518	279	42	
10	0	0	0	0	436	522	279	39	
11	0	0	0	0	559	523	280	39	
12	0	0	0	0	571	511	280	41	
13	0	0	0	0	547	500	280	39	
14	0	0	0	0	509	493	281	39	
15	0	0	0	0	508	488	281	39	
0	0	0	0	0	452	491	281	39	
1	0	0	0	0	493	500	282	40	
2	0	0	0	0	461	524	281	40	
3	0	0	0	0	505	523	280	40	
4	0	0	0	0	526	517	280	40	
5	0	0	0	0	475	515	281	40	
6	0	0	0	0	596	504	280	40	
7	0	0	0	0	509	507	280	39	
8	0	0	0	0	585	506	280	39	
9	0	0	0	0	608	507	280	39	
10	0	0	0	0	429	507	280	37	
11	0	0	0	0	414	517	281	42	
12	0	0	0	0	512	511	283	44	
13	0	0	0	0	606	507	283	40	
14	0	0	0	0	551	504	282	38	
15	0	0	0	0	520	509	282	57	
0	0	0	0	0	487	511	283	62	
1	0	0	0	0	477	501	283	44	
2	0	0	0	0	509	503	284	44	
3	0	0	0	0	461	510	285	54	
4	0	0	0	0	543	509	284	54	
5	0	0	0	0	562	498	284	56	
6	0	0	0	0	463	499	283	59	
7	0	0	0	0	503	512	283	59	
8	0	0	0	0	579	516	283	58	
9	0	0	0	0	518	517	284	57	
10	0	0	0	0	439	517	284	58	
11	0	0	0	0	421	506	283	55	
12	0	0	0	0	588	504	283	58	
13	0	0	0	0	471	501	283	57	
14	0	0	0	0	385	507	282	56	
15	0	0	0	0	442	518	282	52	
0	0	0	0	0	658	519	281	52	
1	0	0	0	0	575	511	281	47	
2	0	0	0	0	544	501	281	41	
3	0	0	0	0	513	503	281	41	
4	0	0	0	0	486	501	281	38	
5	0	0	0	0	395	497	281	38	
6	0	0	0	0	534	505	280	38	
7	0	0	0	0	529	513	278	38	
8	0	0	0	0	414	519	277	38	
9	0	0	0	0	420	518	276	36	
10	0	0	0	0	569	511	276	38	
11	0	0	0	0	625	508	277	51	
12	0	0	0	0	685	503	277	53	
13	0	0	0	0	524	515	277	50	
14	0	0	0	0	516	518	277	51	
15	0	0	0	0	446	499	277	51	
0	0	0	0	0	416	498	277	53	
1	0	0	0	0	571	504	277	51	
2	0	0	0	0	516	497	276	50	
3	0	0	0	0	472	504	277	47	
4	0	0	0	0	506	510	277	43	
5	0	0	0	0	511	509	277	43	
6	0	0	0	0	522	502	277	41	
7	0	0	0	0	508	506	277	42	
8	0	0	0	0	566	508	277	42	
9	0	0	0	0	561	511	278	40	
10	0	0	0	0	511	509	279	42	
11	0	0	0	0	456	510	278	42	
12	0	0	0	0	512	518	278	43	
13	0	0	0	0	625	512	278	43	
14	0	0	0	0	467	506	278	46	
15	0	0	0	0	259	501	279	45	
0	0	0	0	0	303	504	280	45	
1	0	0	0	0	647	508	279	41	
2	0	0	0	0	651	508	280	40	
3	0	0	0	0	561	521	281	39	
4	0	0	0	0	475	528	282	40	
5	0	0	0	0	505	517	281	39	
6	0	0	0	0	516	511	282	39	
7	0	0	0	0	459	508	283	41	
8	0	0	0	0	471	510	283	40	
9	0	0	0	0	558	504	282	39	
10	0	0	0	0	556	496	283	39	
11	0	0	0	0	571	502	283	39	
12	0	0	0	0	528	493	283	39	
13	0	0	0	0	606	492	287	37	
14	0	0	0	0	579	517	287	38	
15	0	0	0	0	451	515	286	38	
0	0	0	0	0	347	504	285	38	
1	0	0	0	0	456	512	286	38	
2	0	0	0	0	601	507	286	37	
3	0	0	0	0	657	511	286	37	
4	0	0	0	0	565	509	286	38	
5	0	0	0	0	481	514	286	36	
6	0	0	0	0	504	515	286	38	
7	0	0	0	0	467	510	284	37	
8	0	0	0	0	386	513	286	37	
9	0	0	0	0	295	516	285	37	
10	0	0	0	0	474	511	284	37	
11	0	0	0	0	500	500	285	38	
12	0	0	0	0	518	501	283	38	
13	0	0	0	0	590	496	284	38	
14	0	0	0	0	513	502	284	38	
15	0	0	0	0	431	504	284	38	
0	0	0	0	0	504	506	283	38	
1	0	0	0	0	525	517	283	39	
2	0	0	0	0	620	512	283	38	
3	0	0	0	0	645	508	282	38	
4	0	0	0	0	465	512	280	36	
5	0	0	0	0	480	512	280	36	
6	0	0	0	0	560	514	279	35	
7	0	0	0	0	513	516	280	35	
8	0	0	0	0	598	520	280	36	
9	0	0	0	0	531	515	280	35	
10	0	0	0	0	482	509	279	35	
11	0	0	0	0	473	499	280	35	
12	0	0	0	0	476	495	280	35	
13	0	0	0	0	543	500	280	36	
14	0	0	0	0	572	493	280	37	
15	0	0	0	0	536	490	280	38	
0	0	0	0	0	309	514	279	37	
1	0	0	0	0	474	519	279	37	
2	0	0	0	0	663	517	279	36	
3	0	0	0	0	612	521	278	38	
4	0	0	0	0	462	520	279	37	
5	0	0	0	0	448	504	279	35	
6	0	0	0	0	542	506	279	35	
7	0	0	0	0	515	505	279	33	
8	0	0	0	0	503	504	278	36	
9	0	0	0	0	491	500	279	33	
10	0	0	0	0	464	505	280	33	
11	0	0	0	0	535	517	282	33	
12	0	0	0	0	550	520	283	33	
13	0	0	0	0	443	517	281	33	
14	0	0	0	0	485	505	281	31	
15	0	0	0	0	523	505	281	31	
0	0	0	0	0	563	499	280	31	
1	0	0	0	0	481	499	280	31	
2	0	0	0	0	587	497	280	29	
3	0	0	0	0	468	504	281	30	
4	0	0	0	0	504	523	282	31	
5	0	0	0	0	407	517	282	29	
6	0	0	0	0	481	501	282	30	
7	0	0	0	0	513	503	283	29	
8	0	0	0	0	553	504	281	27	
9	0	0	0	0	515	510	281	26	
10	0	0	0	0	582	512	283	25	
11	0	0	0	0	635	506	283	24	
12	0	0	0	0	585	500	281	24	
13	0	0	0	0	444	500	282	23	
14	0	0	0	0	434	505	282	23	
15	0	0	0	0	478	516	283	23	
0	0	0	0	0	497	512	284	22	
1	0	0	0	0	550	515	283	21	
2	0	0	0	0	555	507	284	19	
3	0	0	0	0	608	500	284	20	
4	0	0	0	0	602	512	284	18	
5	0	0	0	0	449	515	284	18	
6	0	0	0	0	363	508	284	18	
7	0	0	0	0	378	516	284	17	
8	0	0	0	0	471	518	285	17	
9	0	0	0	0	598	508	286	16	
10	0	0	0	0	588	498	284	14	
11	0	0	0	0	527	503	283	13	
12	0	0	0	0	489	508	281	12	
13	0	0	0	0	540	502	280	12	
14	0	0	0	0	539	505	279	12	
15	0	0	0	0	383	513	278	11	
0	0	0	0	0	453	515	278	9	
1	0	0	0	0	483	510	278	7	
2	0	0	0	0	536	505	276	7	
3	0	0	0	0	543	508	276	6	
4	0	0	0	0	569	509	276	4	
5	0	0	0	0	600	513	274	2	
6	0	0	0	0	570	510	273	0	
7	0	0	0	0	539	497	272	0	
8	0	0	0	0	448	503	272	0	
9	0	0	0	0	310	508	271	0	
10	0	0	0	0	402	513	273	0	
11	0	0	0	0	575	508	273	0	
12	0	0	0	0	637	506	271	1	
13	0	0	0	0	490	515	273	0	
14	0	0	0	0	419	506	273	0	
15	0	0	0	0	637	508	274	0	
0	0	0	0	0	625	513	274	0	
1	0	0	0	0	543	512	274	0	
2	0	0	0	0	504	497	275	0	
3	0	0	0	0	509	503	275	0	
4	0	0	0	0	482	511	275	0	
5	0	0	0	0	478	507	274	0	
6	0	0	0	0	524	508	275	0	
7	0	0	0	0	520	509	275	0	
8	0	0	0	0	567	512	275	0	
9	0	0	0	0	476	511	275	0	
10	0	0	0	0	499	511	273	0	
11	0	0	0	0	479	509	273	0	
12	0	0	0	0	528	515	272	0	
13	0	0	0	0	575	513	272	0	
14	0	0	0	0	388	509	270	0	
15	0	0	0	0	486	508	270	0	
0	0	0	0	0	511	499	270	0	
1	0	0	0	0	517	495	271	0	
2	0	0	0	0	511	501	272	0	
3	0	0	0	0	455	512	273	0	
4	0	0	0	0	483	509	273	0	
5	0	0	0	0	441	512	273	0	
6	0	0	0	0	556	505	273	0	
7	0	0	0	0	667	497	271	0	
8	0	0	0	0	726	511	267	0	
9	0	0	0	0	573	524	263	0	
10	0	0	0	0	337	519	260	0	
11	0	0	0	0	374	513	260	0	
12	0	0	0	0	473	503	259	0	
13	0	0	0	0	462	509	257	0	
14	0	0	0	0	524	505	257	0	
15	0	0	0	0	537	502	255	0	
0	0	0	0	0	501	499	255	0	
1	0	0	0	0	569	498	255	0	
2	0	0	0	0	545	506	254	0	
3	0	0	0	0	496	510	253	0	
4	0	0	0	0	525	511	253	0	
5	0	0	0	0	467	518	252	0	
6	0	0	0	0	449	510	252	0	
7	0	0	0	0	489	504	250	0	
8	0	0	0	0	647	506	252	0	
9	0	0	0	0	593	503	250	1	
10	0	0	0	0	415	513	248	0	
11	0	0	0	0	552	513	249	0	
12	0	0	0	0	609	506	248	0	
13	0	0	0	0	469	509	247	0	
14	0	0	0	0	535	503	247	0	
15	0	0	0	0	580	502	246	0	
0	0	0	0	0	590	504	245	0	
1	0	0	0	0	391	513	246	0	
2	0	0	0	0	432	514	246	0	
3	0	0	0	0	427	516	245	0	
4	0	0	0	0	481	510	245	0	
5	0	0	0	0	485	513	245	0	
6	0	0	0	0	477	509	243	0	
7	0	0	0	0	576	508	243	0	
8	0	0	0	0	664	507	244	0	
9	0	0	0	0	540	510	244	0	
10	0	0	0	0	455	513	243	0	
11	0	0	0	0	447	511	243	0	
12	0	0	0	0	588	514	242	0	
13	0	0	0	0	487	512	241	0	
14	0	0	0	0	517	506	242	0	
15	0	0	0	0	511	499	241	0	
0	0	0	0	0	543	507	241	0	
1	0	0	0	0	487	503	240	0	
2	0	0	0	0	486	506	241	0	
3	0	0	0	0	538	497	240	0	
4	0	0	0	0	447	503	240	0	
5	0	0	0	0	527	505	240	0	
6	0	0	0	0	596	500	240	0	
7	0	0	0	0	480	512	240	0	
8	0	0	0	0	504	510	240	0	
9	0	0	0	0	534	527	239	0	
10	0	0	0	0	411	527	239	0	
11	0	0	0	0	437	512	238	0	
12	0	0	0	0	583	506	238	0	
13	0	0	0	0	532	499	235	0	
14	0	0	0	0	486	500	236	0	
15	0	0	0	0	531	504	235	0	
0	0	0	0	0	564	504	236	0	
1	0	0	0	0	640	514	236	0	
2	0	0	0	0	615	516	234	0	
3	0	0	0	0	425	517	232	0	
4	0	0	0	0	465	508	233	0	
5	0	0	0	0	515	504	231	0	
6	0	0	0	0	480	494	231	0	
7	0	0	0	0	481	494	232	0	
8	0	0	0	0	490	501	230	0	
9	0	0	0	0	462	510	231	0	
10	0	0	0	0	496	513	229	0	
11	0	0	0	0	546	514	228	0	
12	0	0	0	0	548	509	226	0	
13	0	0	0	0	539	502	227	0	
14	0	0	0	0	528	506	228	0	
15	0	0	0	0	305	515	227	0	
0	0	0	0	0	417	511	228	0	
1	0	0	0	0	625	511	227	0	
2	0	0	0	0	586	517	229	0	
3	0	0	0	0	556	517	228	0	
4	0	0	0	0	600	514	229	0	
5	0	0	0	0	556	511	229	0	
6	0	0	0	0	506	511	230	0	
7	0	0	0	0	607	508	229	0	
8	0	0	0	0	584	515	229	0	
9	0	0	0	0	497	507	229	0	
10	0	0	0	0	455	501	230	0	
11	0	0	0	0	477	496	230	0	
12	0	0	0	0	431	496	231	0	
13	0	0	0	0	353	501	231	0	
14	0	0	0	0	472	509	232	0	
15	0	0	0	0	573	502	233	0	
0	0	0	0	0	562	497	233	0	
1	0	0	0	0	446	517	234	0	
2	0	0	0	0	551	531	235	0	
3	0	0	0	0	640	520	235	0	
4	0	0	0	0	506	516	236	0	
5	0	0	0	0	437	504	236	0	
6	0	0	0	0	420	496	238	0	
7	0	0	0	0	445	503	239	0	
8	0	0	0	0	572	496	237	0	
9	0	0	0	0	582	502	239	0	
10	0	0	0	0	509	509	239	0	
11	0	0	0	0	431	499	237	0	
12	0	0	0	0	401	509	239	0	
13	0	0	0	0	514	521	239	0	
14	0	0	0	0	567	514	239	0	
15	0	0	0	0	631	514	239	0	
0	0	0	0	0	489	521	240	0	
1	0	0	0	0	511	518	241	0	
2	0	0	0	0	533	511	242	0	
3	0	0	0	0	505	497	244	0	
4	0	0	0	0	455	497	244	0	
5	0	0	0	0	501	498	245	0	
6	0	0	0	0	575	503	246	0	
7	0	0	0	0	566	508	246	0	
8	0	0	0	0	579	519	248	0	
9	0	0	0	0	561	517	247	0	
10	0	0	0	0	611	508	246	0	
11	0	0	0	0	428	502	248	0	
12	0	0	0	0	352	492	249	0	
13	0	0	0	0	488	496	248	0	
14	0	0	0	0	523	510	250	0	
15	0	0	0	0	532	507	249	0	
0	0	0	0	0	585	502	248	0	
1	0	0	0	0	438	514	249	0	
2	0	0	0	0	412	521	250	0	
3	0	0	0	0	425	515	251	0	
4	0	0	0	0	522	510	251	0	
5	0	0	0	0	510	515	250	0	
6	0	0	0	0	588	514	251	0	
7	0	0	0	0	543	508	250	0	
8	0	0	0	0	473	505	249	0	
9	0	0	0	0	541	502	250	0	
10	0	0	0	0	592	507	250	0	
11	0	0	0	0	501	513	250	0	
12	0	0	0	0	463	513	249	0	
13	0	0	0	0	553	504	250	0	
14	0	0	0	0	564	507	249	0	
15	0	0	0	0	575	508	249	0	
0	0	0	0	0	578	505	250	0	
1	0	0	0	0	495	508	249	0	
2	0	0	0	0	486	507	249	0	
3	0	0	0	0	454	510	249	0	
4	0	0	0	0	514	510	248	0	
5	0	0	0	0	476	508	249	0	
6	0	0	0	0	515	504	248	0	
7	0	0	0	0	508	510	248	0	
8	0	0	0	0	329	502	248	0	
9	0	0	0	0	508	507	247	0	
10	0	0	0	0	533	510	248	0	
11	0	0	0	0	561	510	247	0	
12	0	0	0	0	467	517	247	0	
13	0	0	0	0	480	506	248	0	
14	0	0	0	0	432	501	247	0	
15	0	0	0	0	455	518	246	0	
0	0	0	0	0	620	511	247	0	
1	0	0	0	0	681	506	246	0	
2	0	0	0	0	513	513	244	0	
3	0	0	0	0	514	503	244	0	
4	0	0	0	0	646	502	246	0	
5	0	0	0	0	556	512	246	0	
6	0	0	0	0	527	518	247	0	
7	0	0	0	0	538	515	247	0	
8	0	0	0	0	511	511	247	0	
9	0	0	0	0	335	518	247	0	
10	0	0	0	0	259	505	248	0	
11	0	0	0	0	468	482	248	0	
12	0	0	0	0	595	489	248	0	
13	0	0	0	0	662	494	247	0	
14	0	0	0	0	468	499	247	0	
15	0	0	0	0	484	519	246	0	
0	0	0	0	0	553	529	246	0	
1	0	0	0	0	619	521	246	0	
2	0	0	0	0	495	519	246	0	
3	0	0	0	0	491	514	246	0	
4	0	0	0	0	498	514	246	0	
5	0	0	0	0	431	503	248	0	
6	0	0	0	0	457	499	248	0	
7	0	0	0	0	667	494	249	0	
8	0	0	0	0	636	507	248	0	
9	0	0	0	0	484	515	250	0	
10	0	0	0	0	455	512	250	0	
11	0	0	0	0	574	504	250	0	
12	0	0	0	0	607	494	250	0	
13	0	0	0	0	460	499	251	0	
14	0	0	0	0	248	515	251	0	
15	0	0	0	0	369	523	253	0	
0	0	0	0	0	419	506	252	0	
1	0	0	0	0	563	508	250	0	
2	0	0	0	0	578	517	252	0	
3	0	0	0	0	570	507	254	0	
4	0	0	0	0	611	501	254	0	
5	0	0	0	0	530	513	254	0	
6	0	0	0	0	424	521	253	0	
7	0	0	0	0	366	517	254	0	
8	0	0	0	0	563	516	255	0	
9	0	0	0	0	575	514	255	0	
10	0	0	0	0	628	511	256	0	
11	0	0	0	0	550	497	256	0	
12	0	0	0	0	656	480	257	0	
13	0	0	0	0	440	491	256	0	
14	0	0	0	0	486	496	258	0	
15	0	0	0	0	557	499	262	0	
0	0	0	0	0	470	506	263	0	
1	0	0	0	0	519	505	266	0	
2	0	0	0	0	534	510	268	0	
3	0	0	0	0	560	520	270	0	
4	0	0	0	0	606	521	271	0	
5	0	0	0	0	508	518	273	0	
6	0	0	0	0	348	526	274	0	
7	0	0	0	0	457	524	275	1	
8	0	0	0	0	445	522	274	0	
9	0	0	0	0	401	512	275	0	
10	0	0	0	0	457	507	273	0	
11	0	0	0	0	434	502	275	0	
12	0	0	0	0	530	505	274	0	
13	0	0	0	0	665	500	273	0	
14	0	0	0	0	558	492	273	0	
15	0	0	0	0	556	484	273	0	
0	0	0	0	0	515	496	273	0	
1	0	0	0	0	529	508	273	0	
2	0	0	0	0	453	510	273	0	
3	0	0	0	0	557	513	273	0	
4	0	0	0	0	419	508	272	0	
5	0	0	0	0	452	511	270	0	
6	0	0	0	0	486	515	268	0	
7	0	0	0	0	533	515	267	0	
8	0	0	0	0	774	505	267	0	
9	0	0	0	0	598	506	261	0	
10	0	0	0	0	397	509	260	0	
11	0	0	0	0	378	511	258	0	
12	0	0	0	0	531	518	258	0	
13	0	0	0	0	387	528	256	0	
14	0	0	0	0	516	505	257	0	
15	0	0	0	0	436	500	256	0	
0	0	0	0	0	407	503	255	0	
1	0	0	0	0	328	519	257	0	
2	0	0	0	0	801	514	258	0	
3	0	0	0	0	835	510	257	0	
4	0	0	0	0	564	504	259	0	
5	0	0	0	0	492	501	258	1	
6	0	0	0	0	526	510	261	0	
7	0	0	0	0	515	509	260	0	
8	0	0	0	0	530	499	259	0	
9	0	0	0	0	488	505	259	0	
10	0	0	0	0	479	505	259	0	
11	0	0	0	0	551	512	259	0	
12	0	0	0	0	538	515	259	0	
13	0	0	0	0	486	515	258	0	
14	0	0	0	0	435	503	259	0	
15	0	0	0	0	509	495	258	0	
0	0	0	0	0	483	500	258	0	
1	0	0	0	0	453	510	259	0	
2	0	0	0	0	440	519	259	0	
3	0	0	0	0	482	515	259	0	
4	0	0	0	0	521	512	259	0	
5	0	0	0	0	506	508	260	0	
6	0	0	0	0	526	499	260	0	
7	0	0	0	0	508	503	259	0	
8	0	0	0	0	470	497	259	0	
9	0	0	0	0	490	495	259	0	
10	0	0	0	0	534	509	260	0	
11	0	0	0	0	562	515	259	0	
12	0	0	0	0	573	510	259	0	
13	0	0	0	0	489	503	260	0	
14	0	0	0	0	516	512	261	0	
15	0	0	0	0	559	515	261	0	
0	0	0	0	0	447	513	261	0	
1	0	0	0	0	447	500	261	0	
2	0	0	0	0	543	503	263	0	
3	0	0	0	0	564	517	263	0	
4	0	0	0	0	499	516	263	0	
5	0	0	0	0	490	507	263	0	
6	0	0	0	0	558	504	263	0	
7	0	0	0	0	646	504	264	0	
8	0	0	0	0	564	505	263	0	
9	0	0	0	0	406	515	264	0	
10	0	0	0	0	452	518	264	0	
11	0	0	0	0	580	510	264	0	
12	0	0	0	0	467	510	264	0	
13	0	0	0	0	462	504	264	0	
14	0	0	0	0	542	506	263	0	
15	0	0	0	0	609	502	264	0	
0	0	0	0	0	513	506	263	0	
1	0	0	0	0	454	513	264	0	
2	0	0	0	0	453	511	264	1	
3	0	0	0	0	412	509	264	0	
4	0	0	0	0	426	506	264	0	
5	0	0	0	0	527	507	264	0	
6	0	0	0	0	531	512	264	0	
7	0	0	0	0	532	510	264	0	
8	0	0	0	0	506	503	264	0	
9	0	0	0	0	472	495	261	0	
10	0	0	0	0	451	498	260	0	
11	0	0	0	0	592	495	260	0	
12	0	0	0	0	628	501	260	0	
13	0	0	0	0	571	517	259	0	
14	0	0	0	0	426	526	257	0	
15	0	0	0	0	481	528	257	0	
0	0	0	0	0	558	518	257	0	
1	0	0	0	0	533	505	257	0	
2	0	0	0	0	585	502	257	0	
3	0	0	0	0	545	500	255	0	
4	0	0	0	0	445	510	255	0	
5	0	0	0	0	468	516	254	0	
6	0	0	0	0	503	514	252	0	
7	0	0	0	0	529	504	252	0	
8	0	0	0	0	429	506	251	0	
9	0	0	0	0	685	507	251	0	
10	0	0	0	0	590	506	250	0	
11	0	0	0	0	323	513	250	0	
12	0	0	0	0	470	504	247	0	
13	0	0	0	0	574	503	245	0	
14	0	0	0	0	573	511	243	0	
15	0	0	0	0	473	519	240	0	
0	0	0	0	0	424	513	239	0	
1	0	0	0	0	445	502	237	0	
2	0	0	0	0	488	491	237	0	
3	0	0	0	0	485	493	234	0	
4	0	0	0	0	531	500	234	0	
5	0	0	0	0	511	505	235	0	
6	0	0	0	0	518	511	236	0	
7	0	0	0	0	516	511	236	0	
8	0	0	0	0	574	511	238	0	
9	0	0	0	0	575	513	240	0	
10	0	0	0	0	513	508	240	0	
11	0	0	0	0	458	511	241	0	
12	0	0	0	0	509	514	243	0	
13	0	0	0	0	578	517	243	0	
14	0	0	0	0	471	515	245	0	
15	0	0	0	0	486	508	246	1	
0	0	0	0	0	510	508	246	0	
1	0	0	0	0	500	509	247	0	
2	0	0	0	0	553	513	248	0	
3	0	0	0	0	523	518	248	0	
4	0	0	0	0	508	507	249	0	
5	0	0	0	0	517	507	249	0	
6	0	0	0	0	528	497	249	0	
7	0	0	0	0	525	499	250	0	
8	0	0	0	0	517	510	251	0	
9	0	0	0	0	483	513	250	0	
10	0	0	0	0	531	515	251	0	
11	0	0	0	0	558	509	251	0	
12	0	0	0	0	552	505	251	0	
13	0	0	0	0	466	507	250	0	
14	0	0	0	0	472	499	250	0	
15	0	0	0	0	515	503	248	0	
0	0	0	0	0	531	508	248	0	
1	0	0	0	0	478	509	247	0	
2	0	0	0	0	460	507	246	0	
3	0	0	0	0	502	508	246	0	
4	0	0	0	0	491	502	246	0	
5	0	0	0	0	483	509	246	0	
6	0	0	0	0	559	528	247	0	
7	0	0	0	0	621	519	245	0	
8	0	0	0	0	394	505	245	0	
9	0	0	0	0	428	497	243	0	
10	0	0	0	0	559	506	243	0	
11	0	0	0	0	566	508	241	0	
12	0	0	0	0	554	504	242	0	
13	0	0	0	0	502	512	242	0	
14	0	0	0	0	493	512	241	0	
15	0	0	0	0	511	519	241	0	
0	0	0	0	0	604	509	241	0	
1	0	0	0	0	579	503	241	0	
2	0	0	0	0	439	510	240	0	
3	0	0	0	0	449	512	240	0	
4	0	0	0	0	568	511	240	0	
5	0	0	0	0	595	512	240	0	
6	0	0	0	0	509	511	240	0	
7	0	0	0	0	511	500	241	0	
8	0	0	0	0	452	506	241	0	
9	0	0	0	0	446	500	240	0	
10	0	0	0	0	424	503	238	0	
11	0	0	0	0	481	504	238	0	
12	0	0	0	0	491	503	237	0	
13	0	0	0	0	566	502	236	0	
14	0	0	0	0	596	509	236	0	
15	0	0	0	0	599	511	236	0	
0	0	0	0	0	459	511	236	0	
1	0	0	0	0	390	514	236	0	
2	0	0	0	0	437	519	236	0	
3	0	0	0	0	500	512	236	0	
4	0	0	0	0	564	506	236	0	
5	0	0	0	0	592	509	236	0	
6	0	0	0	0	586	505	236	0	
7	0	0	0	0	547	505	235	0	
8	0	0	0	0	405	510	235	0	
9	0	0	0	0	313	511	233	0	
10	0	0	0	0	434	506	234	0	
11	0	0	0	0	531	499	234	0	
12	0	0	0	0	644	507	233	0	
13	0	0	0	0	658	518	234	0	
14	0	0	0	0	574	520	234	0	
15	0	0	0	0	527	514	234	0	
0	0	0	0	0	539	512	234	0	
1	0	0	0	0	498	512	233	0	
2	0	0	0	0	523	504	233	0	
3	0	0	0	0	486	503	233	0	
4	0	0	0	0	491	503	234	0	
5	0	0	0	0	426	501	234	0	
6	0	0	0	0	486	500	234	0	
7	0	0	0	0	581	503	234	0	
8	0	0	0	0	590	510	233	0	
9	0	0	0	0	444	510	234	0	
10	0	0	0	0	454	515	235	0	
11	0	0	0	0	487	516	235	0	
12	0	0	0	0	485	517	233	0	
13	0	0	0	0	507	508	233	0	
14	0	0	0	0	532	495	233	0	
15	0	0	0	0	556	500	234	0	
0	0	0	0	0	496	506	235	0	
1	0	0	0	0	519	510	235	0	
2	0	0	0	0	385	518	235	0	
3	0	0	0	0	518	516	235	0	
4	0	0	0	0	588	514	235	0	
5	0	0	0	0	506	507	236	0	
6	0	0	0	0	488	500	237	0	
7	0	0	0	0	488	497	236	0	
8	0	0	0	0	575	500	236	0	
9	0	0	0	0	599	502	236	0	
10	0	0	0	0	559	500	236	0	
11	0	0	0	0	495	505	236	0	
12	0	0	0	0	519	512	236	0	
13	0	0	0	0	404	520	237	0	
14	0	0	0	0	456	523	237	0	
15	0	0	0	0	565	511	237	0	
0	0	0	0	0	510	512	236	0	
1	0	0	0	0	492	514	236	0	
2	0	0	0	0	536	506	236	0	
3	0	0	0	0	499	510	236	0	
4	0	0	0	0	475	505	236	0	
5	0	0	0	0	547	510	236	0	
6	0	0	0	0	543	522	235	0	
7	0	0	0	0	501	515	235	0	
8	0	0	0	0	437	500	235	0	
9	0	0	0	0	501	499	235	0	
10	0	0	0	0	512	497	233	0	
11	0	0	0	0	543	492	232	0	
12	0	0	0	0	537	499	233	0	
13	0	0	0	0	592	507	233	0	
14	0	0	0	0	635	506	233	0	
15	0	0	0	0	555	515	232	0	
0	0	0	0	0	445	509	232	0	
1	0	0	0	0	256	504	233	0	
2	0	0	0	0	365	516	231	0	
3	0	0	0	0	604	508	231	0	
4	0	0	0	0	688	500	230	0	
5	0	0	0	0	607	504	230	0	
6	0	0	0	0	460	513	229	0	
7	0	0	0	0	367	520	227	0	
8	0	0	0	0	428	511	225	0	
9	0	0	0	0	601	516	224	0	
10	0	0	0	0	611	515	222	0	
11	0	0	0	0	541	512	221	0	
12	0	0	0	0	481	511	220	0	
13	0	0	0	0	513	510	219	0	
14	0	0	0	0	473	491	219	0	
15	0	0	0	0	559	498	218	0	
0	0	0	0	0	695	509	215	0	
1	0	0	0	0	486	519	213	0	
2	0	0	0	0	443	519	211	0	
3	0	0	0	0	439	508	210	0	
4	0	0	0	0	506	502	206	0	
5	0	0	0	0	609	505	205	0	
6	0	0	0	0	543	510	204	0	
7	0	0	0	0	485	505	202	0	
8	0	0	0	0	327	504	201	0	
9	0	0	0	0	402	496	200	0	
10	0	0	0	0	456	504	202	0	
11	0	0	0	0	517	513	201	0	
12	0	0	0	0	560	512	200	0	
13	0	0	0	0	548	505	200	0	
14	0	0	0	0	537	499	199	0	
15	0	0	0	0	556	507	201	0	
0	0	0	0	0	525	522	201	0	
1	0	0	0	0	487	515	202	0	
2	0	0	0	0	550	512	202	0	
3	0	0	0	0	529	518	203	0	
4	0	0	0	0	519	527	204	0	
5	0	0	0	0	535	515	206	0	
6	0	0	0	0	568	507	207	0	
7	0	0	0	0	538	502	207	0	
8	0	0	0	0	508	499	208	0	
9	0	0	0	0	433	504	210	0	
10	0	0	0	0	453	501	208	0	
11	0	0	0	0	499	489	211	0	
12	0	0	0	0	486	496	211	0	
13	0	0	0	0	440	518	213	0	
14	0	0	0	0	542	513	213	0	
15	0	0	0	0	551	508	213	0	
0	0	0	0	0	464	507	215	0	
1	0	0	0	0	504	512	214	0	
2	0	0	0	0	496	508	216	0	
3	0	0	0	0	547	512	215	0	
4	0	0	0	0	596	508	216	0	
5	0	0	0	0	596	510	216	0	
6	0	0	0	0	481	510	217	0	
7	0	0	0	0	509	507	216	0	
8	0	0	0	0	559	510	216	0	
9	0	0	0	0	507	511	216	0	
10	0	0	0	0	347	513	217	0	
11	0	0	0	0	381	510	216	0	
12	0	0	0	0	530	507	217	0	
13	0	0	0	0	564	510	216	0	
14	0	0	0	0	559	513	217	0	
15	0	0	0	0	566	515	217	0	
0	0	0	0	0	609	511	215	0	
1	0	0	0	0	593	497	216	0	
2	0	0	0	0	531	505	217	0	
3	0	0	0	0	436	507	215	0	
4	0	0	0	0	419	493	217	0	
5	0	0	0	0	489	500	217	0	
6	0	0	0	0	508	510	218	0	
7	0	0	0	0	519	513	219	0	
8	0	0	0	0	480	515	218	0	
9	0	0	0	0	422	508	219	0	
10	0	0	0	0	460	515	219	0	
11	0	0	0	0	550	512	218	0	
12	0	0	0	0	588	505	218	0	
13	0	0	0	0	592	505	217	0	
14	0	0	0	0	550	504	218	0	
15	0	0	0	0	483	504	219	0	
0	0	0	0	0	442	510	219	0	
1	0	0	0	0	465	513	219	0	
2	0	0	0	0	523	514	217	0	
3	0	0	0	0	478	510	217	0	
4	0	0	0	0	515	511	216	0	
5	0	0	0	0	531	503	215	0	
6	0	0	0	0	523	507	215	0	
7	0	0	0	0	556	512	215	0	
8	0	0	0	0	543	511	215	0	
9	0	0	0	0	528	504	213	0	
10	0	0	0	0	549	505	212	0	
11	0	0	0	0	573	507	213	0	
12	0	0	0	0	485	508	211	0	
13	0	0	0	0	403	507	210	0	
14	0	0	0	0	430	506	210	0	
15	0	0	0	0	468	509	207	0	
0	0	0	0	0	566	512	208	0	
1	0	0	0	0	499	515	206	0	
2	0	0	0	0	558	512	207	0	
3	0	0	0	0	500	506	207	0	
4	0	0	0	0	467	504	207	0	
5	0	0	0	0	485	509	207	0	
6	0	0	0	0	491	510	207	0	
7	0	0	0	0	540	505	207	0	
8	0	0	0	0	556	499	207	0	
9	0	0	0	0	551	506	207	0	
10	0	0	0	0	448	511	207	0	
11	0	0	0	0	498	508	207	0	
12	0	0	0	0	494	506	209	0	
13	0	0	0	0	525	513	208	0	
14	0	0	0	0	550	513	208	0	
15	0	0	0	0	547	510	208	0	
0	0	0	0	0	461	507	208	0	
1	0	0	0	0	520	505	209	0	
2	0	0	0	0	539	510	210	0	
3	0	0	0	0	657	508	210	0	
4	0	0	0	0	507	515	210	0	
5	0	0	0	0	448	517	211	0	
6	0	0	0	0	442	516	211	0	
7	0	0	0	0	500	510	211	0	
8	0	0	0	0	606	516	211	0	
9	0	0	0	0	551	507	211	0	
10	0	0	0	0	439	499	211	0	
11	0	0	0	0	425	501	212	0	
12	0	0	0	0	434	499	212	0	
13	0	0	0	0	548	499	211	0	
14	0	0	0	0	577	503	211	0	
15	0	0	0	0	518	504	211	0	
0	0	0	0	0	579	495	210	0	
1	0	0	0	0	533	503	211	0	
2	0	0	0	0	527	515	210	0	
3	0	0	0	0	509	515	210	0	
4	0	0	0	0	466	515	210	0	
5	0	0	0	0	412	510	209	0	
6	0	0	0	0	359	512	209	0	
7	0	0	0	0	490	508	208	0	
8	0	0	0	0	556	510	209	0	
9	0	0	0	0	513	509	208	0	
10	0	0	0	0	504	513	208	0	
11	0	0	0	0	523	513	207	0	
12	0	0	0	0	572	514	207	0	
13	0	0	0	0	559	513	207	0	
14	0	0	0	0	542	513	208	0	
15	0	0	0	0	574	509	208	0	
0	0	0	0	0	520	498	208	0	
1	0	0	0	0	480	494	207	0	
2	0	0	0	0	436	497	207	0	
3	0	0	0	0	469	504	209	0	
4	0	0	0	0	572	510	207	0	
5	0	0	0	0	627	506	207	0	
6	0	0	0	0	609	511	207	0	
7	0	0	0	0	486	510	207	0	
8	0	0	0	0	427	505	208	0	
9	0	0	0	0	511	505	207	0	
10	0	0	0	0	575	507	207	0	
11	0	0	0	0	389	524	207	0	
12	0	0	0	0	468	521	208	0	
13	0	0	0	0	515	518	209	0	
14	0	0	0	0	472	519	212	0	
15	0	0	0	0	495	515	212	0	
0	0	0	0	0	508	502	213	0	
1	0	0	0	0	526	499	212	0	
2	0	0	0	0	487	499	212	0	
3	0	0	0	0	468	506	213	0	
4	0	0	0	0	515	497	213	0	
5	0	0	0	0	566	493	215	0	
6	0	0	0	0	632	506	214	0	
7	0	0	0	0	523	510	214	0	
8	0	0	0	0	487	508	214	0	
9	0	0	0	0	430	516	214	0	
10	0	0	0	0	549	503	214	0	
11	0	0	0	0	447	502	215	0	
12	0	0	0	0	409	512	215	0	
13	0	0	0	0	561	508	215	0	
14	0	0	0	0	612	514	214	0	
15	0	0	0	0	537	518	214	0	
0	0	0	0	0	558	509	216	0	
1	0	0	0	0	585	503	216	0	
2	0	0	0	0	577	502	216	0	
3	0	0	0	0	457	512	216	0	
4	0	0	0	0	310	515	216	0	
5	0	0	0	0	488	514	216	0	
6	0	0	0	0	526	510	215	0	
7	0	0	0	0	540	503	214	0	
8	0	0	0	0	497	504	214	0	
9	0	0	0	0	485	506	215	0	
10	0	0	0	0	458	506	214	0	
11	0	0	0	0	550	512	216	0	
12	0	0	0	0	558	509	216	0	
13	0	0	0	0	620	510	214	0	
14	0	0	0	0	562	507	214	0	
15	0	0	0	0	556	506	214	0	
0	0	0	0	0	510	511	214	0	
1	0	0	0	0	483	512	214	0	
2	0	0	0	0	502	511	214	0	
3	0	0	0	0	523	505	216	0	
4	0	0	0	0	471	508	214	0	
5	0	0	0	0	438	509	215	0	
6	0	0	0	0	482	506	212	0	
7	0	0	0	0	622	502	212	0	
8	0	0	0	0	584	499	212	0	
9	0	0	0	0	409	506	212	0	
10	0	0	0	0	209	523	212	0	
11	0	0	0	0	520	518	211	0	
12	0	0	0	0	605	513	211	0	
13	0	0	0	0	524	512	211	0	
14	0	0	0	0	556	507	212	0	
15	0	0	0	0	589	507	212	0	
0	0	0	0	0	636	507	213	0	
1	0	0	0	0	551	507	213	0	
2	0	0	0	0	401	507	214	0	
3	0	0	0	0	512	511	213	0	
4	0	0	0	0	459	507	212	0	
5	0	0	0	0	500	504	214	0	
6	0	0	0	0	507	505	214	0	
7	0	0	0	0	555	514	213	0	
8	0	0	0	0	587	513	213	0	
9	0	0	0	0	493	497	214	0	
10	0	0	0	0	469	499	214	0	
11	0	0	0	0	365	502	214	0	
12	0	0	0	0	337	515	215	0	
13	0	0	0	0	487	510	214	0	
14	0	0	0	0	607	499	215	0	
15	0	0	0	0	664	500	215	0	
0	0	0	0	0	575	511	216	0	
1	0	0	0	0	551	515	216	0	
2	0	0	0	0	541	513	215	0	
3	0	0	0	0	479	512	216	0	
4	0	0	0	0	442	514	216	0	
5	0	0	0	0	494	505	217	0	
6	0	0	0	0	478	507	216	0	
7	0	0	0	0	467	511	217	0	
8	0	0	0	0	517	507	217	0	
9	0	0	0	0	593	508	217	0	
10	0	0	0	0	499	509	217	0	
11	0	0	0	0	534	515	216	0	
12	0	0	0	0	560	515	217	0	
13	0	0	0	0	546	508	217	0	
14	0	0	0	0	397	509	218	0	
15	0	0	0	0	492	505	217	0	
0	0	0	0	0	558	502	218	0	
1	0	0	0	0	515	499	217	0	
2	0	0	0	0	504	505	217	0	
3	0	0	0	0	548	504	217	0	
4	0	0	0	0	585	507	218	0	
5	0	0	0	0	496	512	216	0	
6	0	0	0	0	454	512	217	0	
7	0	0	0	0	519	509	217	0	
8	0	0	0	0	537	512	218	0	
9	0	0	0	0	569	508	217	0	
10	0	0	0	0	457	508	219	0	
11	0	0	0	0	508	508	217	0	
12	0	0	0	0	392	502	217	0	
13	0	0	0	0	381	503	217	0	
14	0	0	0	0	492	510	217	0	
15	0	0	0	0	505	512	217	0	
0	0	0	0	0	528	518	217	0	
1	0	0	0	0	548	517	217	0	
2	0	0	0	0	526	502	218	0	
3	0	0	0	0	627	501	218	0	
4	0	0	0	0	568	498	218	0	
5	0	0	0	0	513	498	217	0	
6	0	0	0	0	499	509	218	0	
7	0	0	0	0	529	514	217	0	
8	0	0	0	0	544	512	218	0	
9	0	0	0	0	504	510	217	0	
10	0	0	0	0	481	507	216	0	
11	0	0	0	0	462	505	216	0	
12	0	0	0	0	505	507	215	0	
13	0	0	0	0	493	507	214	0	
14	0	0	0	0	509	506	213	0	
15	0	0	0	0	541	505	212	0	
0	0	0	0	0	554	509	213	0	
1	0	0	0	0	509	517	212	0	
2	0	0	0	0	487	523	211	0	
3	0	0	0	0	428	515	210	0	
4	0	0	0	0	545	502	211	0	
5	0	0	0	0	570	497	212	0	
6	0	0	0	0	530	502	212	0	
7	0	0	0	0	522	509	211	0	
8	0	0	0	0	569	508	211	0	
9	0	0	0	0	552	506	209	0	
10	0	0	0	0	449	511	208	0	
11	0	0	0	0	483	513	207	0	
12	0	0	0	0	521	517	207	0	
13	0	0	0	0	456	509	206	0	
14	0	0	0	0	487	506	206	0	
15	0	0	0	0	437	511	207	0	
0	0	0	0	0	451	509	206	0	
1	0	0	0	0	553	508	207	0	
2	0	0	0	0	526	505	206	0	
3	0	0	0	0	509	506	206	0	
4	0	0	0	0	520	506	204	0	
5	0	0	0	0	575	503	205	0	
6	0	0	0	0	588	500	204	0	
7	0	0	0	0	547	505	203	0	
8	0	0	0	0	555	506	202	0	
9	0	0	0	0	443	517	202	0	
10	0	0	0	0	483	518	203	0	
11	0	0	0	0	441	511	202	0	
12	0	0	0	0	457	510	202	0	
13	0	0	0	0	502	512	203	0	
14	0	0	0	0	512	515	202	0	
15	0	0	0	0	535	510	201	0	
0	0	0	0	0	531	506	201	0	
1	0	0	0	0	571	502	200	0	
2	0	0	0	0	648	500	200	0	
3	0	0	0	0	633	504	202	0	
4	0	0	0	0	495	507	202	0	
5	0	0	0	0	382	524	202	0	
6	0	0	0	0	260	518	201	0	
7	0	0	0	0	404	502	203	0	
8	0	0	0	0	535	498	203	0	
9	0	0	0	0	503	512	204	0	
10	0	0	0	0	615	509	204	0	
11	0	0	0	0	648	504	206	0	
12	0	0	0	0	575	509	206	0	
13	0	0	0	0	441	513	205	0	
14	0	0	0	0	467	513	206	0	
15	0	0	0	0	527	507	205	0	
0	0	0	0	0	529	506	205	0	
1	0	0	0	0	525	507	206	0	
2	0	0	0	0	470	507	206	0	
3	0	0	0	0	529	504	207	0	
4	0	0	0	0	531	510	207	0	
5	0	0	0	0	478	516	207	0	
6	0	0	0	0	464	503	208	0	
7	0	0	0	0	472	503	207	0	
8	0	0	0	0	477	505	207	0	
9	0	0	0	0	539	507	206	0	
10	0	0	0	0	598	511	207	0	
11	0	0	0	0	525	510	207	0	
12	0	0	0	0	543	515	205	0	
13	0	0	0	0	547	503	205	0	
14	0	0	0	0	587	485	206	0	
15	0	0	0	0	538	504	205	0	
0	0	0	0	0	491	512	204	0	
1	0	0	0	0	471	519	206	0	
2	0	0	0	0	512	518	204	0	
3	0	0	0	0	487	510	204	0	
4	0	0	0	0	486	513	204	0	
5	0	0	0	0	512	515	205	0	
6	0	0	0	0	532	516	206	0	
7	0	0	0	0	460	508	208	0	
8	0	0	0	0	428	507	208	0	
9	0	0	0	0	468	504	209	0	
10	0	0	0	0	518	504	209	0	
11	0	0	0	0	546	504	209	0	
12	0	0	0	0	596	507	210	0	
13	0	0	0	0	534	505	210	0	
14	0	0	0	0	542	507	209	0	
15	0	0	0	0	489	511	210	0	
0	0	0	0	0	422	511	210	0	
1	0	0	0	0	428	512	209	0	
2	0	0	0	0	545	502	208	0	
3	0	0	0	0	654	499	208	0	
4	0	0	0	0	591	507	207	0	
5	0	0	0	0	496	517	205	0	
6	0	0	0	0	520	515	203	0	
7	0	0	0	0	477	518	202	0	
8	0	0	0	0	451	513	200	0	
9	0	0	0	0	413	508	201	0	
10	0	0	0	0	445	503	199	0	
11	0	0	0	0	473	498	201	0	
12	0	0	0	0	547	499	199	0	
13	0	0	0	0	579	505	194	0	
14	0	0	0	0	617	520	195	0	
15	0	0	0	0	481	526	196	0	
0	0	0	0	0	529	514	195	0	
1	0	0	0	0	545	504	193	0	
2	0	0	0	0	546	510	194	0	
3	0	0	0	0	516	503	194	0	
4	0	0	0	0	461	499	195	0	
5	0	0	0	0	444	498	195	0	
6	0	0	0	0	453	494	194	0	
7	0	0	0	0	517	500	195	0	
8	0	0	0	0	528	510	195	0	
9	0	0	0	0	521	515	194	0	
10	0	0	0	0	513	515	197	0	
11	0	0	0	0	558	511	198	0	
12	0	0	0	0	513	508	197	0	
13	0	0	0	0	539	515	196	0	
14	0	0	0	0	508	518	196	0	
15	0	0	0	0	482	509	195	0	
0	0	0	0	0	496	510	196	0	
1	0	0	0	0	506	509	196	0	
2	0	0	0	0	507	508	197	0	
3	0	0	0	0	529	510	197	0	
4	0	0	0	0	472	505	196	0	
5	0	0	0	0	533	494	196	0	
6	0	0	0	0	561	496	196	0	
7	0	0	0	0	543	502	198	0	
8	0	0	0	0	416	516	198	0	
9	0	0	0	0	466	523	201	0	
10	0	0	0	0	525	516	202	0	
11	0	0	0	0	557	498	204	0	
12	0	0	0	0	535	505	204	0	
13	0	0	0	0	579	505	204	0	
14	0	0	0	0	580	510	204	0	
15	0	0	0	0	473	507	204	0	
0	0	0	0	0	514	501	203	0	
1	0	0	0	0	448	508	204	0	
2	0	0	0	0	450	515	204	0	
3	0	0	0	0	531	510	204	0	
4	0	0	0	0	511	512	204	0	
5	0	0	0	0	485	512	203	0	
6	0	0	0	0	497	508	204	0	
7	0	0	0	0	566	508	204	0	
8	0	0	0	0	609	508	205	0	
9	0	0	0	0	479	515	204	0	
10	0	0	0	0	368	503	205	0	
11	0	0	0	0	430	496	204	0	
12	0	0	0	0	452	500	205	0	
13	0	0	0	0	505	510	204	0	
14	0	0	0	0	576	509	202	0	
15	0	0	0	0	609	509	203	0	
0	0	0	0	0	562	514	201	0	
1	0	0	0	0	509	513	198	0	
2	0	0	0	0	515	511	199	0	
3	0	0	0	0	471	505	201	0	
4	0	0	0	0	534	509	200	0	
5	0	0	0	0	531	512	199	0	
6	0	0	0	0	536	511	198	0	
7	0	0	0	0	481	511	198	0	
8	0	0	0	0	458	508	198	0	
9	0	0	0	0	593	500	194	0	
10	0	0	0	0	537	504	195	0	
11	0	0	0	0	465	504	193	0	
12	0	0	0	0	480	508	194	0	
13	0	0	0	0	485	507	195	0	
14	0	0	0	0	493	509	193	0	
15	0	0	0	0	525	517	194	0	
0	0	0	0	0	612	514	194	0	
1	0	0	0	0	465	512	195	0	
2	0	0	0	0	421	510	196	0	
3	0	0	0	0	518	505	197	0	
4	0	0	0	0	494	500	199	0	
5	0	0	0	0	445	506	198	0	
6	0	0	0	0	518	511	199	0	
7	0	0	0	0	586	494	199	0	
8	0	0	0	0	583	499	199	0	
9	0	0	0	0	522	506	200	0	
10	0	0	0	0	460	502	200	0	
11	0	0	0	0	543	510	201	0	
12	0	0	0	0	512	512	201	0	
13	0	0	0	0	471	524	201	0	
14	0	0	0	0	423	521	202	0	
15	0	0	0	0	488	510	202	0	
0	0	0	0	0	521	510	202	0	
1	0	0	0	0	445	503	203	0	
2	0	0	0	0	572	497	201	0	
3	0	0	0	0	574	494	201	0	
4	0	0	0	0	561	497	202	0	
5	0	0	0	0	564	518	204	0	
6	0	0	0	0	411	523	202	0	
7	0	0	0	0	525	514	202	0	
8	0	0	0	0	543	518	203	0	
9	0	0	0	0	542	513	203	0	
10	0	0	0	0	513	512	204	0	
11	0	0	0	0	506	509	205	0	
12	0	0	0	0	527	511	205	0	
13	0	0	0	0	528	511	205	0	
14	0	0	0	0	508	512	206	0	
15	0	0	0	0	485	510	206	0	
0	0	0	0	0	496	501	205	0	
1	0	0	0	0	522	499	205	0	
2	0	0	0	0	540	502	204	0	
3	0	0	0	0	534	499	205	0	
4	0	0	0	0	518	490	204	0	
5	0	0	0	0	471	497	204	0	
6	0	0	0	0	481	508	204	0	
7	0	0	0	0	516	514	204	0	
8	0	0	0	0	492	527	204	0	
9	0	0	0	0	507	518	205	0	
10	0	0	0	0	564	510	204	0	
11	0	0	0	0	444	515	205	0	
12	0	0	0	0	465	513	205	0	
13	0	0	0	0	501	505	205	0	
14	0	0	0	0	527	504	205	0	
15	0	0	0	0	472	507	206	0	
0	0	0	0	0	532	512	206	0	
1	0	0	0	0	543	511	206	0	
2	0	0	0	0	563	506	207	0	
3	0	0	0	0	514	505	206	0	
4	0	0	0	0	540	504	207	0	
5	0	0	0	0	566	506	207	0	
6	0	0	0	0	568	510	207	0	
7	0	0	0	0	515	512	206	0	
8	0	0	0	0	462	511	205	0	
9	0	0	0	0	476	508	206	0	
10	0	0	0	0	473	509	204	0	
11	0	0	0	0	461	507	204	0	
12	0	0	0	0	507	505	203	0	
13	0	0	0	0	496	511	203	0	
14	0	0	0	0	524	513	204	0	
15	0	0	0	0	481	507	204	0	
0	0	0	0	0	499	503	205	0	
1	0	0	0	0	510	505	202	0	
2	0	0	0	0	531	515	203	0	
3	0	0	0	0	539	510	203	0	
4	0	0	0	0	548	511	203	0	
5	0	0	0	0	524	505	203	0	
6	0	0	0	0	476	505	202	0	
7	0	0	0	0	484	508	202	0	
8	0	0	0	0	524	508	203	0	
9	0	0	0	0	504	504	203	0	
10	0	0	0	0	495	503	202	0	
11	0	0	0	0	510	502	202	0	
12	0	0	0	0	525	505	200	0	
13	0	0	0	0	529	507	200	0	
14	0	0	0	0	527	513	200	0	
15	0	0	0	0	471	516	199	0	
0	0	0	0	0	521	511	198	0	
1	0	0	0	0	524	513	199	0	
2	0	0	0	0	537	513	199	0	
3	0	0	0	0	527	512	199	0	
4	0	0	0	0	527	510	199	0	
5	0	0	0	0	513	508	199	0	
6	0	0	0	0	551	504	199	0	
7	0	0	0	0	560	502	199	0	
8	0	0	0	0	475	497	198	0	
9	0	0	0	0	433	504	199	0	
10	0	0	0	0	548	507	197	0	
11	0	0	0	0	595	504	196	0	
12	0	0	0	0	509	514	196	0	
13	0	0	0	0	504	513	196	0	
14	0	0	0	0	405	513	195	0	
15	0	0	0	0	430	516	192	0	
0	0	0	0	0	595	513	189	0	
1	0	0	0	0	517	507	190	0	
2	0	0	0	0	433	505	187	0	
3	0	0	0	0	439	509	187	0	
4	0	0	0	0	515	509	184	0	
5	0	0	0	0	580	509	182	0	
6	0	0	0	0	538	503	180	0	
7	0	0	0	0	519	505	177	0	
8	0	0	0	0	484	509	176	0	
9	0	0	0	0	582	510	176	0	
10	0	0	0	0	546	503	179	0	
11	0	0	0	0	479	502	180	0	
12	0	0	0	0	457	509	180	0	
13	0	0	0	0	479	519	178	0	
14	0	0	0	0	557	512	179	0	
15	0	0	0	0	506	510	178	0	
0	0	0	0	0	502	509	176	0	
1	0	0	0	0	468	509	175	0	
2	0	0	0	0	531	505	172	0	
3	0	0	0	0	543	503	174	0	
4	0	0	0	0	547	499	172	0	
5	0	0	0	0	476	505	172	0	
6	0	0	0	0	543	509	172	0	
7	0	0	0	0	508	513	171	0	
8	0	0	0	0	507	509	170	0	
9	0	0	0	0	556	511	172	0	
10	0	0	0	0	539	517	172	0	
11	0	0	0	0	556	515	173	0	
12	0	0	0	0	432	507	174	0	
13	0	0	0	0	407	509	175	0	
14	0	0	0	0	505	508	176	0	
15	0	0	0	0	491	509	177	0	
0	0	0	0	0	504	510	175	0	
1	0	0	0	0	474	502	176	0	
2	0	0	0	0	511	503	176	0	
3	0	0	0	0	549	503	176	0	
4	0	0	0	0	547	501	177	0	
5	0	0	0	0	450	504	175	0	
6	0	0	0	0	532	509	176	0	
7	0	0	0	0	556	510	177	0	
8	0	0	0	0	491	513	177	0	
9	0	0	0	0	496	509	177	0	
10	0	0	0	0	518	514	176	0	
11	0	0	0	0	544	511	177	0	
12	0	0	0	0	556	507	176	0	
13	0	0	0	0	496	508	176	0	
14	0	0	0	0	496	510	176	0	
15	0	0	0	0	515	510	176	0	
0	0	0	0	0	526	512	176	0	
1	0	0	0	0	501	512	175	0	
2	0	0	0	0	573	514	176	0	
3	0	0	0	0	554	510	177	0	
4	0	0	0	0	531	505	176	0	
5	0	0	0	0	434	508	176	0	
6	0	0	0	0	437	505	175	0	
7	0	0	0	0	463	504	176	0	
8	0	0	0	0	514	502	174	0	
9	0	0	0	0	585	508	175	0	
10	0	0	0	0	563	513	175	0	
11	0	0	0	0	522	510	175	0	
12	0	0	0	0	498	511	175	0	
13	0	0	0	0	467	504	174	0	
14	0	0	0	0	492	501	175	0	
15	0	0	0	0	476	506	176	0	
0	0	0	0	0	542	517	176	0	
1	0	0	0	0	481	525	176	0	
2	0	0	0	0	457	522	176	0	
3	0	0	0	0	529	510	176	0	
4	0	0	0	0	570	501	176	0	
5	0	0	0	0	546	503	176	0	
6	0	0	0	0	463	499	176	0	
7	0	0	0	0	408	504	177	0	
8	0	0	0	0	416	507	177	0	
9	0	0	0	0	550	515	177	0	
10	0	0	0	0	630	504	177	0	
11	0	0	0	0	547	502	175	0	
12	0	0	0	0	496	505	176	0	
13	0	0	0	0	579	511	176	0	
14	0	0	0	0	607	510	175	0	
15	0	0	0	0	611	503	176	0	
0	0	0	0	0	564	502	177	0	
1	0	0	0	0	331	503	178	0	
2	0	0	0	0	421	513	177	0	
3	0	0	0	0	435	519	177	0	
4	0	0	0	0	472	515	176	0	
5	0	0	0	0	504	507	177	0	
6	0	0	0	0	453	504	176	0	
7	0	0	0	0	579	505	176	0	
8	0	0	0	0	618	506	176	0	
9	0	0	0	0	486	511	176	0	
10	0	0	0	0	532	513	176	0	
11	0	0	0	0	545	510	176	0	
12	0	0	0	0	553	512	176	0	
13	0	0	0	0	511	510	176	0	
14	0	0	0	0	503	508	176	0	
15	0	0	0	0	462	508	178	0	
0	0	0	0	0	469	508	176	0	
1	0	0	0	0	523	508	177	0	
2	0	0	0	0	562	503	177	0	
3	0	0	0	0	518	504	177	0	
4	0	0	0	0	508	506	176	0	
5	0	0	0	0	511	506	177	0	
6	0	0	0	0	510	512	175	0	
7	0	0	0	0	451	507	175	0	
8	0	0	0	0	481	510	175	0	
9	0	0	0	0	513	507	175	0	
10	0	0	0	0	534	507	172	0	
11	0	0	0	0	392	519	172	0	
12	0	0	0	0	560	505	171	0	
13	0	0	0	0	641	501	172	0	
14	0	0	0	0	519	510	170	0	
15	0	0	0	0	354	513	172	0	
0	0	0	0	0	463	510	173	0	
1	0	0	0	0	560	513	174	0	
2	0	0	0	0	568	514	172	0	
3	0	0	0	0	569	519	173	0	
4	0	0	0	0	470	515	173	0	
5	0	0	0	0	532	505	173	0	
6	0	0	0	0	552	498	173	0	
7	0	0	0	0	528	501	172	0	
8	0	0	0	0	524	505	173	0	
9	0	0	0	0	502	500	174	0	
10	0	0	0	0	496	498	172	0	
11	0	0	0	0	499	498	172	0	
12	0	0	0	0	517	497	173	0	
13	0	0	0	0	540	507	174	0	
14	0	0	0	0	503	508	176	0	
15	0	0	0	0	480	504	176	0	
0	0	0	0	0	500	508	176	0	
1	0	0	0	0	533	514	176	0	
2	0	0	0	0	477	521	178	0	
3	0	0	0	0	470	515	179	0	
4	0	0	0	0	634	511	179	0	
5	0	0	0	0	589	513	180	0	
6	0	0	0	0	378	513	180	0	
7	0	0	0	0	415	513	182	0	
8	0	0	0	0	558	510	182	0	
9	0	0	0	0	570	511	183	0	
10	0	0	0	0	498	513	183	0	
11	0	0	0	0	508	510	184	0	
12	0	0	0	0	557	506	183	0	
13	0	0	0	0	496	509	182	0	
14	0	0	0	0	416	507	184	0	
15	0	0	0	0	411	495	182	0	
0	0	0	0	0	481	496	181	0	
1	0	0	0	0	519	505	182	0	
2	0	0	0	0	542	504	182	0	
3	0	0	0	0	570	510	183	0	
4	0	0	0	0	559	510	183	0	
5	0	0	0	0	625	510	184	0	
6	0	0	0	0	511	517	185	0	
7	0	0	0	0	499	516	185	0	
8	0	0	0	0	506	514	185	0	
9	0	0	0	0	517	515	186	0	
10	0	0	0	0	489	505	186	0	
11	0	0	0	0	438	503	185	0	
12	0	0	0	0	504	497	187	0	
13	0	0	0	0	553	500	186	0	
14	0	0	0	0	540	501	187	0	
15	0	0	0	0	498	509	187	0	
0	0	0	0	0	468	514	186	0	
1	0	0	0	0	496	515	186	0	
2	0	0	0	0	518	508	185	0	
3	0	0	0	0	535	507	185	0	
4	0	0	0	0	521	510	187	0	
5	0	0	0	0	537	504	187	0	
6	0	0	0	0	558	508	186	0	
7	0	0	0	0	560	503	186	0	
8	0	0	0	0	460	505	187	0	
9	0	0	0	0	395	508	185	0	
10	0	0	0	0	406	512	186	0	
11	0	0	0	0	510	510	186	0	
12	0	0	0	0	598	513	185	0	
13	0	0	0	0	506	523	185	0	
14	0	0	0	0	521	514	185	0	
15	0	0	0	0	574	502	186	0	
0	0	0	0	0	668	499	185	0	
1	0	0	0	0	632	506	186	0	
2	0	0	0	0	417	512	186	0	
3	0	0	0	0	294	519	186	0	
4	0	0	0	0	419	510	186	0	
5	0	0	0	0	523	505	186	0	
6	0	0	0	0	542	510	185	0	
7	0	0	0	0	465	511	185	0	
8	0	0	0	0	577	507	185	0	
9	0	0	0	0	612	506	185	0	
10	0	0	0	0	551	503	186	0	
11	0	0	0	0	499	500	187	0	
12	0	0	0	0	480	502	186	0	
13	0	0	0	0	505	504	186	0	
14	0	0	0	0	462	503	185	0	
15	0	0	0	0	507	500	185	0	
0	0	0	0	0	498	502	185	0	
1	0	0	0	0	522	514	186	0	
2	0	0	0	0	352	512	185	0	
3	0	0	0	0	436	509	184	0	
4	0	0	0	0	615	510	183	0	
5	0	0	0	0	678	523	183	0	
6	0	0	0	0	606	514	184	0	
7	0	0	0	0	538	508	184	0	
8	0	0	0	0	494	503	183	0	
9	0	0	0	0	499	507	183	0	
10	0	0	0	0	518	508	183	0	
11	0	0	0	0	509	510	184	0	
12	0	0	0	0	459	510	184	0	
13	0	0	0	0	467	510	184	0	
14	0	0	0	0	541	509	184	0	
15	0	0	0	0	593	508	185	0	
0	0	0	0	0	563	512	184	0	
1	0	0	0	0	519	508	184	0	
2	0	0	0	0	481	505	185	0	
3	0	0	0	0	408	507	185	0	
4	0	0	0	0	499	507	185	0	
5	0	0	0	0	515	496	185	0	
6	0	0	0	0	498	501	184	0	
7	0	0	0	0	486	524	186	0	
8	0	0	0	0	534	520	185	0	
9	0	0	0	0	518	515	185	0	
10	0	0	0	0	564	513	186	0	
11	0	0	0	0	484	511	186	0	
12	0	0	0	0	489	504	186	0	
13	0	0	0	0	546	499	186	0	
14	0	0	0	0	580	496	186	0	
15	0	0	0	0	551	501	187	0	
0	0	0	0	0	395	514	188	0	
1	0	0	0	0	451	499	189	0	
2	0	0	0	0	551	496	191	0	
3	0	0	0	0	525	514	193	0	
4	0	0	0	0	443	514	193	0	
5	0	0	0	0	421	510	194	0	
6	0	0	0	0	536	508	194	0	
7	0	0	0	0	569	510	194	0	
8	0	0	0	0	524	513	194	0	
9	0	0	0	0	463	514	195	0	
10	0	0	0	0	484	502	198	0	
11	0	0	0	0	487	502	197	0	
12	0	0	0	0	499	508	196	0	
13	0	0	0	0	545	514	199	0	
14	0	0	0	0	552	515	200	0	
15	0	0	0	0	551	513	201	0	
0	0	0	0	0	551	507	201	0	
1	0	0	0	0	517	509	202	0	
2	0	0	0	0	517	509	203	0	
3	0	0	0	0	504	508	203	0	
4	0	0	0	0	514	509	204	0	
5	0	0	0	0	512	504	205	0	
6	0	0	0	0	458	506	207	0	
7	0	0	0	0	472	508	208	0	
8	0	0	0	0	484	508	208	0	
9	0	0	0	0	487	507	208	0	
10	0	0	0	0	433	508	207	0	
11	0	0	0	0	424	506	208	0	
12	0	0	0	0	519	511	207	0	
13	0	0	0	0	669	513	208	0	
14	0	0	0	0	704	516	209	0	
15	0	0	0	0	604	512	209	0	
0	0	0	0	0	586	507	209	0	
1	0	0	0	0	534	504	209	0	
2	0	0	0	0	448	509	208	0	
3	0	0	0	0	449	512	209	0	
4	0	0	0	0	487	507	209	0	
5	0	0	0	0	497	505	210	0	
6	0	0	0	0	493	507	210	0	
7	0	0	0	0	487	507	209	0	
8	0	0	0	0	512	506	208	0	
9	0	0	0	0	525	508	208	0	
10	0	0	0	0	496	507	208	0	
11	0	0	0	0	482	507	208	0	
12	0	0	0	0	479	505	208	0	
13	0	0	0	0	489	505	208	0	
14	0	0	0	0	507	507	207	0	
15	0	0	0	0	508	511	208	0	
0	0	0	0	0	507	509	208	0	
1	0	0	0	0	507	510	207	0	
2	0	0	0	0	519	508	206	0	
3	0	0	0	0	515	506	206	0	
4	0	0	0	0	512	508	204	0	
5	0	0	0	0	514	509	203	0	
6	0	0	0	0	520	510	202	0	
7	0	0	0	0	524	508	201	0	
8	0	0	0	0	527	509	201	0	
9	0	0	0	0	520	508	201	0	
10	0	0	0	0	504	512	200	0	
11	0	0	0	0	501	511	200	0	
12	0	0	0	0	498	510	201	0	
13	0	0	0	0	494	508	201	0	
14	0	0	0	0	507	506	201	0	
15	0	0	0	0	509	510	201	0	
0	0	0	0	0	513	508	202	0	
1	0	0	0	0	517	507	202	0	
2	0	0	0	0	519	508	203	0	
3	0	0	0	0	518	508	203	0	
4	0	0	0	0	515	510	203	0	
5	0	0	0	0	513	510	203	0	
6	0	0	0	0	510	508	203	0	
7	0	0	0	0	511	508	203	0	
8	0	0	0	0	509	505	204	0	
9	0	0	0	0	508	507	203	0	
10	0	0	0	0	512	509	204	0	
11	0	0	0	0	511	511	203	0	
12	0	0	0	0	516	511	203	0	
13	0	0	0	0	513	507	202	0	
14	0	0	0	0	516	508	202	0	
15	0	0	0	0	513	508	203	0	
0	0	0	0	0	510	509	202	0	
1	0	0	0	0	507	507	202	0	
2	0	0	0	0	507	507	200	0	
3	0	0	0	0	507	508	199	0	
4	0	0	0	0	518	507	199	0	
5	0	0	0	0	519	507	199	0	
6	0	0	0	0	513	508	199	0	
7	0	0	0	0	510	508	195	0	
8	0	0	0	0	510	510	196	0	
9	0	0	0	0	512	508	197	0	
10	0	0	0	0	511	508	196	0	
11	0	0	0	0	510	508	195	0	
12	0	0	0	0	512	509	194	0	
13	0	0	0	0	513	508	194	0	
14	0	0	0	0	511	507	194	0	
15	0	0	0	0	510	509	194	0	
0	0	0	0	0	510	508	195	0	
1	0	0	0	0	508	506	195	0	
2	0	0	0	0	509	510	195	0	
3	0	0	0	0	510	509	195	0	
4	0	0	0	0	510	509	195	0	
5	0	0	0	0	511	509	196	0	
6	0	0	0	0	508	506	195	0	
7	0	0	0	0	510	508	195	0	
8	0	0	0	0	513	509	194	0	
9	0	0	0	0	510	507	192	0	
10	0	0	0	0	510	509	192	0	
11	0	0	0	0	508	508	192	0	
12	0	0	0	0	511	506	191	0	
13	0	0	0	0	511	508	191	0	
14	0	0	0	0	512	508	190	0	
15	0	0	0	0	512	509	190	0	
0	0	0	0	0	508	507	190	0	
1	0	0	0	0	512	508	189	0	
2	0	0	0	0	510	508	189	0	
3	0	0	0	0	512	511	191	0	
4	0	0	0	0	510	509	190	0	
