# OpenSignals Text File Format. Version 1
# {"20:18:06:13:21:78": {"position": 0, "device": "bitalino_rev", "device name": "20:18:06:13:21:78", "device connection": "BTH20:18:06:13:21:78", "sampling rate": 1000, "resolution": [4, 1, 1, 1, 1, 10, 10, 10, 10], "firmware version": 1281, "comments": "", "keywords": "", "mode": 0, "sync interval": 2, "date": "2023-6-5", "time": "23:47:45.129", "channels": [1, 2, 3, 4], "sensor": ["EMGBITREV", "EMGBITREV", "RAW", "RAW"], "label": ["A1", "A2", "A3", "A4"], "column": ["nSeq", "I1", "I2", "O1", "O2", "A1", "A2", "A3", "A4"], "special": [{}, {}, {}, {}], "digital IO": [0, 0, 1, 1]}}
# EndOfHeader
0	0	0	0	0	510	512	0	0	
1	0	0	0	0	512	511	0	0	
2	0	0	0	0	510	512	0	0	
3	0	0	0	0	508	510	0	0	
4	0	0	0	0	506	511	0	0	
5	0	0	0	0	506	506	0	0	
6	0	0	0	0	505	512	0	0	
7	0	0	0	0	505	509	0	0	
8	0	0	0	0	504	512	0	0	
9	0	0	0	0	506	513	0	0	
10	0	0	0	0	504	511	0	0	
11	0	0	0	0	507	510	0	0	
12	0	0	0	0	508	510	0	0	
13	0	0	0	0	509	509	0	0	
14	0	0	0	0	511	510	0	0	
15	0	0	0	0	511	510	0	0	
0	0	0	0	0	512	511	0	0	
1	0	0	0	0	513	510	0	0	
2	0	0	0	0	513	513	0	0	
3	0	0	0	0	513	512	0	0	
4	0	0	0	0	511	513	0	0	
5	0	0	0	0	511	512	0	0	
6	0	0	0	0	510	510	0	0	
7	0	0	0	0	508	511	0	0	
8	0	0	0	0	507	511	0	0	
9	0	0	0	0	505	508	0	0	
10	0	0	0	0	504	507	0	0	
11	0	0	0	0	504	510	0	0	
12	0	0	0	0	505	508	0	0	
13	0	0	0	0	503	510	0	0	
14	0	0	0	0	506	511	0	0	
15	0	0	0	0	507	511	0	0	
0	0	0	0	0	505	511	0	0	
1	0	0	0	0	511	510	0	0	
2	0	0	0	0	511	509	0	0	
3	0	0	0	0	511	510	0	0	
4	0	0	0	0	513	511	0	0	
5	0	0	0	0	512	510	0	0	
6	0	0	0	0	515	512	0	0	
7	0	0	0	0	511	512	0	0	
8	0	0	0	0	511	511	0	0	
9	0	0	0	0	511	511	0	0	
10	0	0	0	0	509	512	0	0	
11	0	0	0	0	508	508	0	0	
12	0	0	0	0	505	512	0	0	
13	0	0	0	0	502	509	0	0	
14	0	0	0	0	505	510	0	0	
15	0	0	0	0	505	510	0	0	
0	0	0	0	0	505	509	0	0	
1	0	0	0	0	507	509	0	0	
2	0	0	0	0	507	508	0	0	
3	0	0	0	0	507	512	0	0	
4	0	0	0	0	508	508	0	0	
5	0	0	0	0	507	510	0	0	
6	0	0	0	0	511	511	0	0	
7	0	0	0	0	510	509	0	0	
8	0	0	0	0	512	513	0	0	
9	0	0	0	0	513	510	0	0	
10	0	0	0	0	512	512	0	0	
11	0	0	0	0	513	513	0	0	
12	0	0	0	0	512	511	0	0	
13	0	0	0	0	512	513	0	0	
14	0	0	0	0	508	511	0	0	
15	0	0	0	0	510	509	0	0	
0	0	0	0	0	505	510	0	0	
1	0	0	0	0	507	508	0	0	
2	0	0	0	0	507	510	0	0	
3	0	0	0	0	504	510	0	0	
4	0	0	0	0	504	508	0	0	
5	0	0	0	0	505	510	0	0	
6	0	0	0	0	505	509	0	0	
7	0	0	0	0	504	510	0	0	
8	0	0	0	0	507	510	0	0	
9	0	0	0	0	508	511	0	0	
10	0	0	0	0	511	512	0	0	
11	0	0	0	0	511	512	0	0	
12	0	0	0	0	510	511	0	0	
13	0	0	0	0	512	511	0	0	
14	0	0	0	0	514	510	0	0	
15	0	0	0	0	515	512	0	0	
0	0	0	0	0	511	511	0	0	
1	0	0	0	0	510	510	0	0	
2	0	0	0	0	512	508	0	0	
3	0	0	0	0	509	510	0	0	
4	0	0	0	0	507	512	0	0	
5	0	0	0	0	505	508	0	0	
6	0	0	0	0	504	510	0	0	
7	0	0	0	0	504	509	0	0	
8	0	0	0	0	504	507	0	0	
9	0	0	0	0	507	510	0	0	
10	0	0	0	0	504	509	0	0	
11	0	0	0	0	506	509	0	0	
12	0	0	0	0	509	508	0	0	
13	0	0	0	0	509	511	0	0	
14	0	0	0	0	512	510	0	0	
15	0	0	0	0	512	511	0	0	
0	0	0	0	0	511	512	0	0	
1	0	0	0	0	511	512	0	0	
2	0	0	0	0	513	513	0	0	
3	0	0	0	0	512	513	0	0	
4	0	0	0	0	512	509	0	0	
5	0	0	0	0	512	512	0	0	
6	0	0	0	0	511	511	0	0	
7	0	0	0	0	507	513	0	0	
8	0	0	0	0	506	511	0	0	
9	0	0	0	0	505	510	0	0	
10	0	0	0	0	505	511	0	0	
11	0	0	0	0	504	508	0	0	
12	0	0	0	0	504	510	0	0	
13	0	0	0	0	504	509	0	0	
14	0	0	0	0	504	508	0	0	
15	0	0	0	0	506	508	0	0	
0	0	0	0	0	508	509	0	0	
1	0	0	0	0	509	511	0	0	
2	0	0	0	0	512	510	0	0	
3	0	0	0	0	511	510	0	0	
4	0	0	0	0	513	512	0	0	
5	0	0	0	0	513	511	0	0	
6	0	0	0	0	511	512	0	0	
7	0	0	0	0	512	512	0	0	
8	0	0	0	0	511	513	0	0	
9	0	0	0	0	509	512	0	0	
10	0	0	0	0	512	512	0	0	
11	0	0	0	0	509	511	0	0	
12	0	0	0	0	506	511	0	0	
13	0	0	0	0	504	511	0	0	
14	0	0	0	0	504	509	0	0	
15	0	0	0	0	504	510	0	0	
0	0	0	0	0	503	510	0	0	
1	0	0	0	0	505	508	0	0	
2	0	0	0	0	506	508	0	0	
3	0	0	0	0	508	507	0	0	
4	0	0	0	0	508	509	0	0	
5	0	0	0	0	510	510	0	0	
6	0	0	0	0	511	511	0	0	
7	0	0	0	0	513	511	0	0	
8	0	0	0	0	512	514	0	0	
9	0	0	0	0	512	512	0	0	
10	0	0	0	0	511	512	0	0	
11	0	0	0	0	511	510	0	0	
12	0	0	0	0	511	512	0	0	
13	0	0	0	0	508	512	0	0	
14	0	0	0	0	508	509	0	0	
15	0	0	0	0	508	509	0	0	
0	0	0	0	0	507	513	0	0	
1	0	0	0	0	506	509	0	0	
2	0	0	0	0	506	509	0	0	
3	0	0	0	0	503	510	0	0	
4	0	0	0	0	503	511	0	0	
5	0	0	0	0	504	510	0	0	
6	0	0	0	0	507	511	0	0	
7	0	0	0	0	508	509	0	0	
8	0	0	0	0	507	509	0	0	
9	0	0	0	0	510	509	0	0	
10	0	0	0	0	511	511	0	0	
11	0	0	0	0	513	511	0	0	
12	0	0	0	0	515	509	0	0	
13	0	0	0	0	513	514	0	0	
14	0	0	0	0	512	510	0	0	
15	0	0	0	0	513	512	0	0	
0	0	0	0	0	511	513	0	0	
1	0	0	0	0	511	513	0	0	
2	0	0	0	0	509	511	0	0	
3	0	0	0	0	508	510	0	0	
4	0	0	0	0	508	511	0	0	
5	0	0	0	0	505	511	0	0	
6	0	0	0	0	506	510	0	0	
7	0	0	0	0	506	509	0	0	
8	0	0	0	0	502	509	0	0	
9	0	0	0	0	505	511	0	0	
10	0	0	0	0	506	510	0	0	
11	0	0	0	0	508	510	0	0	
12	0	0	0	0	508	508	0	0	
13	0	0	0	0	508	512	0	0	
14	0	0	0	0	510	508	0	0	
15	0	0	0	0	511	510	0	0	
0	0	0	0	0	512	511	0	0	
1	0	0	0	0	510	511	0	0	
2	0	0	0	0	514	511	0	0	
3	0	0	0	0	511	512	0	0	
4	0	0	0	0	515	511	0	0	
5	0	0	0	0	509	512	0	0	
6	0	0	0	0	508	508	0	0	
7	0	0	0	0	507	508	0	0	
8	0	0	0	0	506	512	0	0	
9	0	0	0	0	505	510	0	0	
10	0	0	0	0	505	510	0	0	
11	0	0	0	0	504	511	0	0	
12	0	0	0	0	505	509	0	0	
13	0	0	0	0	505	510	0	0	
14	0	0	0	0	508	510	0	0	
15	0	0	0	0	507	508	0	0	
0	0	0	0	0	508	511	0	0	
1	0	0	0	0	509	508	0	0	
2	0	0	0	0	509	511	0	0	
3	0	0	0	0	512	511	0	0	
4	0	0	0	0	514	512	0	0	
5	0	0	0	0	511	512	0	0	
6	0	0	0	0	513	511	0	0	
7	0	0	0	0	511	513	0	0	
8	0	0	0	0	512	512	0	0	
9	0	0	0	0	512	513	0	0	
10	0	0	0	0	508	509	0	0	
11	0	0	0	0	507	511	0	0	
12	0	0	0	0	506	511	0	0	
13	0	0	0	0	506	510	0	0	
14	0	0	0	0	507	509	0	0	
15	0	0	0	0	504	511	0	0	
0	0	0	0	0	506	510	0	0	
1	0	0	0	0	505	511	0	0	
2	0	0	0	0	507	511	0	0	
3	0	0	0	0	508	508	0	0	
4	0	0	0	0	508	508	0	0	
5	0	0	0	0	509	511	0	0	
6	0	0	0	0	510	508	0	0	
7	0	0	0	0	510	510	0	0	
8	0	0	0	0	510	510	0	0	
9	0	0	0	0	511	510	0	0	
10	0	0	0	0	513	511	0	0	
11	0	0	0	0	511	512	0	0	
12	0	0	0	0	509	511	0	0	
13	0	0	0	0	508	513	0	0	
14	0	0	0	0	508	512	0	0	
15	0	0	0	0	507	512	0	0	
0	0	0	0	0	510	510	0	0	
1	0	0	0	0	506	509	0	0	
2	0	0	0	0	506	509	0	0	
3	0	0	0	0	507	510	0	0	
4	0	0	0	0	504	511	0	0	
5	0	0	0	0	506	509	0	0	
6	0	0	0	0	505	508	0	0	
7	0	0	0	0	506	510	0	0	
8	0	0	0	0	507	509	0	0	
9	0	0	0	0	505	508	0	0	
10	0	0	0	0	508	510	0	0	
11	0	0	0	0	512	511	0	0	
12	0	0	0	0	513	510	0	0	
13	0	0	0	0	512	510	0	0	
14	0	0	0	0	512	511	0	0	
15	0	0	0	0	511	511	0	0	
0	0	0	0	0	508	513	0	0	
1	0	0	0	0	511	511	0	0	
2	0	0	0	0	510	511	0	0	
3	0	0	0	0	509	512	0	0	
4	0	0	0	0	510	511	0	0	
5	0	0	0	0	506	510	0	0	
6	0	0	0	0	504	511	0	0	
7	0	0	0	0	505	510	0	0	
8	0	0	0	0	505	508	0	0	
9	0	0	0	0	506	511	0	0	
10	0	0	0	0	505	510	0	0	
11	0	0	0	0	508	511	0	0	
12	0	0	0	0	509	509	0	0	
13	0	0	0	0	508	510	0	0	
14	0	0	0	0	511	511	0	0	
15	0	0	0	0	512	509	0	0	
0	0	0	0	0	513	511	0	0	
1	0	0	0	0	513	511	0	0	
2	0	0	0	0	509	508	0	0	
3	0	0	0	0	511	512	0	0	
4	0	0	0	0	508	512	0	0	
5	0	0	0	0	510	512	0	0	
6	0	0	0	0	510	512	0	0	
7	0	0	0	0	508	511	0	0	
8	0	0	0	0	506	512	0	0	
9	0	0	0	0	506	510	0	0	
10	0	0	0	0	506	510	0	0	
11	0	0	0	0	506	512	0	0	
12	0	0	0	0	506	508	0	0	
13	0	0	0	0	506	510	0	0	
14	0	0	0	0	505	511	0	0	
15	0	0	0	0	505	510	0	0	
0	0	0	0	0	507	510	0	0	
1	0	0	0	0	507	512	0	0	
2	0	0	0	0	510	513	0	0	
3	0	0	0	0	512	511	0	0	
4	0	0	0	0	511	510	0	0	
5	0	0	0	0	515	511	0	0	
6	0	0	0	0	512	511	0	0	
7	0	0	0	0	511	511	0	0	
8	0	0	0	0	510	509	0	0	
9	0	0	0	0	510	509	0	0	
10	0	0	0	0	508	510	0	0	
11	0	0	0	0	508	508	0	0	
12	0	0	0	0	508	508	0	0	
13	0	0	0	0	507	511	0	0	
14	0	0	0	0	508	512	0	0	
15	0	0	0	0	506	511	0	0	
0	0	0	0	0	504	510	0	0	
1	0	0	0	0	507	510	0	0	
2	0	0	0	0	507	508	0	0	
3	0	0	0	0	508	511	0	0	
4	0	0	0	0	508	511	0	0	
5	0	0	0	0	510	510	0	0	
6	0	0	0	0	511	512	0	0	
7	0	0	0	0	510	509	0	0	
8	0	0	0	0	510	511	0	0	
9	0	0	0	0	511	511	0	0	
10	0	0	0	0	511	511	0	0	
11	0	0	0	0	513	512	0	0	
12	0	0	0	0	512	512	0	0	
13	0	0	0	0	511	511	0	0	
14	0	0	0	0	511	512	0	0	
15	0	0	0	0	509	510	0	0	
0	0	0	0	0	507	511	0	0	
1	0	0	0	0	505	509	0	0	
2	0	0	0	0	504	508	0	0	
3	0	0	0	0	505	510	0	0	
4	0	0	0	0	507	511	0	0	
5	0	0	0	0	507	510	0	0	
6	0	0	0	0	503	510	0	0	
7	0	0	0	0	507	510	0	0	
8	0	0	0	0	509	509	0	0	
9	0	0	0	0	508	510	0	0	
10	0	0	0	0	509	510	0	0	
11	0	0	0	0	511	508	0	0	
12	0	0	0	0	512	511	0	0	
13	0	0	0	0	511	514	0	0	
14	0	0	0	0	512	513	0	0	
15	0	0	0	0	511	512	0	0	
0	0	0	0	0	512	512	0	0	
1	0	0	0	0	510	511	0	0	
2	0	0	0	0	508	511	0	0	
3	0	0	0	0	507	511	0	0	
4	0	0	0	0	507	512	0	0	
5	0	0	0	0	506	511	0	0	
6	0	0	0	0	505	511	0	0	
7	0	0	0	0	505	510	0	0	
8	0	0	0	0	501	509	0	0	
9	0	0	0	0	504	511	0	0	
10	0	0	0	0	507	511	0	0	
11	0	0	0	0	510	510	0	0	
12	0	0	0	0	511	512	0	0	
13	0	0	0	0	510	510	0	0	
14	0	0	0	0	510	511	0	0	
15	0	0	0	0	510	512	0	0	
0	0	0	0	0	511	513	0	0	
1	0	0	0	0	513	512	0	0	
2	0	0	0	0	514	511	0	0	
3	0	0	0	0	511	511	0	0	
4	0	0	0	0	511	508	0	0	
5	0	0	0	0	509	508	0	0	
6	0	0	0	0	511	511	0	0	
7	0	0	0	0	509	508	0	0	
8	0	0	0	0	507	511	0	0	
9	0	0	0	0	505	511	0	0	
10	0	0	0	0	507	508	0	0	
11	0	0	0	0	503	508	0	0	
12	0	0	0	0	505	507	0	0	
13	0	0	0	0	504	507	0	0	
14	0	0	0	0	504	507	0	0	
15	0	0	0	0	508	507	0	0	
0	0	0	0	0	511	509	0	0	
1	0	0	0	0	510	512	0	0	
2	0	0	0	0	510	511	0	0	
3	0	0	0	0	512	510	0	0	
4	0	0	0	0	509	511	0	0	
5	0	0	0	0	510	511	0	0	
6	0	0	0	0	512	513	0	0	
7	0	0	0	0	511	512	0	0	
8	0	0	0	0	511	513	0	0	
9	0	0	0	0	508	509	0	0	
10	0	0	0	0	509	511	0	0	
11	0	0	0	0	510	514	0	0	
12	0	0	0	0	508	513	0	0	
13	0	0	0	0	509	512	0	0	
14	0	0	0	0	506	512	0	0	
15	0	0	0	0	503	511	0	0	
0	0	0	0	0	504	512	0	0	
1	0	0	0	0	504	510	0	0	
2	0	0	0	0	505	508	0	0	
3	0	0	0	0	505	508	0	0	
4	0	0	0	0	509	512	0	0	
5	0	0	0	0	511	511	0	0	
6	0	0	0	0	512	511	0	0	
7	0	0	0	0	510	511	0	0	
8	0	0	0	0	510	511	0	0	
9	0	0	0	0	512	512	0	0	
10	0	0	0	0	513	512	0	0	
11	0	0	0	0	511	511	0	0	
12	0	0	0	0	510	513	0	0	
13	0	0	0	0	509	511	0	0	
14	0	0	0	0	508	511	0	0	
15	0	0	0	0	508	512	0	0	
0	0	0	0	0	507	513	0	0	
1	0	0	0	0	505	514	0	0	
2	0	0	0	0	504	513	0	0	
3	0	0	0	0	505	512	0	0	
4	0	0	0	0	505	512	0	0	
5	0	0	0	0	505	510	0	0	
6	0	0	0	0	506	508	0	0	
7	0	0	0	0	510	509	0	0	
8	0	0	0	0	511	511	0	0	
9	0	0	0	0	508	509	0	0	
10	0	0	0	0	510	511	0	0	
11	0	0	0	0	509	510	0	0	
12	0	0	0	0	510	508	0	0	
13	0	0	0	0	513	510	0	0	
14	0	0	0	0	512	508	0	0	
15	0	0	0	0	511	505	0	0	
0	0	0	0	0	510	508	0	0	
1	0	0	0	0	512	506	0	0	
2	0	0	0	0	510	507	0	0	
3	0	0	0	0	506	506	0	0	
4	0	0	0	0	507	507	0	0	
5	0	0	0	0	505	508	0	0	
6	0	0	0	0	504	508	0	0	
7	0	0	0	0	505	508	0	0	
8	0	0	0	0	505	507	0	0	
9	0	0	0	0	508	507	0	0	
10	0	0	0	0	506	510	0	0	
11	0	0	0	0	509	511	0	0	
12	0	0	0	0	507	511	0	0	
13	0	0	0	0	508	511	0	0	
14	0	0	0	0	511	511	0	0	
15	0	0	0	0	512	511	0	0	
0	0	0	0	0	513	512	0	0	
1	0	0	0	0	514	512	0	0	
2	0	0	0	0	511	513	0	0	
3	0	0	0	0	508	511	0	0	
4	0	0	0	0	511	508	0	0	
5	0	0	0	0	511	512	0	0	
6	0	0	0	0	511	510	0	0	
7	0	0	0	0	510	513	0	0	
8	0	0	0	0	507	511	0	0	
9	0	0	0	0	507	510	0	0	
10	0	0	0	0	505	512	0	0	
11	0	0	0	0	504	515	0	0	
12	0	0	0	0	505	512	0	0	
13	0	0	0	0	506	513	0	0	
14	0	0	0	0	505	512	0	0	
15	0	0	0	0	508	509	0	0	
0	0	0	0	0	507	511	0	0	
1	0	0	0	0	510	508	0	0	
2	0	0	0	0	511	511	0	0	
3	0	0	0	0	505	511	0	0	
4	0	0	0	0	509	514	0	0	
5	0	0	0	0	513	513	0	0	
6	0	0	0	0	513	513	0	0	
7	0	0	0	0	512	511	0	0	
8	0	0	0	0	512	511	0	0	
9	0	0	0	0	507	509	0	0	
10	0	0	0	0	508	511	0	0	
11	0	0	0	0	505	510	0	0	
12	0	0	0	0	507	511	0	0	
13	0	0	0	0	509	511	0	0	
14	0	0	0	0	506	511	0	0	
15	0	0	0	0	508	510	0	0	
0	0	0	0	0	504	510	0	0	
1	0	0	0	0	505	513	0	0	
2	0	0	0	0	505	512	0	0	
3	0	0	0	0	507	510	0	0	
4	0	0	0	0	508	507	0	0	
5	0	0	0	0	511	509	0	0	
6	0	0	0	0	511	512	0	0	
7	0	0	0	0	509	512	0	0	
8	0	0	0	0	511	513	0	0	
9	0	0	0	0	513	513	0	0	
10	0	0	0	0	512	509	0	0	
11	0	0	0	0	511	513	0	0	
12	0	0	0	0	510	508	0	0	
13	0	0	0	0	509	509	0	0	
14	0	0	0	0	508	509	0	0	
15	0	0	0	0	507	510	0	0	
0	0	0	0	0	506	511	0	0	
1	0	0	0	0	507	511	0	0	
2	0	0	0	0	508	511	0	0	
3	0	0	0	0	504	512	0	0	
4	0	0	0	0	504	509	0	0	
5	0	0	0	0	507	510	0	0	
6	0	0	0	0	505	510	0	0	
7	0	0	0	0	507	510	0	0	
8	0	0	0	0	509	508	0	0	
9	0	0	0	0	508	509	0	0	
10	0	0	0	0	511	509	0	0	
11	0	0	0	0	511	510	0	0	
12	0	0	0	0	512	509	0	0	
13	0	0	0	0	513	511	0	0	
14	0	0	0	0	511	511	0	0	
15	0	0	0	0	510	510	0	0	
0	0	0	0	0	509	509	0	0	
1	0	0	0	0	508	509	0	0	
2	0	0	0	0	508	514	0	0	
3	0	0	0	0	510	511	0	0	
4	0	0	0	0	508	512	0	0	
5	0	0	0	0	508	510	0	0	
6	0	0	0	0	507	510	0	0	
7	0	0	0	0	505	508	0	0	
8	0	0	0	0	505	510	0	0	
9	0	0	0	0	504	510	0	0	
10	0	0	0	0	504	511	0	0	
11	0	0	0	0	508	511	0	0	
12	0	0	0	0	508	510	0	0	
13	0	0	0	0	508	511	0	0	
14	0	0	0	0	509	512	0	0	
15	0	0	0	0	510	510	0	0	
0	0	0	0	0	511	510	0	0	
1	0	0	0	0	511	511	0	0	
2	0	0	0	0	513	512	0	0	
3	0	0	0	0	513	511	0	0	
4	0	0	0	0	511	510	0	0	
5	0	0	0	0	510	511	0	0	
6	0	0	0	0	509	507	0	0	
7	0	0	0	0	509	510	0	0	
8	0	0	0	0	507	511	0	0	
9	0	0	0	0	504	512	0	0	
10	0	0	0	0	506	511	0	0	
11	0	0	0	0	505	510	0	0	
12	0	0	0	0	503	512	0	0	
13	0	0	0	0	507	510	0	0	
14	0	0	0	0	504	511	0	0	
15	0	0	0	0	508	511	0	0	
0	0	0	0	0	508	511	0	0	
1	0	0	0	0	511	510	0	0	
2	0	0	0	0	511	510	0	0	
3	0	0	0	0	513	511	0	0	
4	0	0	0	0	511	510	0	0	
5	0	0	0	0	513	513	0	0	
6	0	0	0	0	511	512	0	0	
7	0	0	0	0	512	515	0	0	
8	0	0	0	0	507	511	0	0	
9	0	0	0	0	507	512	0	0	
10	0	0	0	0	508	510	0	0	
11	0	0	0	0	507	513	0	0	
12	0	0	0	0	508	511	0	0	
13	0	0	0	0	505	510	0	0	
14	0	0	0	0	506	510	0	0	
15	0	0	0	0	506	510	0	0	
0	0	0	0	0	504	508	0	0	
1	0	0	0	0	504	508	0	0	
2	0	0	0	0	505	510	0	0	
3	0	0	0	0	506	510	0	0	
4	0	0	0	0	507	509	0	0	
5	0	0	0	0	511	509	0	0	
6	0	0	0	0	512	512	0	0	
7	0	0	0	0	510	511	0	0	
8	0	0	0	0	510	508	0	0	
9	0	0	0	0	513	510	0	0	
10	0	0	0	0	511	513	0	0	
11	0	0	0	0	511	511	0	0	
12	0	0	0	0	511	511	0	0	
13	0	0	0	0	510	513	0	0	
14	0	0	0	0	510	513	0	0	
15	0	0	0	0	509	512	0	0	
0	0	0	0	0	507	514	0	0	
1	0	0	0	0	504	512	0	0	
2	0	0	0	0	507	510	0	0	
3	0	0	0	0	505	508	0	0	
4	0	0	0	0	506	507	0	0	
5	0	0	0	0	504	509	0	0	
6	0	0	0	0	507	509	0	0	
7	0	0	0	0	507	510	0	0	
8	0	0	0	0	506	509	0	0	
9	0	0	0	0	508	510	0	0	
10	0	0	0	0	510	509	0	0	
11	0	0	0	0	511	508	0	0	
12	0	0	0	0	510	509	0	0	
13	0	0	0	0	513	509	0	0	
14	0	0	0	0	512	509	0	0	
15	0	0	0	0	509	512	0	0	
0	0	0	0	0	511	512	0	0	
1	0	0	0	0	511	510	0	0	
2	0	0	0	0	511	510	0	0	
3	0	0	0	0	510	509	0	0	
4	0	0	0	0	510	510	0	0	
5	0	0	0	0	506	511	0	0	
6	0	0	0	0	507	509	0	0	
7	0	0	0	0	504	511	0	0	
8	0	0	0	0	505	511	0	0	
9	0	0	0	0	505	510	0	0	
10	0	0	0	0	505	510	0	0	
11	0	0	0	0	505	508	0	0	
12	0	0	0	0	506	513	0	0	
13	0	0	0	0	509	511	0	0	
14	0	0	0	0	510	512	0	0	
15	0	0	0	0	513	509	0	0	
0	0	0	0	0	513	510	0	0	
1	0	0	0	0	512	511	0	0	
2	0	0	0	0	512	512	0	0	
3	0	0	0	0	513	512	0	0	
4	0	0	0	0	511	511	0	0	
5	0	0	0	0	507	512	0	0	
6	0	0	0	0	508	511	0	0	
7	0	0	0	0	508	510	0	0	
8	0	0	0	0	508	510	0	0	
9	0	0	0	0	505	511	0	0	
10	0	0	0	0	505	511	0	0	
11	0	0	0	0	505	510	0	0	
12	0	0	0	0	503	512	0	0	
13	0	0	0	0	507	510	0	0	
14	0	0	0	0	506	511	0	0	
15	0	0	0	0	508	509	0	0	
0	0	0	0	0	507	511	0	0	
1	0	0	0	0	511	511	0	0	
2	0	0	0	0	510	513	0	0	
3	0	0	0	0	511	511	0	0	
4	0	0	0	0	511	511	0	0	
5	0	0	0	0	512	511	0	0	
6	0	0	0	0	513	511	0	0	
7	0	0	0	0	511	508	0	0	
8	0	0	0	0	512	511	0	0	
9	0	0	0	0	508	510	0	0	
10	0	0	0	0	507	511	0	0	
11	0	0	0	0	507	512	0	0	
12	0	0	0	0	506	511	0	0	
13	0	0	0	0	506	511	0	0	
14	0	0	0	0	508	508	0	0	
15	0	0	0	0	504	511	0	0	
0	0	0	0	0	504	511	0	0	
1	0	0	0	0	504	512	0	0	
2	0	0	0	0	505	510	0	0	
3	0	0	0	0	507	511	0	0	
4	0	0	0	0	509	509	0	0	
5	0	0	0	0	510	508	0	0	
6	0	0	0	0	510	508	0	0	
7	0	0	0	0	510	511	0	0	
8	0	0	0	0	508	510	0	0	
9	0	0	0	0	513	508	0	0	
10	0	0	0	0	515	508	0	0	
11	0	0	0	0	514	507	0	0	
12	0	0	0	0	513	511	0	0	
13	0	0	0	0	510	511	0	0	
14	0	0	0	0	512	511	0	0	
15	0	0	0	0	504	510	0	0	
0	0	0	0	0	503	510	0	0	
1	0	0	0	0	505	510	0	0	
2	0	0	0	0	504	509	0	0	
3	0	0	0	0	504	511	0	0	
4	0	0	0	0	505	510	0	0	
5	0	0	0	0	507	511	0	0	
6	0	0	0	0	506	509	0	0	
7	0	0	0	0	508	511	0	0	
8	0	0	0	0	507	510	0	0	
9	0	0	0	0	508	511	0	0	
10	0	0	0	0	510	513	0	0	
11	0	0	0	0	511	509	0	0	
12	0	0	0	0	512	511	0	0	
13	0	0	0	0	511	514	0	0	
14	0	0	0	0	513	512	0	0	
15	0	0	0	0	511	509	0	0	
0	0	0	0	0	509	509	0	0	
1	0	0	0	0	508	511	0	0	
2	0	0	0	0	509	509	0	0	
3	0	0	0	0	509	511	0	0	
4	0	0	0	0	508	510	0	0	
5	0	0	0	0	508	511	0	0	
6	0	0	0	0	507	510	0	0	
7	0	0	0	0	505	511	0	0	
8	0	0	0	0	505	511	0	0	
9	0	0	0	0	505	510	0	0	
10	0	0	0	0	505	512	0	0	
11	0	0	0	0	507	512	0	0	
12	0	0	0	0	509	511	0	0	
13	0	0	0	0	509	512	0	0	
14	0	0	0	0	511	513	0	0	
15	0	0	0	0	510	511	0	0	
0	0	0	0	0	508	512	0	0	
1	0	0	0	0	511	511	0	0	
2	0	0	0	0	513	510	0	0	
3	0	0	0	0	512	511	0	0	
4	0	0	0	0	511	512	0	0	
5	0	0	0	0	511	511	0	0	
6	0	0	0	0	509	510	0	0	
7	0	0	0	0	508	510	0	0	
8	0	0	0	0	510	510	0	0	
9	0	0	0	0	508	511	0	0	
10	0	0	0	0	505	509	0	0	
11	0	0	0	0	503	508	0	0	
12	0	0	0	0	505	510	0	0	
13	0	0	0	0	504	508	0	0	
14	0	0	0	0	504	511	0	0	
15	0	0	0	0	507	509	0	0	
0	0	0	0	0	508	512	0	0	
1	0	0	0	0	510	510	0	0	
2	0	0	0	0	512	510	0	0	
3	0	0	0	0	510	511	0	0	
4	0	0	0	0	514	511	0	0	
5	0	0	0	0	512	511	0	0	
6	0	0	0	0	511	507	0	0	
7	0	0	0	0	513	512	0	0	
8	0	0	0	0	510	511	0	0	
9	0	0	0	0	509	511	0	0	
10	0	0	0	0	509	511	0	0	
11	0	0	0	0	508	512	0	0	
12	0	0	0	0	509	511	0	0	
13	0	0	0	0	507	510	0	0	
14	0	0	0	0	507	509	0	0	
15	0	0	0	0	508	508	0	0	
0	0	0	0	0	505	509	0	0	
1	0	0	0	0	507	510	0	0	
2	0	0	0	0	504	508	0	0	
3	0	0	0	0	505	510	0	0	
4	0	0	0	0	509	510	0	0	
5	0	0	0	0	509	509	0	0	
6	0	0	0	0	512	511	0	0	
7	0	0	0	0	512	510	0	0	
8	0	0	0	0	511	511	0	0	
9	0	0	0	0	511	511	0	0	
10	0	0	0	0	511	513	0	0	
11	0	0	0	0	511	509	0	0	
12	0	0	0	0	510	511	0	0	
13	0	0	0	0	510	511	0	0	
14	0	0	0	0	509	514	0	0	
15	0	0	0	0	507	513	0	0	
0	0	0	0	0	506	511	0	0	
1	0	0	0	0	505	511	0	0	
2	0	0	0	0	507	513	0	0	
3	0	0	0	0	507	511	0	0	
4	0	0	0	0	507	509	0	0	
5	0	0	0	0	506	510	0	0	
6	0	0	0	0	504	508	0	0	
7	0	0	0	0	507	508	0	0	
8	0	0	0	0	508	511	0	0	
9	0	0	0	0	508	509	0	0	
10	0	0	0	0	512	511	0	0	
11	0	0	0	0	510	511	0	0	
12	0	0	0	0	510	512	0	0	
13	0	0	0	0	513	511	0	0	
14	0	0	0	0	512	510	0	0	
15	0	0	0	0	513	511	0	0	
0	0	0	0	0	511	511	0	0	
1	0	0	0	0	509	511	0	0	
2	0	0	0	0	508	512	0	0	
3	0	0	0	0	508	512	0	0	
4	0	0	0	0	504	510	0	0	
5	0	0	0	0	506	511	0	0	
6	0	0	0	0	508	511	0	0	
7	0	0	0	0	504	509	0	0	
8	0	0	0	0	507	509	0	0	
9	0	0	0	0	507	509	0	0	
10	0	0	0	0	508	509	0	0	
11	0	0	0	0	507	509	0	0	
12	0	0	0	0	507	510	0	0	
13	0	0	0	0	509	510	0	0	
14	0	0	0	0	510	508	0	0	
15	0	0	0	0	511	510	0	0	
0	0	0	0	0	512	512	0	0	
1	0	0	0	0	512	513	0	0	
2	0	0	0	0	509	513	0	0	
3	0	0	0	0	511	512	0	0	
4	0	0	0	0	511	514	0	0	
5	0	0	0	0	510	510	0	0	
6	0	0	0	0	509	510	0	0	
7	0	0	0	0	507	513	0	0	
8	0	0	0	0	508	513	0	0	
9	0	0	0	0	508	509	0	0	
10	0	0	0	0	506	511	0	0	
11	0	0	0	0	506	510	0	0	
12	0	0	0	0	506	511	0	0	
13	0	0	0	0	505	510	0	0	
14	0	0	0	0	509	510	0	0	
15	0	0	0	0	510	508	0	0	
0	0	0	0	0	507	508	0	0	
1	0	0	0	0	506	510	0	0	
2	0	0	0	0	508	512	0	0	
3	0	0	0	0	509	513	0	0	
4	0	0	0	0	508	510	0	0	
5	0	0	0	0	510	511	0	0	
6	0	0	0	0	512	510	0	0	
7	0	0	0	0	512	512	0	0	
8	0	0	0	0	515	511	0	0	
9	0	0	0	0	511	510	0	0	
10	0	0	0	0	511	511	0	0	
11	0	0	0	0	510	512	0	0	
12	0	0	0	0	508	511	0	0	
13	0	0	0	0	506	511	0	0	
14	0	0	0	0	505	510	0	0	
15	0	0	0	0	504	511	0	0	
0	0	0	0	0	504	510	0	0	
1	0	0	0	0	505	508	0	0	
2	0	0	0	0	507	511	0	0	
3	0	0	0	0	509	511	0	0	
4	0	0	0	0	508	507	0	0	
5	0	0	0	0	507	512	0	0	
6	0	0	0	0	510	509	0	0	
7	0	0	0	0	512	510	0	0	
8	0	0	0	0	513	509	0	0	
9	0	0	0	0	512	509	0	0	
10	0	0	0	0	512	511	0	0	
11	0	0	0	0	511	511	0	0	
12	0	0	0	0	512	511	0	0	
13	0	0	0	0	510	509	0	0	
14	0	0	0	0	510	511	0	0	
15	0	0	0	0	507	512	0	0	
0	0	0	0	0	506	511	0	0	
1	0	0	0	0	505	510	0	0	
2	0	0	0	0	507	513	0	0	
3	0	0	0	0	505	511	0	0	
4	0	0	0	0	506	512	0	0	
5	0	0	0	0	507	509	0	0	
6	0	0	0	0	505	508	0	0	
7	0	0	0	0	507	507	0	0	
8	0	0	0	0	508	508	0	0	
9	0	0	0	0	506	509	0	0	
10	0	0	0	0	509	510	0	0	
11	0	0	0	0	511	511	0	0	
12	0	0	0	0	511	510	0	0	
13	0	0	0	0	515	511	0	0	
14	0	0	0	0	513	511	0	0	
15	0	0	0	0	512	513	0	0	
0	0	0	0	0	510	511	0	0	
1	0	0	0	0	509	511	0	0	
2	0	0	0	0	509	514	0	0	
3	0	0	0	0	508	511	0	0	
4	0	0	0	0	508	512	0	0	
5	0	0	0	0	507	511	0	0	
6	0	0	0	0	507	511	0	0	
7	0	0	0	0	508	512	0	0	
8	0	0	0	0	504	508	0	0	
9	0	0	0	0	506	510	0	0	
10	0	0	0	0	505	507	0	0	
11	0	0	0	0	507	509	0	0	
12	0	0	0	0	508	510	0	0	
13	0	0	0	0	510	510	0	0	
14	0	0	0	0	508	513	0	0	
15	0	0	0	0	510	512	0	0	
0	0	0	0	0	511	512	0	0	
1	0	0	0	0	509	510	0	0	
2	0	0	0	0	511	511	0	0	
3	0	0	0	0	511	511	0	0	
4	0	0	0	0	511	510	0	0	
5	0	0	0	0	511	509	0	0	
6	0	0	0	0	510	510	0	0	
7	0	0	0	0	508	512	0	0	
8	0	0	0	0	508	512	0	0	
9	0	0	0	0	506	509	0	0	
10	0	0	0	0	507	509	0	0	
11	0	0	0	0	507	509	0	0	
12	0	0	0	0	508	509	0	0	
13	0	0	0	0	507	512	0	0	
14	0	0	0	0	506	511	0	0	
15	0	0	0	0	507	509	0	0	
0	0	0	0	0	506	509	0	0	
1	0	0	0	0	508	511	0	0	
2	0	0	0	0	511	509	0	0	
3	0	0	0	0	512	512	0	0	
4	0	0	0	0	511	512	0	0	
5	0	0	0	0	512	510	0	0	
6	0	0	0	0	511	512	0	0	
7	0	0	0	0	510	510	0	0	
8	0	0	0	0	512	509	0	0	
9	0	0	0	0	512	509	0	0	
10	0	0	0	0	509	509	0	0	
11	0	0	0	0	507	510	0	0	
12	0	0	0	0	505	510	0	0	
13	0	0	0	0	503	508	0	0	
14	0	0	0	0	504	509	0	0	
15	0	0	0	0	506	508	0	0	
0	0	0	0	0	508	508	0	0	
1	0	0	0	0	510	511	0	0	
2	0	0	0	0	510	510	0	0	
3	0	0	0	0	510	511	0	0	
4	0	0	0	0	506	509	0	0	
5	0	0	0	0	510	508	0	0	
6	0	0	0	0	508	510	0	0	
7	0	0	0	0	508	512	0	0	
8	0	0	0	0	508	510	0	0	
9	0	0	0	0	511	512	0	0	
10	0	0	0	0	512	511	0	0	
11	0	0	0	0	511	512	0	0	
12	0	0	0	0	511	512	0	0	
13	0	0	0	0	509	511	0	0	
14	0	0	0	0	509	510	0	0	
15	0	0	0	0	510	512	0	0	
0	0	0	0	0	508	512	0	0	
1	0	0	0	0	509	511	0	0	
2	0	0	0	0	505	513	0	0	
3	0	0	0	0	505	512	0	0	
4	0	0	0	0	504	508	0	0	
5	0	0	0	0	505	511	0	0	
6	0	0	0	0	508	510	0	0	
7	0	0	0	0	508	508	0	0	
8	0	0	0	0	508	509	0	0	
9	0	0	0	0	508	510	0	0	
10	0	0	0	0	510	510	0	0	
11	0	0	0	0	511	508	0	0	
12	0	0	0	0	507	510	0	0	
13	0	0	0	0	511	512	0	0	
14	0	0	0	0	509	512	0	0	
15	0	0	0	0	510	514	0	0	
0	0	0	0	0	509	511	0	0	
1	0	0	0	0	512	511	0	0	
2	0	0	0	0	509	510	0	0	
3	0	0	0	0	511	513	0	0	
4	0	0	0	0	508	512	0	0	
5	0	0	0	0	508	510	0	0	
6	0	0	0	0	506	508	0	0	
7	0	0	0	0	508	509	0	0	
8	0	0	0	0	508	510	0	0	
9	0	0	0	0	506	512	0	0	
10	0	0	0	0	504	510	0	0	
11	0	0	0	0	507	510	0	0	
12	0	0	0	0	509	510	0	0	
13	0	0	0	0	510	510	0	0	
14	0	0	0	0	509	509	0	0	
15	0	0	0	0	509	511	0	0	
0	0	0	0	0	510	510	0	0	
1	0	0	0	0	510	513	0	0	
2	0	0	0	0	512	511	0	0	
3	0	0	0	0	511	514	0	0	
4	0	0	0	0	510	511	0	0	
5	0	0	0	0	511	511	0	0	
6	0	0	0	0	511	513	0	0	
7	0	0	0	0	509	511	0	0	
8	0	0	0	0	510	511	0	0	
9	0	0	0	0	507	511	0	0	
10	0	0	0	0	507	510	0	0	
11	0	0	0	0	508	509	0	0	
12	0	0	0	0	504	508	0	0	
13	0	0	0	0	506	508	0	0	
14	0	0	0	0	507	508	0	0	
15	0	0	0	0	507	511	0	0	
0	0	0	0	0	506	512	0	0	
1	0	0	0	0	507	512	0	0	
2	0	0	0	0	510	510	0	0	
3	0	0	0	0	507	510	0	0	
4	0	0	0	0	510	512	0	0	
5	0	0	0	0	511	509	0	0	
6	0	0	0	0	512	509	0	0	
7	0	0	0	0	512	511	0	0	
8	0	0	0	0	510	509	0	0	
9	0	0	0	0	509	510	0	0	
10	0	0	0	0	507	511	0	0	
11	0	0	0	0	509	510	0	0	
12	0	0	0	0	508	512	0	0	
13	0	0	0	0	505	512	0	0	
14	0	0	0	0	508	511	0	0	
15	0	0	0	0	508	510	0	0	
0	0	0	0	0	508	510	0	0	
1	0	0	0	0	505	510	0	0	
2	0	0	0	0	507	510	0	0	
3	0	0	0	0	508	511	0	0	
4	0	0	0	0	507	509	0	0	
5	0	0	0	0	509	511	0	0	
6	0	0	0	0	509	510	0	0	
7	0	0	0	0	509	509	0	0	
8	0	0	0	0	511	510	0	0	
9	0	0	0	0	509	511	0	0	
10	0	0	0	0	508	511	0	0	
11	0	0	0	0	511	510	0	0	
12	0	0	0	0	512	509	0	0	
13	0	0	0	0	510	509	0	0	
14	0	0	0	0	509	510	0	0	
15	0	0	0	0	507	509	0	0	
0	0	0	0	0	506	512	0	0	
1	0	0	0	0	506	510	0	0	
2	0	0	0	0	507	510	0	0	
3	0	0	0	0	507	510	0	0	
4	0	0	0	0	506	510	0	0	
5	0	0	0	0	507	510	0	0	
6	0	0	0	0	508	508	0	0	
7	0	0	0	0	505	510	0	0	
8	0	0	0	0	508	511	0	0	
9	0	0	0	0	509	510	0	0	
10	0	0	0	0	510	510	0	0	
11	0	0	0	0	510	508	0	0	
12	0	0	0	0	510	512	0	0	
13	0	0	0	0	512	511	0	0	
14	0	0	0	0	511	510	0	0	
15	0	0	0	0	511	512	0	0	
0	0	0	0	0	509	509	0	0	
1	0	0	0	0	508	512	0	0	
2	0	0	0	0	508	510	0	0	
3	0	0	0	0	508	510	0	0	
4	0	0	0	0	508	510	0	0	
5	0	0	0	0	507	511	0	0	
6	0	0	0	0	505	511	0	0	
7	0	0	0	0	507	510	0	0	
8	0	0	0	0	510	510	0	0	
9	0	0	0	0	508	509	0	0	
10	0	0	0	0	504	508	0	0	
11	0	0	0	0	505	511	0	0	
12	0	0	0	0	507	511	0	0	
13	0	0	0	0	505	508	0	0	
14	0	0	0	0	507	511	0	0	
15	0	0	0	0	508	510	0	0	
0	0	0	0	0	513	511	0	0	
1	0	0	0	0	513	510	0	0	
2	0	0	0	0	512	510	0	0	
3	0	0	0	0	512	514	0	0	
4	0	0	0	0	511	512	0	0	
5	0	0	0	0	511	512	0	0	
6	0	0	0	0	509	509	0	0	
7	0	0	0	0	507	509	0	0	
8	0	0	0	0	508	511	0	0	
9	0	0	0	0	505	510	0	0	
10	0	0	0	0	505	510	0	0	
11	0	0	0	0	508	511	0	0	
12	0	0	0	0	507	510	0	0	
13	0	0	0	0	507	509	0	0	
14	0	0	0	0	508	509	0	0	
15	0	0	0	0	508	512	0	0	
0	0	0	0	0	507	511	0	0	
1	0	0	0	0	508	513	0	0	
2	0	0	0	0	508	514	0	0	
3	0	0	0	0	510	511	0	0	
4	0	0	0	0	510	514	0	0	
5	0	0	0	0	511	512	0	0	
6	0	0	0	0	509	511	0	0	
7	0	0	0	0	510	508	0	0	
8	0	0	0	0	508	512	0	0	
9	0	0	0	0	511	509	0	0	
10	0	0	0	0	510	508	0	0	
11	0	0	0	0	509	508	0	0	
12	0	0	0	0	507	509	0	0	
13	0	0	0	0	507	508	0	0	
14	0	0	0	0	508	510	0	0	
15	0	0	0	0	508	510	0	0	
0	0	0	0	0	508	512	0	0	
1	0	0	0	0	508	511	0	0	
2	0	0	0	0	506	511	0	0	
3	0	0	0	0	508	510	0	0	
4	0	0	0	0	509	510	0	0	
5	0	0	0	0	511	510	0	0	
6	0	0	0	0	511	512	0	0	
7	0	0	0	0	510	511	0	0	
8	0	0	0	0	510	512	0	0	
9	0	0	0	0	509	511	0	0	
10	0	0	0	0	510	510	0	0	
11	0	0	0	0	509	513	0	0	
12	0	0	0	0	511	512	0	0	
13	0	0	0	0	509	511	0	0	
14	0	0	0	0	511	510	0	0	
15	0	0	0	0	509	510	0	0	
0	0	0	0	0	509	511	0	0	
1	0	0	0	0	505	510	0	0	
2	0	0	0	0	506	511	0	0	
3	0	0	0	0	506	513	0	0	
4	0	0	0	0	506	511	0	0	
5	0	0	0	0	505	510	0	0	
6	0	0	0	0	507	510	0	0	
7	0	0	0	0	506	510	0	0	
8	0	0	0	0	510	511	0	0	
9	0	0	0	0	509	509	0	0	
10	0	0	0	0	511	510	0	0	
11	0	0	0	0	511	511	0	0	
12	0	0	0	0	511	510	0	0	
13	0	0	0	0	510	511	0	0	
14	0	0	0	0	509	511	0	0	
15	0	0	0	0	512	511	0	0	
0	0	0	0	0	511	511	0	0	
1	0	0	0	0	511	511	0	0	
2	0	0	0	0	508	511	0	0	
3	0	0	0	0	508	510	0	0	
4	0	0	0	0	508	510	0	0	
5	0	0	0	0	507	510	0	0	
6	0	0	0	0	504	510	0	0	
7	0	0	0	0	505	508	0	0	
8	0	0	0	0	507	507	0	0	
9	0	0	0	0	507	510	0	0	
10	0	0	0	0	507	511	0	0	
11	0	0	0	0	507	509	0	0	
12	0	0	0	0	508	512	0	0	
13	0	0	0	0	510	512	0	0	
14	0	0	0	0	508	510	0	0	
15	0	0	0	0	509	511	0	0	
0	0	0	0	0	510	513	0	0	
1	0	0	0	0	510	512	0	0	
2	0	0	0	0	509	511	0	0	
3	0	0	0	0	511	512	0	0	
4	0	0	0	0	512	510	0	0	
5	0	0	0	0	508	510	0	0	
6	0	0	0	0	508	509	0	0	
7	0	0	0	0	508	509	0	0	
8	0	0	0	0	508	509	0	0	
9	0	0	0	0	508	508	0	0	
10	0	0	0	0	507	509	0	0	
11	0	0	0	0	508	510	0	0	
12	0	0	0	0	506	510	0	0	
13	0	0	0	0	507	510	0	0	
14	0	0	0	0	506	510	0	0	
15	0	0	0	0	506	510	0	0	
0	0	0	0	0	508	511	0	0	
1	0	0	0	0	508	513	0	0	
2	0	0	0	0	509	510	0	0	
3	0	0	0	0	511	514	0	0	
4	0	0	0	0	510	513	0	0	
5	0	0	0	0	510	512	0	0	
6	0	0	0	0	511	511	0	0	
7	0	0	0	0	512	513	0	0	
8	0	0	0	0	509	511	0	0	
9	0	0	0	0	510	510	0	0	
10	0	0	0	0	509	512	0	0	
11	0	0	0	0	507	511	0	0	
12	0	0	0	0	506	512	0	0	
13	0	0	0	0	506	509	0	0	
14	0	0	0	0	509	512	0	0	
15	0	0	0	0	508	513	0	0	
0	0	0	0	0	508	510	0	0	
1	0	0	0	0	509	510	0	0	
2	0	0	0	0	507	510	0	0	
3	0	0	0	0	508	508	0	0	
4	0	0	0	0	506	508	0	0	
5	0	0	0	0	505	509	0	0	
6	0	0	0	0	510	508	0	0	
7	0	0	0	0	509	508	0	0	
8	0	0	0	0	509	510	0	0	
9	0	0	0	0	508	511	0	0	
10	0	0	0	0	510	510	0	0	
11	0	0	0	0	511	508	0	0	
12	0	0	0	0	508	512	0	0	
13	0	0	0	0	509	509	0	0	
14	0	0	0	0	509	512	0	0	
15	0	0	0	0	507	509	0	0	
0	0	0	0	0	509	512	0	0	
1	0	0	0	0	508	511	0	0	
2	0	0	0	0	508	512	0	0	
3	0	0	0	0	507	511	0	0	
4	0	0	0	0	506	511	0	0	
5	0	0	0	0	509	512	0	0	
6	0	0	0	0	508	511	0	0	
7	0	0	0	0	507	508	0	0	
8	0	0	0	0	508	508	0	0	
9	0	0	0	0	508	511	0	0	
10	0	0	0	0	510	510	0	0	
11	0	0	0	0	512	508	0	0	
12	0	0	0	0	510	508	0	0	
13	0	0	0	0	511	509	0	0	
14	0	0	0	0	510	510	0	0	
15	0	0	0	0	509	511	0	0	
0	0	0	0	0	510	512	0	0	
1	0	0	0	0	507	513	0	0	
2	0	0	0	0	507	511	0	0	
3	0	0	0	0	507	512	0	0	
4	0	0	0	0	507	512	0	0	
5	0	0	0	0	508	511	0	0	
6	0	0	0	0	509	511	0	0	
7	0	0	0	0	508	511	0	0	
8	0	0	0	0	510	507	0	0	
9	0	0	0	0	506	509	0	0	
10	0	0	0	0	505	509	0	0	
11	0	0	0	0	507	507	0	0	
12	0	0	0	0	507	509	0	0	
13	0	0	0	0	509	512	0	0	
14	0	0	0	0	510	509	0	0	
15	0	0	0	0	509	511	0	0	
0	0	0	0	0	511	511	0	0	
1	0	0	0	0	509	510	0	0	
2	0	0	0	0	510	511	0	0	
3	0	0	0	0	511	511	0	0	
4	0	0	0	0	511	511	0	0	
5	0	0	0	0	510	512	0	0	
6	0	0	0	0	509	511	0	0	
7	0	0	0	0	507	509	0	0	
8	0	0	0	0	506	512	0	0	
9	0	0	0	0	507	509	0	0	
10	0	0	0	0	509	509	0	0	
11	0	0	0	0	507	508	0	0	
12	0	0	0	0	508	510	0	0	
13	0	0	0	0	508	511	0	0	
14	0	0	0	0	506	512	0	0	
15	0	0	0	0	507	509	0	0	
0	0	0	0	0	510	511	0	0	
1	0	0	0	0	510	509	0	0	
2	0	0	0	0	509	513	0	0	
3	0	0	0	0	509	510	0	0	
4	0	0	0	0	510	511	0	0	
5	0	0	0	0	508	513	0	0	
6	0	0	0	0	511	513	0	0	
7	0	0	0	0	510	512	0	0	
8	0	0	0	0	511	511	0	0	
9	0	0	0	0	510	511	0	0	
10	0	0	0	0	507	510	0	0	
11	0	0	0	0	510	513	0	0	
12	0	0	0	0	508	511	0	0	
13	0	0	0	0	506	512	0	0	
14	0	0	0	0	508	511	0	0	
15	0	0	0	0	507	511	0	0	
0	0	0	0	0	506	509	0	0	
1	0	0	0	0	504	510	0	0	
2	0	0	0	0	507	508	0	0	
3	0	0	0	0	507	510	0	0	
4	0	0	0	0	508	510	0	0	
5	0	0	0	0	509	510	0	0	
6	0	0	0	0	510	509	0	0	
7	0	0	0	0	510	512	0	0	
8	0	0	0	0	512	512	0	0	
9	0	0	0	0	511	509	0	0	
10	0	0	0	0	512	512	0	0	
11	0	0	0	0	511	510	0	0	
12	0	0	0	0	508	510	0	0	
13	0	0	0	0	510	512	0	0	
14	0	0	0	0	508	511	0	0	
15	0	0	0	0	509	511	0	0	
0	0	0	0	0	510	512	0	0	
1	0	0	0	0	508	511	0	0	
2	0	0	0	0	504	509	0	0	
3	0	0	0	0	509	508	0	0	
4	0	0	0	0	506	508	0	0	
5	0	0	0	0	505	509	0	0	
6	0	0	0	0	507	509	0	0	
7	0	0	0	0	507	510	0	0	
8	0	0	0	0	509	509	0	0	
9	0	0	0	0	509	512	0	0	
10	0	0	0	0	511	512	0	0	
11	0	0	0	0	509	510	0	0	
12	0	0	0	0	509	513	0	0	
13	0	0	0	0	511	514	0	0	
14	0	0	0	0	512	509	0	0	
15	0	0	0	0	509	511	0	0	
0	0	0	0	0	509	512	0	0	
1	0	0	0	0	508	510	0	0	
2	0	0	0	0	509	510	0	0	
3	0	0	0	0	509	513	0	0	
4	0	0	0	0	509	513	0	0	
5	0	0	0	0	506	512	0	0	
6	0	0	0	0	508	509	0	0	
7	0	0	0	0	507	508	0	0	
8	0	0	0	0	505	510	0	0	
9	0	0	0	0	506	509	0	0	
10	0	0	0	0	507	509	0	0	
11	0	0	0	0	507	510	0	0	
12	0	0	0	0	507	509	0	0	
13	0	0	0	0	506	511	0	0	
14	0	0	0	0	508	508	0	0	
15	0	0	0	0	511	511	0	0	
0	0	0	0	0	510	508	0	0	
1	0	0	0	0	511	510	0	0	
2	0	0	0	0	512	509	0	0	
3	0	0	0	0	511	511	0	0	
4	0	0	0	0	511	510	0	0	
5	0	0	0	0	509	508	0	0	
6	0	0	0	0	510	511	0	0	
7	0	0	0	0	507	511	0	0	
8	0	0	0	0	507	510	0	0	
9	0	0	0	0	507	508	0	0	
10	0	0	0	0	507	509	0	0	
11	0	0	0	0	507	511	0	0	
12	0	0	0	0	505	510	0	0	
13	0	0	0	0	505	509	0	0	
14	0	0	0	0	507	509	0	0	
15	0	0	0	0	506	510	0	0	
0	0	0	0	0	504	510	0	0	
1	0	0	0	0	509	511	0	0	
2	0	0	0	0	511	511	0	0	
3	0	0	0	0	512	513	0	0	
4	0	0	0	0	512	512	0	0	
5	0	0	0	0	513	511	0	0	
6	0	0	0	0	509	512	0	0	
7	0	0	0	0	511	513	0	0	
8	0	0	0	0	511	512	0	0	
9	0	0	0	0	510	512	0	0	
10	0	0	0	0	507	510	0	0	
11	0	0	0	0	507	511	0	0	
12	0	0	0	0	507	511	0	0	
13	0	0	0	0	506	510	0	0	
14	0	0	0	0	506	510	0	0	
15	0	0	0	0	505	511	0	0	
0	0	0	0	0	506	510	0	0	
1	0	0	0	0	506	511	0	0	
2	0	0	0	0	506	508	0	0	
3	0	0	0	0	509	511	0	0	
4	0	0	0	0	507	512	0	0	
5	0	0	0	0	509	510	0	0	
6	0	0	0	0	508	510	0	0	
7	0	0	0	0	511	509	0	0	
8	0	0	0	0	512	512	0	0	
9	0	0	0	0	510	511	0	0	
10	0	0	0	0	511	513	0	0	
11	0	0	0	0	512	511	0	0	
12	0	0	0	0	511	512	0	0	
13	0	0	0	0	510	511	0	0	
14	0	0	0	0	510	510	0	0	
15	0	0	0	0	508	511	0	0	
0	0	0	0	0	505	512	0	0	
1	0	0	0	0	504	510	0	0	
2	0	0	0	0	505	511	0	0	
3	0	0	0	0	506	510	0	0	
4	0	0	0	0	507	510	0	0	
5	0	0	0	0	507	513	0	0	
6	0	0	0	0	507	508	0	0	
7	0	0	0	0	506	510	0	0	
8	0	0	0	0	507	508	0	0	
9	0	0	0	0	507	510	0	0	
10	0	0	0	0	511	511	0	0	
11	0	0	0	0	511	511	0	0	
12	0	0	0	0	510	511	0	0	
13	0	0	0	0	511	510	0	0	
14	0	0	0	0	512	512	0	0	
15	0	0	0	0	512	512	0	0	
0	0	0	0	0	511	508	0	0	
1	0	0	0	0	509	512	0	0	
2	0	0	0	0	510	512	0	0	
3	0	0	0	0	508	511	0	0	
4	0	0	0	0	508	509	0	0	
5	0	0	0	0	508	510	0	0	
6	0	0	0	0	505	512	0	0	
7	0	0	0	0	505	510	0	0	
8	0	0	0	0	507	511	0	0	
9	0	0	0	0	507	509	0	0	
10	0	0	0	0	507	508	0	0	
11	0	0	0	0	507	510	0	0	
12	0	0	0	0	508	508	0	0	
13	0	0	0	0	508	510	0	0	
14	0	0	0	0	510	510	0	0	
15	0	0	0	0	511	508	0	0	
0	0	0	0	0	512	512	0	0	
1	0	0	0	0	511	509	0	0	
2	0	0	0	0	512	512	0	0	
3	0	0	0	0	512	513	0	0	
4	0	0	0	0	510	511	0	0	
5	0	0	0	0	508	511	0	0	
6	0	0	0	0	508	510	0	0	
7	0	0	0	0	507	510	0	0	
8	0	0	0	0	506	512	0	0	
9	0	0	0	0	505	511	0	0	
10	0	0	0	0	505	511	0	0	
11	0	0	0	0	505	508	0	0	
12	0	0	0	0	505	509	0	0	
13	0	0	0	0	506	511	0	0	
14	0	0	0	0	505	509	0	0	
15	0	0	0	0	506	509	0	0	
0	0	0	0	0	506	510	0	0	
1	0	0	0	0	506	509	0	0	
2	0	0	0	0	511	512	0	0	
3	0	0	0	0	513	512	0	0	
4	0	0	0	0	513	510	0	0	
5	0	0	0	0	515	511	0	0	
6	0	0	0	0	515	511	0	0	
7	0	0	0	0	512	511	0	0	
8	0	0	0	0	510	511	0	0	
9	0	0	0	0	509	511	0	0	
10	0	0	0	0	508	511	0	0	
11	0	0	0	0	508	511	0	0	
12	0	0	0	0	506	511	0	0	
13	0	0	0	0	507	512	0	0	
14	0	0	0	0	506	510	0	0	
15	0	0	0	0	504	510	0	0	
0	0	0	0	0	505	511	0	0	
1	0	0	0	0	505	509	0	0	
2	0	0	0	0	506	510	0	0	
3	0	0	0	0	508	509	0	0	
4	0	0	0	0	509	508	0	0	
5	0	0	0	0	511	509	0	0	
6	0	0	0	0	510	511	0	0	
7	0	0	0	0	510	509	0	0	
8	0	0	0	0	511	511	0	0	
9	0	0	0	0	512	511	0	0	
10	0	0	0	0	512	512	0	0	
11	0	0	0	0	512	512	0	0	
12	0	0	0	0	511	512	0	0	
13	0	0	0	0	510	510	0	0	
14	0	0	0	0	510	512	0	0	
15	0	0	0	0	507	510	0	0	
0	0	0	0	0	508	510	0	0	
1	0	0	0	0	504	509	0	0	
2	0	0	0	0	506	510	0	0	
3	0	0	0	0	506	511	0	0	
4	0	0	0	0	506	512	0	0	
5	0	0	0	0	505	511	0	0	
6	0	0	0	0	508	510	0	0	
7	0	0	0	0	507	512	0	0	
8	0	0	0	0	509	510	0	0	
9	0	0	0	0	508	512	0	0	
10	0	0	0	0	510	513	0	0	
11	0	0	0	0	512	510	0	0	
12	0	0	0	0	510	511	0	0	
13	0	0	0	0	511	512	0	0	
14	0	0	0	0	509	511	0	0	
15	0	0	0	0	510	511	0	0	
0	0	0	0	0	510	512	0	0	
1	0	0	0	0	509	509	0	0	
2	0	0	0	0	510	511	0	0	
3	0	0	0	0	510	510	0	0	
4	0	0	0	0	507	509	0	0	
5	0	0	0	0	506	511	0	0	
6	0	0	0	0	504	509	0	0	
7	0	0	0	0	505	509	0	0	
8	0	0	0	0	508	509	0	0	
9	0	0	0	0	506	511	0	0	
10	0	0	0	0	507	508	0	0	
11	0	0	0	0	508	509	0	0	
12	0	0	0	0	508	511	0	0	
13	0	0	0	0	509	510	0	0	
14	0	0	0	0	508	508	0	0	
15	0	0	0	0	511	511	0	0	
0	0	0	0	0	511	511	0	0	
1	0	0	0	0	510	511	0	0	
2	0	0	0	0	511	511	0	0	
3	0	0	0	0	511	513	0	0	
4	0	0	0	0	511	510	0	0	
5	0	0	0	0	511	513	0	0	
6	0	0	0	0	509	510	0	0	
7	0	0	0	0	508	510	0	0	
8	0	0	0	0	508	511	0	0	
9	0	0	0	0	506	510	0	0	
10	0	0	0	0	506	512	0	0	
11	0	0	0	0	507	510	0	0	
12	0	0	0	0	505	510	0	0	
13	0	0	0	0	504	509	0	0	
14	0	0	0	0	506	508	0	0	
15	0	0	0	0	507	506	0	0	
0	0	0	0	0	507	508	0	0	
1	0	0	0	0	508	511	0	0	
2	0	0	0	0	512	511	0	0	
3	0	0	0	0	511	509	0	0	
4	0	0	0	0	511	514	0	0	
5	0	0	0	0	515	513	0	0	
6	0	0	0	0	513	511	0	0	
7	0	0	0	0	511	509	0	0	
8	0	0	0	0	513	510	0	0	
9	0	0	0	0	508	511	0	0	
10	0	0	0	0	510	512	0	0	
11	0	0	0	0	508	511	0	0	
12	0	0	0	0	506	511	0	0	
13	0	0	0	0	506	512	0	0	
14	0	0	0	0	506	510	0	0	
15	0	0	0	0	504	508	0	0	
0	0	0	0	0	506	508	0	0	
1	0	0	0	0	506	510	0	0	
2	0	0	0	0	506	508	0	0	
3	0	0	0	0	508	510	0	0	
4	0	0	0	0	505	511	0	0	
5	0	0	0	0	508	510	0	0	
6	0	0	0	0	510	510	0	0	
7	0	0	0	0	511	510	0	0	
8	0	0	0	0	512	512	0	0	
9	0	0	0	0	511	511	0	0	
10	0	0	0	0	511	511	0	0	
11	0	0	0	0	510	512	0	0	
12	0	0	0	0	509	511	0	0	
13	0	0	0	0	509	511	0	0	
14	0	0	0	0	509	511	0	0	
15	0	0	0	0	511	511	0	0	
0	0	0	0	0	506	510	0	0	
1	0	0	0	0	505	508	0	0	
2	0	0	0	0	505	511	0	0	
3	0	0	0	0	505	509	0	0	
4	0	0	0	0	505	510	0	0	
5	0	0	0	0	505	512	0	0	
6	0	0	0	0	504	509	0	0	
7	0	0	0	0	507	510	0	0	
8	0	0	0	0	509	510	0	0	
9	0	0	0	0	508	510	0	0	
10	0	0	0	0	509	510	0	0	
11	0	0	0	0	512	512	0	0	
12	0	0	0	0	511	512	0	0	
13	0	0	0	0	511	511	0	0	
14	0	0	0	0	513	510	0	0	
15	0	0	0	0	511	512	0	0	
0	0	0	0	0	510	511	0	0	
1	0	0	0	0	509	510	0	0	
2	0	0	0	0	509	511	0	0	
3	0	0	0	0	509	512	0	0	
4	0	0	0	0	509	511	0	0	
5	0	0	0	0	504	512	0	0	
6	0	0	0	0	505	510	0	0	
7	0	0	0	0	506	508	0	0	
8	0	0	0	0	502	508	0	0	
9	0	0	0	0	506	507	0	0	
10	0	0	0	0	506	507	0	0	
11	0	0	0	0	507	512	0	0	
12	0	0	0	0	510	509	0	0	
13	0	0	0	0	510	510	0	0	
14	0	0	0	0	509	510	0	0	
15	0	0	0	0	509	511	0	0	
0	0	0	0	0	512	511	0	0	
1	0	0	0	0	512	512	0	0	
2	0	0	0	0	512	513	0	0	
3	0	0	0	0	510	510	0	0	
4	0	0	0	0	510	510	0	0	
5	0	0	0	0	511	511	0	0	
6	0	0	0	0	509	512	0	0	
7	0	0	0	0	511	512	0	0	
8	0	0	0	0	508	510	0	0	
9	0	0	0	0	507	510	0	0	
10	0	0	0	0	505	509	0	0	
11	0	0	0	0	505	511	0	0	
12	0	0	0	0	506	510	0	0	
13	0	0	0	0	504	508	0	0	
14	0	0	0	0	506	511	0	0	
15	0	0	0	0	508	510	0	0	
0	0	0	0	0	509	509	0	0	
1	0	0	0	0	507	511	0	0	
2	0	0	0	0	510	512	0	0	
3	0	0	0	0	510	510	0	0	
4	0	0	0	0	511	511	0	0	
5	0	0	0	0	513	510	0	0	
6	0	0	0	0	511	511	0	0	
7	0	0	0	0	509	513	0	0	
8	0	0	0	0	509	512	0	0	
9	0	0	0	0	511	510	0	0	
10	0	0	0	0	511	510	0	0	
11	0	0	0	0	508	510	0	0	
12	0	0	0	0	507	508	0	0	
13	0	0	0	0	508	510	0	0	
14	0	0	0	0	505	508	0	0	
15	0	0	0	0	505	511	0	0	
0	0	0	0	0	506	509	0	0	
1	0	0	0	0	505	512	0	0	
2	0	0	0	0	507	511	0	0	
3	0	0	0	0	508	511	0	0	
4	0	0	0	0	507	511	0	0	
5	0	0	0	0	508	510	0	0	
6	0	0	0	0	510	509	0	0	
7	0	0	0	0	511	511	0	0	
8	0	0	0	0	510	511	0	0	
9	0	0	0	0	511	508	0	0	
10	0	0	0	0	510	511	0	0	
11	0	0	0	0	512	511	0	0	
12	0	0	0	0	513	510	0	0	
13	0	0	0	0	509	512	0	0	
14	0	0	0	0	510	510	0	0	
15	0	0	0	0	508	510	0	0	
0	0	0	0	0	506	509	0	0	
1	0	0	0	0	504	509	0	0	
2	0	0	0	0	504	511	0	0	
3	0	0	0	0	504	507	0	0	
4	0	0	0	0	507	510	0	0	
5	0	0	0	0	506	509	0	0	
6	0	0	0	0	507	508	0	0	
7	0	0	0	0	508	509	0	0	
8	0	0	0	0	508	512	0	0	
9	0	0	0	0	509	509	0	0	
10	0	0	0	0	509	511	0	0	
11	0	0	0	0	509	512	0	0	
12	0	0	0	0	510	512	0	0	
13	0	0	0	0	513	513	0	0	
14	0	0	0	0	516	511	0	0	
15	0	0	0	0	511	515	0	0	
0	0	0	0	0	511	512	0	0	
1	0	0	0	0	510	510	0	0	
2	0	0	0	0	510	513	0	0	
3	0	0	0	0	508	511	0	0	
4	0	0	0	0	505	509	0	0	
5	0	0	0	0	505	512	0	0	
6	0	0	0	0	508	511	0	0	
7	0	0	0	0	503	510	0	0	
8	0	0	0	0	506	511	0	0	
9	0	0	0	0	505	508	0	0	
10	0	0	0	0	503	510	0	0	
11	0	0	0	0	503	511	0	0	
12	0	0	0	0	507	510	0	0	
13	0	0	0	0	510	509	0	0	
14	0	0	0	0	511	511	0	0	
15	0	0	0	0	512	509	0	0	
0	0	0	0	0	512	509	0	0	
1	0	0	0	0	512	512	0	0	
2	0	0	0	0	513	512	0	0	
3	0	0	0	0	510	512	0	0	
4	0	0	0	0	511	513	0	0	
5	0	0	0	0	509	511	0	0	
6	0	0	0	0	509	511	0	0	
7	0	0	0	0	510	510	0	0	
8	0	0	0	0	507	510	0	0	
9	0	0	0	0	509	511	0	0	
10	0	0	0	0	507	510	0	0	
11	0	0	0	0	507	513	0	0	
12	0	0	0	0	506	512	0	0	
13	0	0	0	0	508	510	0	0	
14	0	0	0	0	506	508	0	0	
15	0	0	0	0	506	509	0	0	
0	0	0	0	0	507	510	0	0	
1	0	0	0	0	508	511	0	0	
2	0	0	0	0	511	510	0	0	
3	0	0	0	0	511	511	0	0	
4	0	0	0	0	512	511	0	0	
5	0	0	0	0	510	513	0	0	
6	0	0	0	0	512	510	0	0	
7	0	0	0	0	511	510	0	0	
8	0	0	0	0	512	511	0	0	
9	0	0	0	0	510	510	0	0	
10	0	0	0	0	508	509	0	0	
11	0	0	0	0	508	510	0	0	
12	0	0	0	0	507	509	0	0	
13	0	0	0	0	507	510	0	0	
14	0	0	0	0	504	511	0	0	
15	0	0	0	0	505	511	0	0	
0	0	0	0	0	506	511	0	0	
1	0	0	0	0	506	511	0	0	
2	0	0	0	0	508	510	0	0	
3	0	0	0	0	507	509	0	0	
4	0	0	0	0	509	511	0	0	
5	0	0	0	0	510	512	0	0	
6	0	0	0	0	509	510	0	0	
7	0	0	0	0	510	512	0	0	
8	0	0	0	0	511	510	0	0	
9	0	0	0	0	511	511	0	0	
10	0	0	0	0	513	512	0	0	
11	0	0	0	0	512	510	0	0	
12	0	0	0	0	511	511	0	0	
13	0	0	0	0	508	511	0	0	
14	0	0	0	0	506	512	0	0	
15	0	0	0	0	507	512	0	0	
0	0	0	0	0	509	511	0	0	
1	0	0	0	0	506	510	0	0	
2	0	0	0	0	507	507	0	0	
3	0	0	0	0	504	511	0	0	
4	0	0	0	0	504	510	0	0	
5	0	0	0	0	505	510	0	0	
6	0	0	0	0	508	508	0	0	
7	0	0	0	0	506	509	0	0	
8	0	0	0	0	508	510	0	0	
9	0	0	0	0	510	511	0	0	
10	0	0	0	0	509	511	0	0	
11	0	0	0	0	509	510	0	0	
12	0	0	0	0	512	511	0	0	
13	0	0	0	0	514	511	0	0	
14	0	0	0	0	513	511	0	0	
15	0	0	0	0	514	511	0	0	
0	0	0	0	0	511	512	0	0	
1	0	0	0	0	512	512	0	0	
2	0	0	0	0	508	511	0	0	
3	0	0	0	0	510	510	0	0	
4	0	0	0	0	505	510	0	0	
5	0	0	0	0	504	509	0	0	
6	0	0	0	0	504	508	0	0	
7	0	0	0	0	504	510	0	0	
8	0	0	0	0	507	510	0	0	
9	0	0	0	0	506	512	0	0	
10	0	0	0	0	507	509	0	0	
11	0	0	0	0	508	511	0	0	
12	0	0	0	0	507	508	0	0	
13	0	0	0	0	508	510	0	0	
14	0	0	0	0	510	510	0	0	
15	0	0	0	0	511	512	0	0	
0	0	0	0	0	513	510	0	0	
1	0	0	0	0	512	512	0	0	
2	0	0	0	0	513	513	0	0	
3	0	0	0	0	508	510	0	0	
4	0	0	0	0	508	511	0	0	
5	0	0	0	0	508	509	0	0	
6	0	0	0	0	509	511	0	0	
7	0	0	0	0	508	511	0	0	
8	0	0	0	0	507	512	0	0	
9	0	0	0	0	505	511	0	0	
10	0	0	0	0	508	511	0	0	
11	0	0	0	0	506	511	0	0	
12	0	0	0	0	507	512	0	0	
13	0	0	0	0	506	510	0	0	
14	0	0	0	0	506	508	0	0	
15	0	0	0	0	507	510	0	0	
0	0	0	0	0	508	508	0	0	
1	0	0	0	0	509	513	0	0	
2	0	0	0	0	512	511	0	0	
3	0	0	0	0	510	513	0	0	
4	0	0	0	0	512	509	0	0	
5	0	0	0	0	512	510	0	0	
6	0	0	0	0	511	509	0	0	
7	0	0	0	0	512	511	0	0	
8	0	0	0	0	511	511	0	0	
9	0	0	0	0	510	509	0	0	
10	0	0	0	0	510	512	0	0	
11	0	0	0	0	510	510	0	0	
12	0	0	0	0	507	511	0	0	
13	0	0	0	0	504	508	0	0	
14	0	0	0	0	505	508	0	0	
15	0	0	0	0	504	508	0	0	
0	0	0	0	0	504	509	0	0	
1	0	0	0	0	505	511	0	0	
2	0	0	0	0	505	510	0	0	
3	0	0	0	0	507	510	0	0	
4	0	0	0	0	507	508	0	0	
5	0	0	0	0	509	511	0	0	
6	0	0	0	0	512	512	0	0	
7	0	0	0	0	511	510	0	0	
8	0	0	0	0	512	511	0	0	
9	0	0	0	0	513	512	0	0	
10	0	0	0	0	512	511	0	0	
11	0	0	0	0	514	512	0	0	
12	0	0	0	0	511	510	0	0	
13	0	0	0	0	511	510	0	0	
14	0	0	0	0	508	512	0	0	
15	0	0	0	0	507	512	0	0	
0	0	0	0	0	507	512	0	0	
1	0	0	0	0	509	509	0	0	
2	0	0	0	0	508	511	0	0	
3	0	0	0	0	505	508	0	0	
4	0	0	0	0	504	511	0	0	
5	0	0	0	0	504	511	0	0	
6	0	0	0	0	507	511	0	0	
7	0	0	0	0	506	513	0	0	
8	0	0	0	0	506	509	0	0	
9	0	0	0	0	506	510	0	0	
10	0	0	0	0	509	510	0	0	
11	0	0	0	0	509	509	0	0	
12	0	0	0	0	511	508	0	0	
13	0	0	0	0	513	510	0	0	
14	0	0	0	0	514	511	0	0	
15	0	0	0	0	512	513	0	0	
0	0	0	0	0	511	511	0	0	
1	0	0	0	0	510	512	0	0	
2	0	0	0	0	511	508	0	0	
3	0	0	0	0	508	511	0	0	
4	0	0	0	0	505	511	0	0	
5	0	0	0	0	505	511	0	0	
6	0	0	0	0	504	511	0	0	
7	0	0	0	0	507	510	0	0	
8	0	0	0	0	505	508	0	0	
9	0	0	0	0	508	510	0	0	
10	0	0	0	0	505	510	0	0	
11	0	0	0	0	504	510	0	0	
12	0	0	0	0	506	511	0	0	
13	0	0	0	0	510	513	0	0	
14	0	0	0	0	511	512	0	0	
15	0	0	0	0	511	510	0	0	
0	0	0	0	0	513	512	0	0	
1	0	0	0	0	512	512	0	0	
2	0	0	0	0	512	511	0	0	
3	0	0	0	0	513	513	0	0	
4	0	0	0	0	511	511	0	0	
5	0	0	0	0	508	509	0	0	
6	0	0	0	0	508	510	0	0	
7	0	0	0	0	509	512	0	0	
8	0	0	0	0	507	510	0	0	
9	0	0	0	0	506	510	0	0	
10	0	0	0	0	506	511	0	0	
11	0	0	0	0	505	510	0	0	
12	0	0	0	0	503	508	0	0	
13	0	0	0	0	504	511	0	0	
14	0	0	0	0	507	510	0	0	
15	0	0	0	0	507	510	0	0	
0	0	0	0	0	507	510	0	0	
1	0	0	0	0	509	508	0	0	
2	0	0	0	0	510	510	0	0	
3	0	0	0	0	512	512	0	0	
4	0	0	0	0	512	511	0	0	
5	0	0	0	0	512	510	0	0	
6	0	0	0	0	511	510	0	0	
7	0	0	0	0	512	510	0	0	
8	0	0	0	0	512	511	0	0	
9	0	0	0	0	512	513	0	0	
10	0	0	0	0	511	511	0	0	
11	0	0	0	0	510	511	0	0	
12	0	0	0	0	506	511	0	0	
13	0	0	0	0	507	510	0	0	
14	0	0	0	0	505	510	0	0	
15	0	0	0	0	505	508	0	0	
0	0	0	0	0	505	509	0	0	
1	0	0	0	0	505	507	0	0	
2	0	0	0	0	503	509	0	0	
3	0	0	0	0	508	510	0	0	
4	0	0	0	0	507	512	0	0	
5	0	0	0	0	508	511	0	0	
6	0	0	0	0	511	510	0	0	
7	0	0	0	0	510	512	0	0	
8	0	0	0	0	511	509	0	0	
9	0	0	0	0	514	513	0	0	
10	0	0	0	0	511	512	0	0	
11	0	0	0	0	511	510	0	0	
12	0	0	0	0	512	511	0	0	
13	0	0	0	0	512	512	0	0	
14	0	0	0	0	509	511	0	0	
15	0	0	0	0	511	511	0	0	
0	0	0	0	0	507	512	0	0	
1	0	0	0	0	507	511	0	0	
2	0	0	0	0	506	511	0	0	
3	0	0	0	0	504	510	0	0	
4	0	0	0	0	502	510	0	0	
5	0	0	0	0	499	507	0	0	
6	0	0	0	0	504	508	0	0	
7	0	0	0	0	509	509	0	0	
8	0	0	0	0	511	510	0	0	
9	0	0	0	0	506	508	0	0	
10	0	0	0	0	510	511	0	0	
11	0	0	0	0	511	513	0	0	
12	0	0	0	0	511	510	0	0	
13	0	0	0	0	511	510	0	0	
14	0	0	0	0	514	512	0	0	
15	0	0	0	0	511	508	0	0	
0	0	0	0	0	512	511	0	0	
1	0	0	0	0	510	509	0	0	
2	0	0	0	0	509	512	0	0	
3	0	0	0	0	510	510	0	0	
4	0	0	0	0	508	510	0	0	
5	0	0	0	0	508	512	0	0	
6	0	0	0	0	506	512	0	0	
7	0	0	0	0	503	510	0	0	
8	0	0	0	0	504	511	0	0	
9	0	0	0	0	502	510	0	0	
10	0	0	0	0	506	510	0	0	
11	0	0	0	0	508	511	0	0	
12	0	0	0	0	511	510	0	0	
13	0	0	0	0	508	512	0	0	
14	0	0	0	0	510	509	0	0	
15	0	0	0	0	513	512	0	0	
0	0	0	0	0	510	508	0	0	
1	0	0	0	0	514	509	0	0	
2	0	0	0	0	513	514	0	0	
3	0	0	0	0	512	511	0	0	
4	0	0	0	0	512	509	0	0	
5	0	0	0	0	510	510	0	0	
6	0	0	0	0	510	511	0	0	
7	0	0	0	0	507	511	0	0	
8	0	0	0	0	508	510	0	0	
9	0	0	0	0	504	511	0	0	
10	0	0	0	0	505	507	0	0	
11	0	0	0	0	505	510	0	0	
12	0	0	0	0	503	509	0	0	
13	0	0	0	0	504	510	0	0	
14	0	0	0	0	502	508	0	0	
15	0	0	0	0	504	510	0	0	
0	0	0	0	0	507	510	0	0	
1	0	0	0	0	510	510	0	0	
2	0	0	0	0	514	513	0	0	
3	0	0	0	0	512	512	0	0	
4	0	0	0	0	513	512	0	0	
5	0	0	0	0	515	509	0	0	
6	0	0	0	0	512	511	0	0	
7	0	0	0	0	511	512	0	0	
8	0	0	0	0	511	513	0	0	
9	0	0	0	0	512	511	0	0	
10	0	0	0	0	512	510	0	0	
11	0	0	0	0	505	510	0	0	
12	0	0	0	0	505	511	0	0	
13	0	0	0	0	507	512	0	0	
14	0	0	0	0	506	508	0	0	
15	0	0	0	0	504	508	0	0	
0	0	0	0	0	505	509	0	0	
1	0	0	0	0	505	511	0	0	
2	0	0	0	0	504	509	0	0	
3	0	0	0	0	508	511	0	0	
4	0	0	0	0	506	511	0	0	
5	0	0	0	0	507	511	0	0	
6	0	0	0	0	511	510	0	0	
7	0	0	0	0	509	509	0	0	
8	0	0	0	0	514	511	0	0	
9	0	0	0	0	515	512	0	0	
10	0	0	0	0	514	510	0	0	
11	0	0	0	0	512	511	0	0	
12	0	0	0	0	512	511	0	0	
13	0	0	0	0	512	511	0	0	
14	0	0	0	0	509	510	0	0	
15	0	0	0	0	508	511	0	0	
0	0	0	0	0	506	511	0	0	
1	0	0	0	0	507	510	0	0	
2	0	0	0	0	504	508	0	0	
3	0	0	0	0	505	510	0	0	
4	0	0	0	0	504	510	0	0	
5	0	0	0	0	502	510	0	0	
6	0	0	0	0	506	508	0	0	
7	0	0	0	0	508	511	0	0	
8	0	0	0	0	508	511	0	0	
9	0	0	0	0	507	511	0	0	
10	0	0	0	0	510	509	0	0	
11	0	0	0	0	512	510	0	0	
12	0	0	0	0	514	511	0	0	
13	0	0	0	0	515	512	0	0	
14	0	0	0	0	512	512	0	0	
15	0	0	0	0	512	512	0	0	
0	0	0	0	0	510	510	0	0	
1	0	0	0	0	511	511	0	0	
2	0	0	0	0	510	511	0	0	
3	0	0	0	0	508	509	0	0	
4	0	0	0	0	504	510	0	0	
5	0	0	0	0	504	508	0	0	
6	0	0	0	0	507	511	0	0	
7	0	0	0	0	507	508	0	0	
8	0	0	0	0	506	510	0	0	
9	0	0	0	0	505	510	0	0	
10	0	0	0	0	505	511	0	0	
11	0	0	0	0	507	509	0	0	
12	0	0	0	0	508	507	0	0	
13	0	0	0	0	510	509	0	0	
14	0	0	0	0	512	511	0	0	
15	0	0	0	0	511	510	0	0	
0	0	0	0	0	508	511	0	0	
1	0	0	0	0	507	512	0	0	
2	0	0	0	0	509	514	0	0	
3	0	0	0	0	511	513	0	0	
4	0	0	0	0	515	514	0	0	
5	0	0	0	0	511	511	0	0	
6	0	0	0	0	510	512	0	0	
7	0	0	0	0	508	510	0	0	
8	0	0	0	0	504	510	0	0	
9	0	0	0	0	504	509	0	0	
10	0	0	0	0	505	512	0	0	
11	0	0	0	0	510	510	0	0	
12	0	0	0	0	510	510	0	0	
13	0	0	0	0	507	508	0	0	
14	0	0	0	0	511	508	0	0	
15	0	0	0	0	508	505	0	0	
0	0	0	0	0	506	508	0	0	
1	0	0	0	0	503	512	0	0	
2	0	0	0	0	504	511	0	0	
3	0	0	0	0	506	511	0	0	
4	0	0	0	0	511	512	0	0	
5	0	0	0	0	517	512	0	0	
6	0	0	0	0	511	513	0	0	
7	0	0	0	0	513	513	0	0	
8	0	0	0	0	519	510	0	0	
9	0	0	0	0	511	512	0	0	
10	0	0	0	0	504	510	0	0	
11	0	0	0	0	504	509	0	0	
12	0	0	0	0	505	512	0	0	
13	0	0	0	0	510	509	0	0	
14	0	0	0	0	522	510	0	0	
15	0	0	0	0	514	508	0	0	
0	0	0	0	0	501	508	0	0	
1	0	0	0	0	501	510	0	0	
2	0	0	0	0	498	511	0	0	
3	0	0	0	0	499	510	0	0	
4	0	0	0	0	504	510	0	0	
5	0	0	0	0	505	511	0	0	
6	0	0	0	0	511	512	0	0	
7	0	0	0	0	511	511	0	0	
8	0	0	0	0	507	510	0	0	
9	0	0	0	0	509	511	0	0	
10	0	0	0	0	515	514	0	0	
11	0	0	0	0	524	512	0	0	
12	0	0	0	0	513	510	0	0	
13	0	0	0	0	519	511	0	0	
14	0	0	0	0	509	511	0	0	
15	0	0	0	0	510	511	0	0	
0	0	0	0	0	509	510	0	0	
1	0	0	0	0	498	509	0	0	
2	0	0	0	0	493	508	0	0	
3	0	0	0	0	491	509	0	0	
4	0	0	0	0	486	510	0	0	
5	0	0	0	0	505	508	0	0	
6	0	0	0	0	533	511	0	0	
7	0	0	0	0	530	515	0	0	
8	0	0	0	0	525	510	0	0	
9	0	0	0	0	508	511	0	0	
10	0	0	0	0	498	509	0	0	
11	0	0	0	0	501	510	0	0	
12	0	0	0	0	504	508	0	0	
13	0	0	0	0	503	509	0	0	
14	0	0	0	0	505	509	0	0	
15	0	0	0	0	503	512	0	0	
0	0	0	0	0	511	512	0	0	
1	0	0	0	0	521	513	0	0	
2	0	0	0	0	517	512	0	0	
3	0	0	0	0	519	512	0	0	
4	0	0	0	0	523	512	0	0	
5	0	0	0	0	505	510	0	0	
6	0	0	0	0	504	510	0	0	
7	0	0	0	0	509	508	0	0	
8	0	0	0	0	504	509	0	0	
9	0	0	0	0	503	509	0	0	
10	0	0	0	0	506	506	0	0	
11	0	0	0	0	520	511	0	0	
12	0	0	0	0	505	509	0	0	
13	0	0	0	0	493	509	0	0	
14	0	0	0	0	488	510	0	0	
15	0	0	0	0	502	513	0	0	
0	0	0	0	0	499	512	0	0	
1	0	0	0	0	499	512	0	0	
2	0	0	0	0	518	513	0	0	
3	0	0	0	0	521	510	0	0	
4	0	0	0	0	521	510	0	0	
5	0	0	0	0	530	511	0	0	
6	0	0	0	0	518	513	0	0	
7	0	0	0	0	508	509	0	0	
8	0	0	0	0	506	511	0	0	
9	0	0	0	0	505	513	0	0	
10	0	0	0	0	502	512	0	0	
11	0	0	0	0	492	510	0	0	
12	0	0	0	0	493	508	0	0	
13	0	0	0	0	493	509	0	0	
14	0	0	0	0	492	508	0	0	
15	0	0	0	0	505	509	0	0	
0	0	0	0	0	523	511	0	0	
1	0	0	0	0	542	510	0	0	
2	0	0	0	0	535	511	0	0	
3	0	0	0	0	518	510	0	0	
4	0	0	0	0	512	510	0	0	
5	0	0	0	0	507	510	0	0	
6	0	0	0	0	503	510	0	0	
7	0	0	0	0	478	512	0	0	
8	0	0	0	0	489	512	0	0	
9	0	0	0	0	510	514	0	0	
10	0	0	0	0	517	513	0	0	
11	0	0	0	0	514	511	0	0	
12	0	0	0	0	518	513	0	0	
13	0	0	0	0	508	510	0	0	
14	0	0	0	0	512	507	0	0	
15	0	0	0	0	514	512	0	0	
0	0	0	0	0	513	510	0	0	
1	0	0	0	0	508	506	0	0	
2	0	0	0	0	509	508	0	0	
3	0	0	0	0	504	509	0	0	
4	0	0	0	0	500	509	0	0	
5	0	0	0	0	503	510	0	0	
6	0	0	0	0	507	510	0	0	
7	0	0	0	0	501	513	0	0	
8	0	0	0	0	506	511	0	0	
9	0	0	0	0	506	513	0	0	
10	0	0	0	0	514	513	0	0	
11	0	0	0	0	519	510	0	0	
12	0	0	0	0	525	511	0	0	
13	0	0	0	0	509	511	0	0	
14	0	0	0	0	504	510	0	0	
15	0	0	0	0	499	510	0	0	
0	0	0	0	0	504	512	0	0	
1	0	0	0	0	511	513	0	0	
2	0	0	0	0	512	510	0	0	
3	0	0	0	0	505	506	0	0	
4	0	0	0	0	504	506	0	0	
5	0	0	0	0	501	508	0	0	
6	0	0	0	0	504	509	0	0	
7	0	0	0	0	505	509	0	0	
8	0	0	0	0	504	513	0	0	
9	0	0	0	0	504	509	0	0	
10	0	0	0	0	512	512	0	0	
11	0	0	0	0	519	509	0	0	
12	0	0	0	0	521	511	0	0	
13	0	0	0	0	528	513	0	0	
14	0	0	0	0	514	513	0	0	
15	0	0	0	0	515	512	0	0	
0	0	0	0	0	514	511	0	0	
1	0	0	0	0	515	511	0	0	
2	0	0	0	0	518	510	0	0	
3	0	0	0	0	508	511	0	0	
4	0	0	0	0	494	509	0	0	
5	0	0	0	0	481	508	0	0	
6	0	0	0	0	480	513	0	0	
7	0	0	0	0	499	511	0	0	
8	0	0	0	0	519	510	0	0	
9	0	0	0	0	518	511	0	0	
10	0	0	0	0	504	510	0	0	
11	0	0	0	0	510	510	0	0	
12	0	0	0	0	517	511	0	0	
13	0	0	0	0	511	510	0	0	
14	0	0	0	0	510	512	0	0	
15	0	0	0	0	507	512	0	0	
0	0	0	0	0	506	510	0	0	
1	0	0	0	0	508	510	0	0	
2	0	0	0	0	513	511	0	0	
3	0	0	0	0	516	511	0	0	
4	0	0	0	0	514	511	0	0	
5	0	0	0	0	511	508	0	0	
6	0	0	0	0	509	509	0	0	
7	0	0	0	0	508	511	0	0	
8	0	0	0	0	509	510	0	0	
9	0	0	0	0	504	510	0	0	
10	0	0	0	0	505	512	0	0	
11	0	0	0	0	504	508	0	0	
12	0	0	0	0	503	510	0	0	
13	0	0	0	0	504	512	0	0	
14	0	0	0	0	507	508	0	0	
15	0	0	0	0	505	509	0	0	
0	0	0	0	0	502	509	0	0	
1	0	0	0	0	504	510	0	0	
2	0	0	0	0	510	510	0	0	
3	0	0	0	0	513	511	0	0	
4	0	0	0	0	514	510	0	0	
5	0	0	0	0	517	511	0	0	
6	0	0	0	0	521	511	0	0	
7	0	0	0	0	514	511	0	0	
8	0	0	0	0	510	512	0	0	
9	0	0	0	0	507	513	0	0	
10	0	0	0	0	507	512	0	0	
11	0	0	0	0	508	511	0	0	
12	0	0	0	0	508	511	0	0	
13	0	0	0	0	508	511	0	0	
14	0	0	0	0	504	509	0	0	
15	0	0	0	0	501	508	0	0	
0	0	0	0	0	504	510	0	0	
1	0	0	0	0	505	510	0	0	
2	0	0	0	0	508	508	0	0	
3	0	0	0	0	506	508	0	0	
4	0	0	0	0	512	510	0	0	
5	0	0	0	0	519	511	0	0	
6	0	0	0	0	509	511	0	0	
7	0	0	0	0	504	513	0	0	
8	0	0	0	0	505	512	0	0	
9	0	0	0	0	508	510	0	0	
10	0	0	0	0	508	510	0	0	
11	0	0	0	0	508	513	0	0	
12	0	0	0	0	511	513	0	0	
13	0	0	0	0	507	510	0	0	
14	0	0	0	0	518	508	0	0	
15	0	0	0	0	515	511	0	0	
0	0	0	0	0	510	511	0	0	
1	0	0	0	0	508	511	0	0	
2	0	0	0	0	506	512	0	0	
3	0	0	0	0	506	508	0	0	
4	0	0	0	0	500	509	0	0	
5	0	0	0	0	501	509	0	0	
6	0	0	0	0	496	509	0	0	
7	0	0	0	0	504	510	0	0	
8	0	0	0	0	509	510	0	0	
9	0	0	0	0	510	509	0	0	
10	0	0	0	0	510	511	0	0	
11	0	0	0	0	514	510	0	0	
12	0	0	0	0	523	514	0	0	
13	0	0	0	0	519	511	0	0	
14	0	0	0	0	514	511	0	0	
15	0	0	0	0	512	509	0	0	
0	0	0	0	0	508	512	0	0	
1	0	0	0	0	507	513	0	0	
2	0	0	0	0	507	513	0	0	
3	0	0	0	0	506	511	0	0	
4	0	0	0	0	506	509	0	0	
5	0	0	0	0	504	510	0	0	
6	0	0	0	0	504	511	0	0	
7	0	0	0	0	505	509	0	0	
8	0	0	0	0	506	509	0	0	
9	0	0	0	0	504	508	0	0	
10	0	0	0	0	506	508	0	0	
11	0	0	0	0	507	509	0	0	
12	0	0	0	0	505	510	0	0	
13	0	0	0	0	509	512	0	0	
14	0	0	0	0	511	511	0	0	
15	0	0	0	0	513	511	0	0	
0	0	0	0	0	512	512	0	0	
1	0	0	0	0	507	512	0	0	
2	0	0	0	0	511	513	0	0	
3	0	0	0	0	513	512	0	0	
4	0	0	0	0	514	512	0	0	
5	0	0	0	0	511	512	0	0	
6	0	0	0	0	511	511	0	0	
7	0	0	0	0	506	509	0	0	
8	0	0	0	0	505	509	0	0	
9	0	0	0	0	504	510	0	0	
10	0	0	0	0	508	512	0	0	
11	0	0	0	0	504	512	0	0	
12	0	0	0	0	505	511	0	0	
13	0	0	0	0	503	511	0	0	
14	0	0	0	0	499	510	0	0	
15	0	0	0	0	505	510	0	0	
0	0	0	0	0	506	508	0	0	
1	0	0	0	0	511	508	0	0	
2	0	0	0	0	515	506	0	0	
3	0	0	0	0	517	511	0	0	
4	0	0	0	0	522	512	0	0	
5	0	0	0	0	511	511	0	0	
6	0	0	0	0	511	513	0	0	
7	0	0	0	0	511	513	0	0	
8	0	0	0	0	512	512	0	0	
9	0	0	0	0	511	514	0	0	
10	0	0	0	0	508	513	0	0	
11	0	0	0	0	507	510	0	0	
12	0	0	0	0	505	508	0	0	
13	0	0	0	0	504	511	0	0	
14	0	0	0	0	507	509	0	0	
15	0	0	0	0	505	511	0	0	
0	0	0	0	0	500	508	0	0	
1	0	0	0	0	501	511	0	0	
2	0	0	0	0	505	510	0	0	
3	0	0	0	0	508	510	0	0	
4	0	0	0	0	507	511	0	0	
5	0	0	0	0	508	510	0	0	
6	0	0	0	0	508	512	0	0	
7	0	0	0	0	511	512	0	0	
8	0	0	0	0	511	510	0	0	
9	0	0	0	0	511	511	0	0	
10	0	0	0	0	513	512	0	0	
11	0	0	0	0	515	511	0	0	
12	0	0	0	0	512	511	0	0	
13	0	0	0	0	511	511	0	0	
14	0	0	0	0	511	510	0	0	
15	0	0	0	0	508	510	0	0	
0	0	0	0	0	506	507	0	0	
1	0	0	0	0	506	511	0	0	
2	0	0	0	0	500	510	0	0	
3	0	0	0	0	500	508	0	0	
4	0	0	0	0	507	507	0	0	
5	0	0	0	0	508	511	0	0	
6	0	0	0	0	506	512	0	0	
7	0	0	0	0	504	509	0	0	
8	0	0	0	0	507	510	0	0	
9	0	0	0	0	511	510	0	0	
10	0	0	0	0	514	511	0	0	
11	0	0	0	0	513	510	0	0	
12	0	0	0	0	510	513	0	0	
13	0	0	0	0	510	512	0	0	
14	0	0	0	0	509	512	0	0	
15	0	0	0	0	508	513	0	0	
0	0	0	0	0	510	514	0	0	
1	0	0	0	0	511	511	0	0	
2	0	0	0	0	511	512	0	0	
3	0	0	0	0	510	511	0	0	
4	0	0	0	0	511	510	0	0	
5	0	0	0	0	516	510	0	0	
6	0	0	0	0	506	510	0	0	
7	0	0	0	0	507	509	0	0	
8	0	0	0	0	504	510	0	0	
9	0	0	0	0	503	509	0	0	
10	0	0	0	0	504	510	0	0	
11	0	0	0	0	505	508	0	0	
12	0	0	0	0	504	513	0	0	
13	0	0	0	0	511	510	0	0	
14	0	0	0	0	512	511	0	0	
15	0	0	0	0	510	511	0	0	
0	0	0	0	0	507	510	0	0	
1	0	0	0	0	508	512	0	0	
2	0	0	0	0	512	509	0	0	
3	0	0	0	0	514	511	0	0	
4	0	0	0	0	511	514	0	0	
5	0	0	0	0	510	512	0	0	
6	0	0	0	0	510	511	0	0	
7	0	0	0	0	508	510	0	0	
8	0	0	0	0	508	511	0	0	
9	0	0	0	0	504	511	0	0	
10	0	0	0	0	505	509	0	0	
11	0	0	0	0	506	509	0	0	
12	0	0	0	0	507	509	0	0	
13	0	0	0	0	506	509	0	0	
14	0	0	0	0	504	509	0	0	
15	0	0	0	0	504	511	0	0	
0	0	0	0	0	506	509	0	0	
1	0	0	0	0	506	510	0	0	
2	0	0	0	0	507	511	0	0	
3	0	0	0	0	510	508	0	0	
4	0	0	0	0	514	512	0	0	
5	0	0	0	0	521	511	0	0	
6	0	0	0	0	519	514	0	0	
7	0	0	0	0	512	511	0	0	
8	0	0	0	0	511	512	0	0	
9	0	0	0	0	511	513	0	0	
10	0	0	0	0	509	509	0	0	
11	0	0	0	0	508	510	0	0	
12	0	0	0	0	507	511	0	0	
13	0	0	0	0	505	510	0	0	
14	0	0	0	0	506	510	0	0	
15	0	0	0	0	505	510	0	0	
0	0	0	0	0	504	510	0	0	
1	0	0	0	0	502	508	0	0	
2	0	0	0	0	505	508	0	0	
3	0	0	0	0	506	509	0	0	
4	0	0	0	0	502	508	0	0	
5	0	0	0	0	504	509	0	0	
6	0	0	0	0	510	512	0	0	
7	0	0	0	0	510	512	0	0	
8	0	0	0	0	515	511	0	0	
9	0	0	0	0	513	512	0	0	
10	0	0	0	0	512	514	0	0	
11	0	0	0	0	512	510	0	0	
12	0	0	0	0	510	511	0	0	
13	0	0	0	0	507	511	0	0	
14	0	0	0	0	511	509	0	0	
15	0	0	0	0	509	511	0	0	
0	0	0	0	0	509	512	0	0	
1	0	0	0	0	512	510	0	0	
2	0	0	0	0	512	509	0	0	
3	0	0	0	0	507	510	0	0	
4	0	0	0	0	504	511	0	0	
5	0	0	0	0	504	510	0	0	
6	0	0	0	0	505	510	0	0	
7	0	0	0	0	506	511	0	0	
8	0	0	0	0	504	508	0	0	
9	0	0	0	0	506	509	0	0	
10	0	0	0	0	508	510	0	0	
11	0	0	0	0	513	510	0	0	
12	0	0	0	0	513	511	0	0	
13	0	0	0	0	512	512	0	0	
14	0	0	0	0	509	512	0	0	
15	0	0	0	0	511	513	0	0	
0	0	0	0	0	511	511	0	0	
1	0	0	0	0	511	510	0	0	
2	0	0	0	0	507	510	0	0	
3	0	0	0	0	508	510	0	0	
4	0	0	0	0	508	511	0	0	
5	0	0	0	0	509	510	0	0	
6	0	0	0	0	509	509	0	0	
7	0	0	0	0	505	510	0	0	
8	0	0	0	0	508	508	0	0	
9	0	0	0	0	506	508	0	0	
10	0	0	0	0	506	510	0	0	
11	0	0	0	0	507	509	0	0	
12	0	0	0	0	505	512	0	0	
13	0	0	0	0	507	510	0	0	
14	0	0	0	0	507	510	0	0	
15	0	0	0	0	505	513	0	0	
0	0	0	0	0	511	512	0	0	
1	0	0	0	0	511	513	0	0	
2	0	0	0	0	512	513	0	0	
3	0	0	0	0	514	511	0	0	
4	0	0	0	0	518	512	0	0	
5	0	0	0	0	519	511	0	0	
6	0	0	0	0	510	512	0	0	
7	0	0	0	0	511	512	0	0	
8	0	0	0	0	506	511	0	0	
9	0	0	0	0	502	508	0	0	
10	0	0	0	0	499	509	0	0	
11	0	0	0	0	501	508	0	0	
12	0	0	0	0	501	509	0	0	
13	0	0	0	0	502	508	0	0	
14	0	0	0	0	505	508	0	0	
15	0	0	0	0	512	510	0	0	
0	0	0	0	0	519	511	0	0	
1	0	0	0	0	511	512	0	0	
2	0	0	0	0	508	511	0	0	
3	0	0	0	0	507	510	0	0	
4	0	0	0	0	509	510	0	0	
5	0	0	0	0	518	511	0	0	
6	0	0	0	0	512	510	0	0	
7	0	0	0	0	508	513	0	0	
8	0	0	0	0	509	512	0	0	
9	0	0	0	0	510	510	0	0	
10	0	0	0	0	509	510	0	0	
11	0	0	0	0	505	509	0	0	
12	0	0	0	0	506	510	0	0	
13	0	0	0	0	506	508	0	0	
14	0	0	0	0	506	512	0	0	
15	0	0	0	0	504	511	0	0	
0	0	0	0	0	504	511	0	0	
1	0	0	0	0	507	510	0	0	
2	0	0	0	0	510	509	0	0	
3	0	0	0	0	507	511	0	0	
4	0	0	0	0	507	510	0	0	
5	0	0	0	0	507	509	0	0	
6	0	0	0	0	510	509	0	0	
7	0	0	0	0	509	509	0	0	
8	0	0	0	0	508	511	0	0	
9	0	0	0	0	510	512	0	0	
10	0	0	0	0	510	512	0	0	
11	0	0	0	0	511	511	0	0	
12	0	0	0	0	515	512	0	0	
13	0	0	0	0	521	511	0	0	
14	0	0	0	0	511	511	0	0	
15	0	0	0	0	507	511	0	0	
0	0	0	0	0	505	513	0	0	
1	0	0	0	0	504	512	0	0	
2	0	0	0	0	505	508	0	0	
3	0	0	0	0	502	509	0	0	
4	0	0	0	0	501	510	0	0	
5	0	0	0	0	511	509	0	0	
6	0	0	0	0	507	509	0	0	
7	0	0	0	0	506	509	0	0	
8	0	0	0	0	507	509	0	0	
9	0	0	0	0	508	510	0	0	
10	0	0	0	0	511	508	0	0	
11	0	0	0	0	509	511	0	0	
12	0	0	0	0	515	509	0	0	
13	0	0	0	0	513	509	0	0	
14	0	0	0	0	511	512	0	0	
15	0	0	0	0	510	512	0	0	
0	0	0	0	0	511	511	0	0	
1	0	0	0	0	511	511	0	0	
2	0	0	0	0	507	509	0	0	
3	0	0	0	0	508	511	0	0	
4	0	0	0	0	508	510	0	0	
5	0	0	0	0	508	511	0	0	
6	0	0	0	0	507	509	0	0	
7	0	0	0	0	505	509	0	0	
8	0	0	0	0	505	511	0	0	
9	0	0	0	0	505	511	0	0	
10	0	0	0	0	505	510	0	0	
11	0	0	0	0	503	511	0	0	
12	0	0	0	0	507	509	0	0	
13	0	0	0	0	508	511	0	0	
14	0	0	0	0	509	511	0	0	
15	0	0	0	0	513	512	0	0	
0	0	0	0	0	513	509	0	0	
1	0	0	0	0	512	511	0	0	
2	0	0	0	0	513	512	0	0	
3	0	0	0	0	515	513	0	0	
4	0	0	0	0	513	511	0	0	
5	0	0	0	0	511	512	0	0	
6	0	0	0	0	507	510	0	0	
7	0	0	0	0	507	511	0	0	
8	0	0	0	0	508	510	0	0	
9	0	0	0	0	506	508	0	0	
10	0	0	0	0	504	509	0	0	
11	0	0	0	0	504	509	0	0	
12	0	0	0	0	505	509	0	0	
13	0	0	0	0	504	512	0	0	
14	0	0	0	0	503	510	0	0	
15	0	0	0	0	507	511	0	0	
0	0	0	0	0	509	508	0	0	
1	0	0	0	0	509	509	0	0	
2	0	0	0	0	510	510	0	0	
3	0	0	0	0	514	510	0	0	
4	0	0	0	0	508	509	0	0	
5	0	0	0	0	507	512	0	0	
6	0	0	0	0	506	512	0	0	
7	0	0	0	0	508	514	0	0	
8	0	0	0	0	511	513	0	0	
9	0	0	0	0	512	512	0	0	
10	0	0	0	0	520	511	0	0	
11	0	0	0	0	521	509	0	0	
12	0	0	0	0	508	509	0	0	
13	0	0	0	0	502	509	0	0	
14	0	0	0	0	503	511	0	0	
15	0	0	0	0	503	509	0	0	
0	0	0	0	0	502	509	0	0	
1	0	0	0	0	505	510	0	0	
2	0	0	0	0	503	510	0	0	
3	0	0	0	0	504	512	0	0	
4	0	0	0	0	505	509	0	0	
5	0	0	0	0	507	510	0	0	
6	0	0	0	0	511	511	0	0	
7	0	0	0	0	511	510	0	0	
8	0	0	0	0	511	510	0	0	
9	0	0	0	0	513	511	0	0	
10	0	0	0	0	514	512	0	0	
11	0	0	0	0	513	513	0	0	
12	0	0	0	0	509	511	0	0	
13	0	0	0	0	509	511	0	0	
14	0	0	0	0	509	512	0	0	
15	0	0	0	0	508	510	0	0	
0	0	0	0	0	505	511	0	0	
1	0	0	0	0	509	511	0	0	
2	0	0	0	0	508	509	0	0	
3	0	0	0	0	504	508	0	0	
4	0	0	0	0	504	508	0	0	
5	0	0	0	0	504	509	0	0	
6	0	0	0	0	505	510	0	0	
7	0	0	0	0	507	510	0	0	
8	0	0	0	0	508	509	0	0	
9	0	0	0	0	508	509	0	0	
10	0	0	0	0	513	509	0	0	
11	0	0	0	0	512	511	0	0	
12	0	0	0	0	513	511	0	0	
13	0	0	0	0	513	511	0	0	
14	0	0	0	0	514	512	0	0	
15	0	0	0	0	511	510	0	0	
0	0	0	0	0	512	510	0	0	
1	0	0	0	0	508	511	0	0	
2	0	0	0	0	504	512	0	0	
3	0	0	0	0	505	511	0	0	
4	0	0	0	0	504	512	0	0	
5	0	0	0	0	505	511	0	0	
6	0	0	0	0	506	512	0	0	
7	0	0	0	0	507	513	0	0	
8	0	0	0	0	505	509	0	0	
9	0	0	0	0	508	510	0	0	
10	0	0	0	0	508	510	0	0	
11	0	0	0	0	508	510	0	0	
12	0	0	0	0	509	510	0	0	
13	0	0	0	0	507	512	0	0	
14	0	0	0	0	509	513	0	0	
15	0	0	0	0	509	512	0	0	
0	0	0	0	0	512	508	0	0	
1	0	0	0	0	510	512	0	0	
2	0	0	0	0	514	512	0	0	
3	0	0	0	0	512	512	0	0	
4	0	0	0	0	511	510	0	0	
5	0	0	0	0	509	512	0	0	
6	0	0	0	0	515	511	0	0	
7	0	0	0	0	511	510	0	0	
8	0	0	0	0	505	510	0	0	
9	0	0	0	0	508	508	0	0	
10	0	0	0	0	504	509	0	0	
11	0	0	0	0	504	509	0	0	
12	0	0	0	0	504	510	0	0	
13	0	0	0	0	510	509	0	0	
14	0	0	0	0	508	509	0	0	
15	0	0	0	0	503	510	0	0	
0	0	0	0	0	504	510	0	0	
1	0	0	0	0	506	511	0	0	
2	0	0	0	0	510	512	0	0	
3	0	0	0	0	510	511	0	0	
4	0	0	0	0	509	511	0	0	
5	0	0	0	0	512	512	0	0	
6	0	0	0	0	514	511	0	0	
7	0	0	0	0	514	513	0	0	
8	0	0	0	0	511	510	0	0	
9	0	0	0	0	510	510	0	0	
10	0	0	0	0	509	510	0	0	
11	0	0	0	0	507	508	0	0	
12	0	0	0	0	507	512	0	0	
13	0	0	0	0	507	510	0	0	
14	0	0	0	0	505	508	0	0	
15	0	0	0	0	501	510	0	0	
0	0	0	0	0	506	511	0	0	
1	0	0	0	0	506	511	0	0	
2	0	0	0	0	506	508	0	0	
3	0	0	0	0	507	510	0	0	
4	0	0	0	0	507	509	0	0	
5	0	0	0	0	519	513	0	0	
6	0	0	0	0	512	510	0	0	
7	0	0	0	0	509	510	0	0	
8	0	0	0	0	509	508	0	0	
9	0	0	0	0	507	510	0	0	
10	0	0	0	0	508	510	0	0	
11	0	0	0	0	515	512	0	0	
12	0	0	0	0	511	512	0	0	
13	0	0	0	0	508	510	0	0	
14	0	0	0	0	509	508	0	0	
15	0	0	0	0	509	511	0	0	
0	0	0	0	0	514	512	0	0	
1	0	0	0	0	510	511	0	0	
2	0	0	0	0	503	512	0	0	
3	0	0	0	0	502	512	0	0	
4	0	0	0	0	508	510	0	0	
5	0	0	0	0	506	509	0	0	
6	0	0	0	0	503	506	0	0	
7	0	0	0	0	502	510	0	0	
8	0	0	0	0	503	511	0	0	
9	0	0	0	0	508	511	0	0	
10	0	0	0	0	511	511	0	0	
11	0	0	0	0	513	510	0	0	
12	0	0	0	0	515	511	0	0	
13	0	0	0	0	517	511	0	0	
14	0	0	0	0	517	510	0	0	
15	0	0	0	0	508	511	0	0	
0	0	0	0	0	496	509	0	0	
1	0	0	0	0	494	512	0	0	
2	0	0	0	0	505	512	0	0	
3	0	0	0	0	515	512	0	0	
4	0	0	0	0	513	508	0	0	
5	0	0	0	0	518	510	0	0	
6	0	0	0	0	519	511	0	0	
7	0	0	0	0	515	510	0	0	
8	0	0	0	0	508	511	0	0	
9	0	0	0	0	507	511	0	0	
10	0	0	0	0	512	510	0	0	
11	0	0	0	0	500	511	0	0	
12	0	0	0	0	499	510	0	0	
13	0	0	0	0	500	510	0	0	
14	0	0	0	0	507	510	0	0	
15	0	0	0	0	514	512	0	0	
0	0	0	0	0	512	511	0	0	
1	0	0	0	0	523	513	0	0	
2	0	0	0	0	517	516	0	0	
3	0	0	0	0	507	515	0	0	
4	0	0	0	0	506	510	0	0	
5	0	0	0	0	507	511	0	0	
6	0	0	0	0	508	509	0	0	
7	0	0	0	0	508	510	0	0	
8	0	0	0	0	509	511	0	0	
9	0	0	0	0	508	509	0	0	
10	0	0	0	0	509	507	0	0	
11	0	0	0	0	503	509	0	0	
12	0	0	0	0	499	508	0	0	
13	0	0	0	0	496	509	0	0	
14	0	0	0	0	498	509	0	0	
15	0	0	0	0	504	510	0	0	
0	0	0	0	0	514	513	0	0	
1	0	0	0	0	515	513	0	0	
2	0	0	0	0	511	510	0	0	
3	0	0	0	0	511	510	0	0	
4	0	0	0	0	509	510	0	0	
5	0	0	0	0	512	510	0	0	
6	0	0	0	0	514	512	0	0	
7	0	0	0	0	516	511	0	0	
8	0	0	0	0	513	512	0	0	
9	0	0	0	0	510	513	0	0	
10	0	0	0	0	510	512	0	0	
11	0	0	0	0	510	510	0	0	
12	0	0	0	0	507	511	0	0	
13	0	0	0	0	504	509	0	0	
14	0	0	0	0	506	512	0	0	
15	0	0	0	0	505	508	0	0	
0	0	0	0	0	505	510	0	0	
1	0	0	0	0	507	511	0	0	
2	0	0	0	0	511	508	0	0	
3	0	0	0	0	508	509	0	0	
4	0	0	0	0	508	512	0	0	
5	0	0	0	0	508	509	0	0	
6	0	0	0	0	504	511	0	0	
7	0	0	0	0	500	510	0	0	
8	0	0	0	0	495	508	0	0	
9	0	0	0	0	498	512	0	0	
10	0	0	0	0	508	513	0	0	
11	0	0	0	0	519	512	0	0	
12	0	0	0	0	521	511	0	0	
13	0	0	0	0	530	510	0	0	
14	0	0	0	0	528	509	0	0	
15	0	0	0	0	519	509	0	0	
0	0	0	0	0	498	510	0	0	
1	0	0	0	0	492	510	0	0	
2	0	0	0	0	494	511	0	0	
3	0	0	0	0	504	511	0	0	
4	0	0	0	0	508	512	0	0	
5	0	0	0	0	511	510	0	0	
6	0	0	0	0	520	510	0	0	
7	0	0	0	0	505	509	0	0	
8	0	0	0	0	499	508	0	0	
9	0	0	0	0	504	510	0	0	
10	0	0	0	0	519	510	0	0	
11	0	0	0	0	517	510	0	0	
12	0	0	0	0	517	511	0	0	
13	0	0	0	0	506	511	0	0	
14	0	0	0	0	520	512	0	0	
15	0	0	0	0	511	514	0	0	
0	0	0	0	0	498	510	0	0	
1	0	0	0	0	502	511	0	0	
2	0	0	0	0	507	510	0	0	
3	0	0	0	0	505	511	0	0	
4	0	0	0	0	504	511	0	0	
5	0	0	0	0	502	510	0	0	
6	0	0	0	0	502	509	0	0	
7	0	0	0	0	508	511	0	0	
8	0	0	0	0	508	511	0	0	
9	0	0	0	0	508	507	0	0	
10	0	0	0	0	506	509	0	0	
11	0	0	0	0	508	509	0	0	
12	0	0	0	0	507	507	0	0	
13	0	0	0	0	509	508	0	0	
14	0	0	0	0	511	510	0	0	
15	0	0	0	0	511	512	0	0	
0	0	0	0	0	512	511	0	0	
1	0	0	0	0	513	511	0	0	
2	0	0	0	0	512	509	0	0	
3	0	0	0	0	512	511	0	0	
4	0	0	0	0	512	513	0	0	
5	0	0	0	0	508	512	0	0	
6	0	0	0	0	505	511	0	0	
7	0	0	0	0	507	511	0	0	
8	0	0	0	0	510	511	0	0	
9	0	0	0	0	513	511	0	0	
10	0	0	0	0	508	510	0	0	
11	0	0	0	0	503	509	0	0	
12	0	0	0	0	506	510	0	0	
13	0	0	0	0	504	509	0	0	
14	0	0	0	0	505	511	0	0	
15	0	0	0	0	505	511	0	0	
0	0	0	0	0	509	509	0	0	
1	0	0	0	0	509	508	0	0	
2	0	0	0	0	508	510	0	0	
3	0	0	0	0	510	513	0	0	
4	0	0	0	0	513	510	0	0	
5	0	0	0	0	518	512	0	0	
6	0	0	0	0	513	514	0	0	
7	0	0	0	0	508	512	0	0	
8	0	0	0	0	510	512	0	0	
9	0	0	0	0	510	513	0	0	
10	0	0	0	0	507	512	0	0	
11	0	0	0	0	507	510	0	0	
12	0	0	0	0	506	510	0	0	
13	0	0	0	0	504	509	0	0	
14	0	0	0	0	505	508	0	0	
15	0	0	0	0	505	509	0	0	
0	0	0	0	0	508	508	0	0	
1	0	0	0	0	507	509	0	0	
2	0	0	0	0	505	507	0	0	
3	0	0	0	0	507	510	0	0	
4	0	0	0	0	508	510	0	0	
5	0	0	0	0	508	511	0	0	
6	0	0	0	0	510	511	0	0	
7	0	0	0	0	511	513	0	0	
8	0	0	0	0	512	511	0	0	
9	0	0	0	0	513	513	0	0	
10	0	0	0	0	512	511	0	0	
11	0	0	0	0	513	512	0	0	
12	0	0	0	0	510	511	0	0	
13	0	0	0	0	509	511	0	0	
14	0	0	0	0	510	513	0	0	
15	0	0	0	0	509	511	0	0	
0	0	0	0	0	505	513	0	0	
1	0	0	0	0	504	509	0	0	
2	0	0	0	0	505	511	0	0	
3	0	0	0	0	504	510	0	0	
4	0	0	0	0	509	507	0	0	
5	0	0	0	0	507	510	0	0	
6	0	0	0	0	507	509	0	0	
7	0	0	0	0	508	511	0	0	
8	0	0	0	0	507	510	0	0	
9	0	0	0	0	508	508	0	0	
10	0	0	0	0	511	510	0	0	
11	0	0	0	0	510	509	0	0	
12	0	0	0	0	511	513	0	0	
13	0	0	0	0	512	512	0	0	
14	0	0	0	0	512	511	0	0	
15	0	0	0	0	511	514	0	0	
0	0	0	0	0	511	513	0	0	
1	0	0	0	0	512	512	0	0	
2	0	0	0	0	508	512	0	0	
3	0	0	0	0	506	511	0	0	
4	0	0	0	0	509	510	0	0	
5	0	0	0	0	506	508	0	0	
6	0	0	0	0	506	510	0	0	
7	0	0	0	0	505	509	0	0	
8	0	0	0	0	505	508	0	0	
9	0	0	0	0	505	507	0	0	
10	0	0	0	0	504	509	0	0	
11	0	0	0	0	507	511	0	0	
12	0	0	0	0	507	509	0	0	
13	0	0	0	0	509	509	0	0	
14	0	0	0	0	512	508	0	0	
15	0	0	0	0	512	512	0	0	
0	0	0	0	0	511	512	0	0	
1	0	0	0	0	511	510	0	0	
2	0	0	0	0	511	512	0	0	
3	0	0	0	0	511	511	0	0	
4	0	0	0	0	514	513	0	0	
5	0	0	0	0	511	513	0	0	
6	0	0	0	0	507	510	0	0	
7	0	0	0	0	508	510	0	0	
8	0	0	0	0	508	512	0	0	
9	0	0	0	0	505	513	0	0	
10	0	0	0	0	508	510	0	0	
11	0	0	0	0	505	510	0	0	
12	0	0	0	0	504	512	0	0	
13	0	0	0	0	502	511	0	0	
14	0	0	0	0	502	510	0	0	
15	0	0	0	0	505	508	0	0	
0	0	0	0	0	506	507	0	0	
1	0	0	0	0	509	509	0	0	
2	0	0	0	0	513	512	0	0	
3	0	0	0	0	520	511	0	0	
4	0	0	0	0	519	512	0	0	
5	0	0	0	0	511	510	0	0	
6	0	0	0	0	512	511	0	0	
7	0	0	0	0	511	511	0	0	
8	0	0	0	0	509	512	0	0	
9	0	0	0	0	509	511	0	0	
10	0	0	0	0	507	511	0	0	
11	0	0	0	0	505	510	0	0	
12	0	0	0	0	504	510	0	0	
13	0	0	0	0	505	510	0	0	
14	0	0	0	0	501	511	0	0	
15	0	0	0	0	506	513	0	0	
0	0	0	0	0	506	511	0	0	
1	0	0	0	0	506	508	0	0	
2	0	0	0	0	507	510	0	0	
3	0	0	0	0	508	508	0	0	
4	0	0	0	0	509	511	0	0	
5	0	0	0	0	509	511	0	0	
6	0	0	0	0	510	511	0	0	
7	0	0	0	0	512	511	0	0	
8	0	0	0	0	513	510	0	0	
9	0	0	0	0	514	512	0	0	
10	0	0	0	0	512	512	0	0	
11	0	0	0	0	510	513	0	0	
12	0	0	0	0	509	512	0	0	
13	0	0	0	0	511	511	0	0	
14	0	0	0	0	514	511	0	0	
15	0	0	0	0	512	509	0	0	
0	0	0	0	0	508	511	0	0	
1	0	0	0	0	503	510	0	0	
2	0	0	0	0	504	511	0	0	
3	0	0	0	0	504	508	0	0	
4	0	0	0	0	504	510	0	0	
5	0	0	0	0	503	509	0	0	
6	0	0	0	0	504	512	0	0	
7	0	0	0	0	504	511	0	0	
8	0	0	0	0	508	510	0	0	
9	0	0	0	0	509	508	0	0	
10	0	0	0	0	510	511	0	0	
11	0	0	0	0	512	511	0	0	
12	0	0	0	0	512	511	0	0	
13	0	0	0	0	509	509	0	0	
14	0	0	0	0	511	510	0	0	
15	0	0	0	0	513	512	0	0	
0	0	0	0	0	513	512	0	0	
1	0	0	0	0	512	512	0	0	
2	0	0	0	0	513	511	0	0	
3	0	0	0	0	508	511	0	0	
4	0	0	0	0	511	512	0	0	
5	0	0	0	0	508	510	0	0	
6	0	0	0	0	506	511	0	0	
7	0	0	0	0	503	511	0	0	
8	0	0	0	0	504	510	0	0	
9	0	0	0	0	503	508	0	0	
10	0	0	0	0	504	512	0	0	
11	0	0	0	0	508	509	0	0	
12	0	0	0	0	508	511	0	0	
13	0	0	0	0	508	509	0	0	
14	0	0	0	0	509	511	0	0	
15	0	0	0	0	510	509	0	0	
0	0	0	0	0	511	509	0	0	
1	0	0	0	0	511	512	0	0	
2	0	0	0	0	509	513	0	0	
3	0	0	0	0	510	512	0	0	
4	0	0	0	0	511	512	0	0	
5	0	0	0	0	508	511	0	0	
6	0	0	0	0	508	511	0	0	
7	0	0	0	0	511	509	0	0	
8	0	0	0	0	513	510	0	0	
9	0	0	0	0	515	511	0	0	
10	0	0	0	0	506	511	0	0	
11	0	0	0	0	504	510	0	0	
12	0	0	0	0	505	510	0	0	
13	0	0	0	0	506	510	0	0	
14	0	0	0	0	506	508	0	0	
15	0	0	0	0	498	510	0	0	
0	0	0	0	0	500	509	0	0	
1	0	0	0	0	504	510	0	0	
2	0	0	0	0	507	510	0	0	
3	0	0	0	0	507	510	0	0	
4	0	0	0	0	508	512	0	0	
5	0	0	0	0	519	513	0	0	
6	0	0	0	0	534	512	0	0	
7	0	0	0	0	518	512	0	0	
8	0	0	0	0	509	512	0	0	
9	0	0	0	0	504	511	0	0	
10	0	0	0	0	505	511	0	0	
11	0	0	0	0	506	510	0	0	
12	0	0	0	0	505	512	0	0	
13	0	0	0	0	507	509	0	0	
14	0	0	0	0	505	510	0	0	
15	0	0	0	0	504	510	0	0	
0	0	0	0	0	505	511	0	0	
1	0	0	0	0	507	510	0	0	
2	0	0	0	0	506	507	0	0	
3	0	0	0	0	506	510	0	0	
4	0	0	0	0	508	510	0	0	
5	0	0	0	0	510	511	0	0	
6	0	0	0	0	512	511	0	0	
7	0	0	0	0	508	511	0	0	
8	0	0	0	0	511	511	0	0	
9	0	0	0	0	511	510	0	0	
10	0	0	0	0	513	511	0	0	
11	0	0	0	0	512	514	0	0	
12	0	0	0	0	512	512	0	0	
13	0	0	0	0	512	513	0	0	
14	0	0	0	0	509	511	0	0	
15	0	0	0	0	510	511	0	0	
0	0	0	0	0	505	510	0	0	
1	0	0	0	0	505	509	0	0	
2	0	0	0	0	505	509	0	0	
3	0	0	0	0	504	509	0	0	
4	0	0	0	0	503	509	0	0	
5	0	0	0	0	504	510	0	0	
6	0	0	0	0	505	508	0	0	
7	0	0	0	0	508	510	0	0	
8	0	0	0	0	507	509	0	0	
9	0	0	0	0	508	511	0	0	
10	0	0	0	0	510	510	0	0	
11	0	0	0	0	510	510	0	0	
12	0	0	0	0	511	511	0	0	
13	0	0	0	0	514	512	0	0	
14	0	0	0	0	511	511	0	0	
15	0	0	0	0	514	511	0	0	
0	0	0	0	0	514	511	0	0	
1	0	0	0	0	511	512	0	0	
2	0	0	0	0	507	511	0	0	
3	0	0	0	0	508	512	0	0	
4	0	0	0	0	508	510	0	0	
5	0	0	0	0	504	510	0	0	
6	0	0	0	0	503	510	0	0	
7	0	0	0	0	503	508	0	0	
8	0	0	0	0	504	511	0	0	
9	0	0	0	0	507	510	0	0	
10	0	0	0	0	507	508	0	0	
11	0	0	0	0	508	509	0	0	
12	0	0	0	0	516	513	0	0	
13	0	0	0	0	512	511	0	0	
14	0	0	0	0	509	511	0	0	
15	0	0	0	0	505	510	0	0	
0	0	0	0	0	509	511	0	0	
1	0	0	0	0	512	511	0	0	
2	0	0	0	0	513	511	0	0	
3	0	0	0	0	511	512	0	0	
4	0	0	0	0	510	510	0	0	
5	0	0	0	0	511	509	0	0	
6	0	0	0	0	511	510	0	0	
7	0	0	0	0	509	511	0	0	
8	0	0	0	0	507	510	0	0	
9	0	0	0	0	505	510	0	0	
10	0	0	0	0	505	510	0	0	
11	0	0	0	0	506	509	0	0	
12	0	0	0	0	508	511	0	0	
13	0	0	0	0	505	512	0	0	
14	0	0	0	0	505	512	0	0	
15	0	0	0	0	504	511	0	0	
0	0	0	0	0	505	509	0	0	
1	0	0	0	0	506	509	0	0	
2	0	0	0	0	510	514	0	0	
3	0	0	0	0	511	512	0	0	
4	0	0	0	0	512	511	0	0	
5	0	0	0	0	513	511	0	0	
6	0	0	0	0	511	511	0	0	
7	0	0	0	0	512	510	0	0	
8	0	0	0	0	512	511	0	0	
9	0	0	0	0	510	513	0	0	
10	0	0	0	0	512	510	0	0	
11	0	0	0	0	509	513	0	0	
12	0	0	0	0	509	510	0	0	
13	0	0	0	0	506	510	0	0	
14	0	0	0	0	505	512	0	0	
15	0	0	0	0	505	510	0	0	
0	0	0	0	0	504	510	0	0	
1	0	0	0	0	504	511	0	0	
2	0	0	0	0	507	508	0	0	
3	0	0	0	0	507	508	0	0	
4	0	0	0	0	509	512	0	0	
5	0	0	0	0	509	510	0	0	
6	0	0	0	0	509	510	0	0	
7	0	0	0	0	512	514	0	0	
8	0	0	0	0	513	511	0	0	
9	0	0	0	0	511	511	0	0	
10	0	0	0	0	512	511	0	0	
11	0	0	0	0	511	512	0	0	
12	0	0	0	0	511	510	0	0	
13	0	0	0	0	511	510	0	0	
14	0	0	0	0	510	511	0	0	
15	0	0	0	0	508	511	0	0	
0	0	0	0	0	506	509	0	0	
1	0	0	0	0	504	511	0	0	
2	0	0	0	0	504	508	0	0	
3	0	0	0	0	505	511	0	0	
4	0	0	0	0	501	511	0	0	
5	0	0	0	0	504	511	0	0	
6	0	0	0	0	508	509	0	0	
7	0	0	0	0	507	508	0	0	
8	0	0	0	0	510	510	0	0	
9	0	0	0	0	511	509	0	0	
10	0	0	0	0	510	510	0	0	
11	0	0	0	0	510	511	0	0	
12	0	0	0	0	511	512	0	0	
13	0	0	0	0	513	511	0	0	
14	0	0	0	0	508	512	0	0	
15	0	0	0	0	511	511	0	0	
0	0	0	0	0	513	510	0	0	
1	0	0	0	0	514	511	0	0	
2	0	0	0	0	511	514	0	0	
3	0	0	0	0	507	510	0	0	
4	0	0	0	0	502	510	0	0	
5	0	0	0	0	504	509	0	0	
6	0	0	0	0	505	509	0	0	
7	0	0	0	0	505	509	0	0	
8	0	0	0	0	507	511	0	0	
9	0	0	0	0	508	511	0	0	
10	0	0	0	0	518	511	0	0	
11	0	0	0	0	510	510	0	0	
12	0	0	0	0	507	508	0	0	
13	0	0	0	0	502	510	0	0	
14	0	0	0	0	504	511	0	0	
15	0	0	0	0	507	511	0	0	
0	0	0	0	0	508	512	0	0	
1	0	0	0	0	510	512	0	0	
2	0	0	0	0	512	512	0	0	
3	0	0	0	0	511	513	0	0	
4	0	0	0	0	512	512	0	0	
5	0	0	0	0	511	511	0	0	
6	0	0	0	0	512	511	0	0	
7	0	0	0	0	515	512	0	0	
8	0	0	0	0	511	510	0	0	
9	0	0	0	0	508	511	0	0	
10	0	0	0	0	505	509	0	0	
11	0	0	0	0	506	508	0	0	
12	0	0	0	0	504	507	0	0	
13	0	0	0	0	504	507	0	0	
14	0	0	0	0	504	507	0	0	
15	0	0	0	0	505	508	0	0	
0	0	0	0	0	504	509	0	0	
1	0	0	0	0	505	509	0	0	
2	0	0	0	0	506	510	0	0	
3	0	0	0	0	511	513	0	0	
4	0	0	0	0	510	513	0	0	
5	0	0	0	0	512	511	0	0	
6	0	0	0	0	514	514	0	0	
7	0	0	0	0	513	513	0	0	
8	0	0	0	0	510	512	0	0	
9	0	0	0	0	511	511	0	0	
10	0	0	0	0	511	510	0	0	
11	0	0	0	0	509	509	0	0	
12	0	0	0	0	508	510	0	0	
13	0	0	0	0	504	509	0	0	
14	0	0	0	0	509	511	0	0	
15	0	0	0	0	515	510	0	0	
0	0	0	0	0	509	511	0	0	
1	0	0	0	0	501	509	0	0	
2	0	0	0	0	500	510	0	0	
3	0	0	0	0	507	510	0	0	
4	0	0	0	0	508	509	0	0	
5	0	0	0	0	506	510	0	0	
6	0	0	0	0	509	511	0	0	
7	0	0	0	0	508	511	0	0	
8	0	0	0	0	511	511	0	0	
9	0	0	0	0	513	510	0	0	
10	0	0	0	0	513	510	0	0	
11	0	0	0	0	514	512	0	0	
12	0	0	0	0	512	510	0	0	
13	0	0	0	0	509	512	0	0	
14	0	0	0	0	509	514	0	0	
15	0	0	0	0	510	511	0	0	
0	0	0	0	0	507	509	0	0	
1	0	0	0	0	504	509	0	0	
2	0	0	0	0	501	508	0	0	
3	0	0	0	0	504	508	0	0	
4	0	0	0	0	500	508	0	0	
5	0	0	0	0	500	509	0	0	
6	0	0	0	0	504	509	0	0	
7	0	0	0	0	511	510	0	0	
8	0	0	0	0	523	510	0	0	
9	0	0	0	0	515	509	0	0	
10	0	0	0	0	510	510	0	0	
11	0	0	0	0	511	514	0	0	
12	0	0	0	0	509	513	0	0	
13	0	0	0	0	510	512	0	0	
14	0	0	0	0	510	511	0	0	
15	0	0	0	0	510	510	0	0	
0	0	0	0	0	511	512	0	0	
1	0	0	0	0	511	513	0	0	
2	0	0	0	0	509	511	0	0	
3	0	0	0	0	508	510	0	0	
4	0	0	0	0	506	510	0	0	
5	0	0	0	0	507	508	0	0	
6	0	0	0	0	508	510	0	0	
7	0	0	0	0	508	510	0	0	
8	0	0	0	0	509	508	0	0	
9	0	0	0	0	505	507	0	0	
10	0	0	0	0	503	510	0	0	
11	0	0	0	0	504	509	0	0	
12	0	0	0	0	505	511	0	0	
13	0	0	0	0	508	511	0	0	
14	0	0	0	0	511	511	0	0	
15	0	0	0	0	513	509	0	0	
0	0	0	0	0	512	510	0	0	
1	0	0	0	0	514	511	0	0	
2	0	0	0	0	514	513	0	0	
3	0	0	0	0	511	511	0	0	
4	0	0	0	0	509	512	0	0	
5	0	0	0	0	508	511	0	0	
6	0	0	0	0	511	511	0	0	
7	0	0	0	0	508	510	0	0	
8	0	0	0	0	504	511	0	0	
9	0	0	0	0	504	511	0	0	
10	0	0	0	0	504	509	0	0	
11	0	0	0	0	504	508	0	0	
12	0	0	0	0	507	509	0	0	
13	0	0	0	0	507	510	0	0	
14	0	0	0	0	513	511	0	0	
15	0	0	0	0	510	509	0	0	
0	0	0	0	0	504	512	0	0	
1	0	0	0	0	504	510	0	0	
2	0	0	0	0	511	510	0	0	
3	0	0	0	0	512	512	0	0	
4	0	0	0	0	511	510	0	0	
5	0	0	0	0	514	511	0	0	
6	0	0	0	0	513	511	0	0	
7	0	0	0	0	510	511	0	0	
8	0	0	0	0	507	512	0	0	
9	0	0	0	0	505	512	0	0	
10	0	0	0	0	508	509	0	0	
11	0	0	0	0	510	510	0	0	
12	0	0	0	0	509	512	0	0	
13	0	0	0	0	507	512	0	0	
14	0	0	0	0	507	512	0	0	
15	0	0	0	0	505	508	0	0	
0	0	0	0	0	506	510	0	0	
1	0	0	0	0	507	509	0	0	
2	0	0	0	0	507	509	0	0	
3	0	0	0	0	507	508	0	0	
4	0	0	0	0	505	508	0	0	
5	0	0	0	0	505	510	0	0	
6	0	0	0	0	511	508	0	0	
7	0	0	0	0	512	510	0	0	
8	0	0	0	0	512	510	0	0	
9	0	0	0	0	511	511	0	0	
10	0	0	0	0	509	513	0	0	
11	0	0	0	0	508	512	0	0	
12	0	0	0	0	509	509	0	0	
13	0	0	0	0	511	511	0	0	
14	0	0	0	0	512	512	0	0	
15	0	0	0	0	516	511	0	0	
0	0	0	0	0	519	511	0	0	
1	0	0	0	0	516	511	0	0	
2	0	0	0	0	507	511	0	0	
3	0	0	0	0	501	510	0	0	
4	0	0	0	0	500	509	0	0	
5	0	0	0	0	502	510	0	0	
6	0	0	0	0	503	510	0	0	
7	0	0	0	0	504	510	0	0	
8	0	0	0	0	507	509	0	0	
9	0	0	0	0	509	510	0	0	
10	0	0	0	0	512	508	0	0	
11	0	0	0	0	511	511	0	0	
12	0	0	0	0	512	510	0	0	
13	0	0	0	0	509	510	0	0	
14	0	0	0	0	510	510	0	0	
15	0	0	0	0	511	515	0	0	
0	0	0	0	0	510	511	0	0	
1	0	0	0	0	508	510	0	0	
2	0	0	0	0	509	511	0	0	
3	0	0	0	0	510	509	0	0	
4	0	0	0	0	507	510	0	0	
5	0	0	0	0	504	511	0	0	
6	0	0	0	0	507	508	0	0	
7	0	0	0	0	505	510	0	0	
8	0	0	0	0	504	510	0	0	
9	0	0	0	0	503	511	0	0	
10	0	0	0	0	508	512	0	0	
11	0	0	0	0	506	510	0	0	
12	0	0	0	0	506	511	0	0	
13	0	0	0	0	507	508	0	0	
14	0	0	0	0	511	512	0	0	
15	0	0	0	0	511	510	0	0	
0	0	0	0	0	511	509	0	0	
1	0	0	0	0	511	511	0	0	
2	0	0	0	0	513	510	0	0	
3	0	0	0	0	512	513	0	0	
4	0	0	0	0	510	511	0	0	
5	0	0	0	0	512	513	0	0	
6	0	0	0	0	511	514	0	0	
7	0	0	0	0	511	510	0	0	
8	0	0	0	0	506	510	0	0	
9	0	0	0	0	504	511	0	0	
10	0	0	0	0	502	511	0	0	
11	0	0	0	0	505	510	0	0	
12	0	0	0	0	507	509	0	0	
13	0	0	0	0	509	508	0	0	
14	0	0	0	0	508	508	0	0	
15	0	0	0	0	507	510	0	0	
0	0	0	0	0	507	511	0	0	
1	0	0	0	0	506	510	0	0	
2	0	0	0	0	507	512	0	0	
3	0	0	0	0	509	513	0	0	
4	0	0	0	0	511	511	0	0	
5	0	0	0	0	510	511	0	0	
6	0	0	0	0	513	511	0	0	
7	0	0	0	0	512	511	0	0	
8	0	0	0	0	511	509	0	0	
9	0	0	0	0	512	509	0	0	
10	0	0	0	0	511	511	0	0	
11	0	0	0	0	510	510	0	0	
12	0	0	0	0	507	510	0	0	
13	0	0	0	0	506	512	0	0	
14	0	0	0	0	505	511	0	0	
15	0	0	0	0	504	509	0	0	
0	0	0	0	0	504	509	0	0	
1	0	0	0	0	502	510	0	0	
2	0	0	0	0	503	507	0	0	
3	0	0	0	0	506	510	0	0	
4	0	0	0	0	507	509	0	0	
5	0	0	0	0	508	510	0	0	
6	0	0	0	0	510	509	0	0	
7	0	0	0	0	508	510	0	0	
8	0	0	0	0	507	511	0	0	
9	0	0	0	0	513	511	0	0	
10	0	0	0	0	513	513	0	0	
11	0	0	0	0	512	513	0	0	
12	0	0	0	0	516	511	0	0	
13	0	0	0	0	514	512	0	0	
14	0	0	0	0	516	512	0	0	
15	0	0	0	0	514	511	0	0	
0	0	0	0	0	504	513	0	0	
1	0	0	0	0	504	511	0	0	
2	0	0	0	0	504	510	0	0	
3	0	0	0	0	500	510	0	0	
4	0	0	0	0	506	511	0	0	
5	0	0	0	0	503	510	0	0	
6	0	0	0	0	502	510	0	0	
7	0	0	0	0	505	509	0	0	
8	0	0	0	0	508	510	0	0	
9	0	0	0	0	519	509	0	0	
10	0	0	0	0	515	512	0	0	
11	0	0	0	0	508	512	0	0	
12	0	0	0	0	509	510	0	0	
13	0	0	0	0	512	509	0	0	
14	0	0	0	0	512	512	0	0	
15	0	0	0	0	511	511	0	0	
0	0	0	0	0	510	511	0	0	
1	0	0	0	0	511	512	0	0	
2	0	0	0	0	510	510	0	0	
3	0	0	0	0	509	511	0	0	
4	0	0	0	0	508	511	0	0	
5	0	0	0	0	506	511	0	0	
6	0	0	0	0	504	510	0	0	
7	0	0	0	0	504	507	0	0	
8	0	0	0	0	504	510	0	0	
9	0	0	0	0	504	511	0	0	
10	0	0	0	0	503	507	0	0	
11	0	0	0	0	506	511	0	0	
12	0	0	0	0	508	509	0	0	
13	0	0	0	0	511	510	0	0	
14	0	0	0	0	512	506	0	0	
15	0	0	0	0	511	510	0	0	
0	0	0	0	0	511	509	0	0	
1	0	0	0	0	513	511	0	0	
2	0	0	0	0	512	513	0	0	
3	0	0	0	0	511	512	0	0	
4	0	0	0	0	510	511	0	0	
5	0	0	0	0	509	511	0	0	
6	0	0	0	0	510	512	0	0	
7	0	0	0	0	509	512	0	0	
8	0	0	0	0	508	511	0	0	
9	0	0	0	0	506	510	0	0	
10	0	0	0	0	507	508	0	0	
11	0	0	0	0	503	509	0	0	
12	0	0	0	0	501	510	0	0	
13	0	0	0	0	504	509	0	0	
14	0	0	0	0	506	509	0	0	
15	0	0	0	0	507	510	0	0	
0	0	0	0	0	508	509	0	0	
1	0	0	0	0	510	508	0	0	
2	0	0	0	0	511	508	0	0	
3	0	0	0	0	511	512	0	0	
4	0	0	0	0	509	510	0	0	
5	0	0	0	0	510	512	0	0	
6	0	0	0	0	512	512	0	0	
7	0	0	0	0	512	513	0	0	
8	0	0	0	0	511	511	0	0	
9	0	0	0	0	517	511	0	0	
10	0	0	0	0	517	512	0	0	
11	0	0	0	0	515	512	0	0	
12	0	0	0	0	504	512	0	0	
13	0	0	0	0	500	510	0	0	
14	0	0	0	0	503	509	0	0	
15	0	0	0	0	503	507	0	0	
0	0	0	0	0	503	510	0	0	
1	0	0	0	0	504	509	0	0	
2	0	0	0	0	506	509	0	0	
3	0	0	0	0	505	509	0	0	
4	0	0	0	0	507	510	0	0	
5	0	0	0	0	507	511	0	0	
6	0	0	0	0	509	511	0	0	
7	0	0	0	0	510	511	0	0	
8	0	0	0	0	511	510	0	0	
9	0	0	0	0	511	512	0	0	
10	0	0	0	0	514	511	0	0	
11	0	0	0	0	515	511	0	0	
12	0	0	0	0	512	512	0	0	
13	0	0	0	0	511	510	0	0	
14	0	0	0	0	509	510	0	0	
15	0	0	0	0	511	510	0	0	
0	0	0	0	0	508	513	0	0	
1	0	0	0	0	507	509	0	0	
2	0	0	0	0	505	511	0	0	
3	0	0	0	0	503	510	0	0	
4	0	0	0	0	506	509	0	0	
5	0	0	0	0	505	510	0	0	
6	0	0	0	0	507	511	0	0	
7	0	0	0	0	508	508	0	0	
8	0	0	0	0	507	510	0	0	
9	0	0	0	0	505	510	0	0	
10	0	0	0	0	507	512	0	0	
11	0	0	0	0	511	512	0	0	
12	0	0	0	0	512	512	0	0	
13	0	0	0	0	513	508	0	0	
14	0	0	0	0	511	510	0	0	
15	0	0	0	0	510	512	0	0	
0	0	0	0	0	508	512	0	0	
1	0	0	0	0	508	513	0	0	
2	0	0	0	0	507	510	0	0	
3	0	0	0	0	508	508	0	0	
4	0	0	0	0	508	511	0	0	
5	0	0	0	0	507	510	0	0	
6	0	0	0	0	509	511	0	0	
7	0	0	0	0	508	511	0	0	
8	0	0	0	0	508	511	0	0	
9	0	0	0	0	505	510	0	0	
10	0	0	0	0	502	509	0	0	
11	0	0	0	0	504	509	0	0	
12	0	0	0	0	506	509	0	0	
13	0	0	0	0	508	510	0	0	
14	0	0	0	0	508	512	0	0	
15	0	0	0	0	517	509	0	0	
0	0	0	0	0	513	510	0	0	
1	0	0	0	0	510	510	0	0	
2	0	0	0	0	507	509	0	0	
3	0	0	0	0	509	514	0	0	
4	0	0	0	0	507	513	0	0	
5	0	0	0	0	510	513	0	0	
6	0	0	0	0	518	512	0	0	
7	0	0	0	0	522	512	0	0	
8	0	0	0	0	508	512	0	0	
9	0	0	0	0	506	511	0	0	
10	0	0	0	0	503	510	0	0	
11	0	0	0	0	502	508	0	0	
12	0	0	0	0	505	509	0	0	
13	0	0	0	0	505	509	0	0	
14	0	0	0	0	504	509	0	0	
15	0	0	0	0	506	508	0	0	
0	0	0	0	0	508	508	0	0	
1	0	0	0	0	507	510	0	0	
2	0	0	0	0	509	510	0	0	
3	0	0	0	0	509	513	0	0	
4	0	0	0	0	510	511	0	0	
5	0	0	0	0	510	512	0	0	
6	0	0	0	0	513	513	0	0	
7	0	0	0	0	511	513	0	0	
8	0	0	0	0	513	512	0	0	
9	0	0	0	0	512	511	0	0	
10	0	0	0	0	510	512	0	0	
11	0	0	0	0	510	510	0	0	
12	0	0	0	0	509	511	0	0	
13	0	0	0	0	504	509	0	0	
14	0	0	0	0	506	510	0	0	
15	0	0	0	0	508	507	0	0	
0	0	0	0	0	502	513	0	0	
1	0	0	0	0	502	509	0	0	
2	0	0	0	0	504	510	0	0	
3	0	0	0	0	507	508	0	0	
4	0	0	0	0	505	512	0	0	
5	0	0	0	0	507	510	0	0	
6	0	0	0	0	509	511	0	0	
7	0	0	0	0	511	510	0	0	
8	0	0	0	0	510	513	0	0	
9	0	0	0	0	512	510	0	0	
10	0	0	0	0	515	512	0	0	
11	0	0	0	0	515	513	0	0	
12	0	0	0	0	513	512	0	0	
13	0	0	0	0	512	511	0	0	
14	0	0	0	0	511	512	0	0	
15	0	0	0	0	511	511	0	0	
0	0	0	0	0	508	511	0	0	
1	0	0	0	0	505	511	0	0	
2	0	0	0	0	504	508	0	0	
3	0	0	0	0	504	508	0	0	
4	0	0	0	0	504	506	0	0	
5	0	0	0	0	502	510	0	0	
6	0	0	0	0	505	509	0	0	
7	0	0	0	0	504	509	0	0	
8	0	0	0	0	510	509	0	0	
9	0	0	0	0	512	509	0	0	
10	0	0	0	0	512	512	0	0	
11	0	0	0	0	510	512	0	0	
12	0	0	0	0	510	511	0	0	
13	0	0	0	0	511	509	0	0	
14	0	0	0	0	511	513	0	0	
15	0	0	0	0	509	511	0	0	
0	0	0	0	0	509	512	0	0	
1	0	0	0	0	507	512	0	0	
2	0	0	0	0	509	512	0	0	
3	0	0	0	0	516	511	0	0	
4	0	0	0	0	510	511	0	0	
5	0	0	0	0	505	511	0	0	
6	0	0	0	0	503	511	0	0	
7	0	0	0	0	501	508	0	0	
8	0	0	0	0	504	510	0	0	
9	0	0	0	0	508	510	0	0	
10	0	0	0	0	513	510	0	0	
11	0	0	0	0	516	509	0	0	
12	0	0	0	0	507	510	0	0	
13	0	0	0	0	506	509	0	0	
14	0	0	0	0	508	512	0	0	
15	0	0	0	0	511	510	0	0	
0	0	0	0	0	509	510	0	0	
1	0	0	0	0	510	512	0	0	
2	0	0	0	0	509	511	0	0	
3	0	0	0	0	510	514	0	0	
4	0	0	0	0	510	511	0	0	
5	0	0	0	0	512	511	0	0	
6	0	0	0	0	509	511	0	0	
7	0	0	0	0	508	513	0	0	
8	0	0	0	0	508	509	0	0	
9	0	0	0	0	508	508	0	0	
10	0	0	0	0	506	509	0	0	
11	0	0	0	0	505	509	0	0	
12	0	0	0	0	504	509	0	0	
13	0	0	0	0	505	508	0	0	
14	0	0	0	0	508	508	0	0	
15	0	0	0	0	506	508	0	0	
0	0	0	0	0	505	511	0	0	
1	0	0	0	0	508	509	0	0	
2	0	0	0	0	509	511	0	0	
3	0	0	0	0	509	510	0	0	
4	0	0	0	0	511	510	0	0	
5	0	0	0	0	512	512	0	0	
6	0	0	0	0	514	511	0	0	
7	0	0	0	0	512	514	0	0	
8	0	0	0	0	511	512	0	0	
9	0	0	0	0	510	514	0	0	
10	0	0	0	0	511	511	0	0	
11	0	0	0	0	510	512	0	0	
12	0	0	0	0	508	510	0	0	
13	0	0	0	0	508	510	0	0	
14	0	0	0	0	508	511	0	0	
15	0	0	0	0	504	511	0	0	
0	0	0	0	0	502	510	0	0	
1	0	0	0	0	504	507	0	0	
2	0	0	0	0	504	509	0	0	
3	0	0	0	0	503	511	0	0	
4	0	0	0	0	503	511	0	0	
5	0	0	0	0	505	509	0	0	
6	0	0	0	0	510	511	0	0	
7	0	0	0	0	514	512	0	0	
8	0	0	0	0	512	511	0	0	
9	0	0	0	0	514	510	0	0	
10	0	0	0	0	515	511	0	0	
11	0	0	0	0	514	510	0	0	
12	0	0	0	0	514	511	0	0	
13	0	0	0	0	510	510	0	0	
14	0	0	0	0	508	510	0	0	
15	0	0	0	0	505	513	0	0	
0	0	0	0	0	503	511	0	0	
1	0	0	0	0	507	511	0	0	
2	0	0	0	0	508	511	0	0	
3	0	0	0	0	505	511	0	0	
4	0	0	0	0	505	510	0	0	
5	0	0	0	0	506	508	0	0	
6	0	0	0	0	508	508	0	0	
7	0	0	0	0	505	509	0	0	
8	0	0	0	0	504	511	0	0	
9	0	0	0	0	507	510	0	0	
10	0	0	0	0	510	510	0	0	
11	0	0	0	0	508	510	0	0	
12	0	0	0	0	504	511	0	0	
13	0	0	0	0	510	511	0	0	
14	0	0	0	0	515	510	0	0	
15	0	0	0	0	522	513	0	0	
0	0	0	0	0	520	511	0	0	
1	0	0	0	0	515	513	0	0	
2	0	0	0	0	519	511	0	0	
3	0	0	0	0	507	511	0	0	
4	0	0	0	0	504	510	0	0	
5	0	0	0	0	503	511	0	0	
6	0	0	0	0	504	509	0	0	
7	0	0	0	0	503	509	0	0	
8	0	0	0	0	502	508	0	0	
9	0	0	0	0	504	510	0	0	
10	0	0	0	0	503	508	0	0	
11	0	0	0	0	505	509	0	0	
12	0	0	0	0	508	510	0	0	
13	0	0	0	0	504	512	0	0	
14	0	0	0	0	509	512	0	0	
15	0	0	0	0	512	511	0	0	
0	0	0	0	0	511	508	0	0	
1	0	0	0	0	510	512	0	0	
2	0	0	0	0	517	511	0	0	
3	0	0	0	0	517	511	0	0	
4	0	0	0	0	512	510	0	0	
5	0	0	0	0	511	511	0	0	
6	0	0	0	0	508	510	0	0	
7	0	0	0	0	509	511	0	0	
8	0	0	0	0	506	509	0	0	
9	0	0	0	0	505	510	0	0	
10	0	0	0	0	505	511	0	0	
11	0	0	0	0	505	513	0	0	
12	0	0	0	0	504	511	0	0	
13	0	0	0	0	505	509	0	0	
14	0	0	0	0	507	508	0	0	
15	0	0	0	0	503	508	0	0	
0	0	0	0	0	506	509	0	0	
1	0	0	0	0	508	509	0	0	
2	0	0	0	0	512	511	0	0	
3	0	0	0	0	511	511	0	0	
4	0	0	0	0	512	510	0	0	
5	0	0	0	0	511	511	0	0	
6	0	0	0	0	511	512	0	0	
7	0	0	0	0	511	513	0	0	
8	0	0	0	0	510	510	0	0	
9	0	0	0	0	512	511	0	0	
10	0	0	0	0	508	514	0	0	
11	0	0	0	0	508	510	0	0	
12	0	0	0	0	508	508	0	0	
13	0	0	0	0	507	508	0	0	
14	0	0	0	0	505	511	0	0	
15	0	0	0	0	506	510	0	0	
0	0	0	0	0	504	510	0	0	
1	0	0	0	0	504	509	0	0	
2	0	0	0	0	507	510	0	0	
3	0	0	0	0	508	508	0	0	
4	0	0	0	0	505	509	0	0	
5	0	0	0	0	508	508	0	0	
6	0	0	0	0	509	509	0	0	
7	0	0	0	0	512	512	0	0	
8	0	0	0	0	506	511	0	0	
9	0	0	0	0	512	513	0	0	
10	0	0	0	0	518	512	0	0	
11	0	0	0	0	518	511	0	0	
12	0	0	0	0	513	514	0	0	
13	0	0	0	0	512	512	0	0	
14	0	0	0	0	505	511	0	0	
15	0	0	0	0	505	510	0	0	
0	0	0	0	0	506	510	0	0	
1	0	0	0	0	505	510	0	0	
2	0	0	0	0	503	509	0	0	
3	0	0	0	0	505	511	0	0	
4	0	0	0	0	507	511	0	0	
5	0	0	0	0	515	511	0	0	
6	0	0	0	0	506	509	0	0	
7	0	0	0	0	504	510	0	0	
8	0	0	0	0	505	510	0	0	
9	0	0	0	0	507	508	0	0	
10	0	0	0	0	506	512	0	0	
11	0	0	0	0	508	514	0	0	
12	0	0	0	0	512	514	0	0	
13	0	0	0	0	512	511	0	0	
14	0	0	0	0	513	512	0	0	
15	0	0	0	0	510	511	0	0	
0	0	0	0	0	510	512	0	0	
1	0	0	0	0	510	511	0	0	
2	0	0	0	0	509	508	0	0	
3	0	0	0	0	511	511	0	0	
4	0	0	0	0	511	507	0	0	
5	0	0	0	0	509	508	0	0	
6	0	0	0	0	505	509	0	0	
7	0	0	0	0	502	510	0	0	
8	0	0	0	0	503	509	0	0	
9	0	0	0	0	505	510	0	0	
10	0	0	0	0	505	510	0	0	
11	0	0	0	0	505	509	0	0	
12	0	0	0	0	505	511	0	0	
13	0	0	0	0	508	509	0	0	
14	0	0	0	0	511	512	0	0	
15	0	0	0	0	514	512	0	0	
0	0	0	0	0	512	509	0	0	
1	0	0	0	0	512	511	0	0	
2	0	0	0	0	515	508	0	0	
3	0	0	0	0	516	511	0	0	
4	0	0	0	0	515	511	0	0	
5	0	0	0	0	510	512	0	0	
6	0	0	0	0	510	512	0	0	
7	0	0	0	0	504	511	0	0	
8	0	0	0	0	505	512	0	0	
9	0	0	0	0	505	511	0	0	
10	0	0	0	0	508	511	0	0	
11	0	0	0	0	504	508	0	0	
12	0	0	0	0	503	509	0	0	
13	0	0	0	0	504	510	0	0	
14	0	0	0	0	502	508	0	0	
15	0	0	0	0	505	511	0	0	
0	0	0	0	0	508	511	0	0	
1	0	0	0	0	509	511	0	0	
2	0	0	0	0	510	510	0	0	
3	0	0	0	0	515	510	0	0	
4	0	0	0	0	519	509	0	0	
5	0	0	0	0	510	510	0	0	
6	0	0	0	0	511	512	0	0	
7	0	0	0	0	510	513	0	0	
8	0	0	0	0	512	508	0	0	
9	0	0	0	0	510	513	0	0	
10	0	0	0	0	508	511	0	0	
11	0	0	0	0	506	513	0	0	
12	0	0	0	0	506	510	0	0	
13	0	0	0	0	505	510	0	0	
14	0	0	0	0	505	508	0	0	
15	0	0	0	0	509	508	0	0	
0	0	0	0	0	508	510	0	0	
1	0	0	0	0	508	511	0	0	
2	0	0	0	0	505	510	0	0	
3	0	0	0	0	508	511	0	0	
4	0	0	0	0	508	508	0	0	
5	0	0	0	0	508	507	0	0	
6	0	0	0	0	510	510	0	0	
7	0	0	0	0	511	508	0	0	
8	0	0	0	0	511	513	0	0	
9	0	0	0	0	513	512	0	0	
10	0	0	0	0	512	513	0	0	
11	0	0	0	0	511	511	0	0	
12	0	0	0	0	509	512	0	0	
13	0	0	0	0	506	512	0	0	
14	0	0	0	0	507	511	0	0	
15	0	0	0	0	509	510	0	0	
0	0	0	0	0	510	508	0	0	
1	0	0	0	0	505	512	0	0	
2	0	0	0	0	508	510	0	0	
3	0	0	0	0	505	510	0	0	
4	0	0	0	0	504	509	0	0	
5	0	0	0	0	505	510	0	0	
6	0	0	0	0	507	508	0	0	
7	0	0	0	0	514	511	0	0	
8	0	0	0	0	511	511	0	0	
9	0	0	0	0	506	512	0	0	
10	0	0	0	0	505	509	0	0	
11	0	0	0	0	510	510	0	0	
12	0	0	0	0	510	511	0	0	
13	0	0	0	0	511	508	0	0	
14	0	0	0	0	513	513	0	0	
15	0	0	0	0	512	512	0	0	
0	0	0	0	0	511	512	0	0	
1	0	0	0	0	512	511	0	0	
2	0	0	0	0	510	510	0	0	
3	0	0	0	0	508	508	0	0	
4	0	0	0	0	504	509	0	0	
5	0	0	0	0	506	510	0	0	
6	0	0	0	0	503	512	0	0	
7	0	0	0	0	504	511	0	0	
8	0	0	0	0	505	512	0	0	
9	0	0	0	0	507	510	0	0	
10	0	0	0	0	506	511	0	0	
11	0	0	0	0	507	510	0	0	
12	0	0	0	0	507	509	0	0	
13	0	0	0	0	508	508	0	0	
14	0	0	0	0	509	509	0	0	
15	0	0	0	0	511	510	0	0	
0	0	0	0	0	512	510	0	0	
1	0	0	0	0	511	510	0	0	
2	0	0	0	0	511	512	0	0	
3	0	0	0	0	511	512	0	0	
4	0	0	0	0	511	512	0	0	
5	0	0	0	0	512	509	0	0	
6	0	0	0	0	519	512	0	0	
7	0	0	0	0	510	513	0	0	
8	0	0	0	0	502	512	0	0	
9	0	0	0	0	505	512	0	0	
10	0	0	0	0	504	509	0	0	
11	0	0	0	0	503	510	0	0	
12	0	0	0	0	505	508	0	0	
13	0	0	0	0	504	508	0	0	
14	0	0	0	0	507	507	0	0	
15	0	0	0	0	506	509	0	0	
0	0	0	0	0	506	508	0	0	
1	0	0	0	0	508	512	0	0	
2	0	0	0	0	510	511	0	0	
3	0	0	0	0	513	511	0	0	
4	0	0	0	0	511	510	0	0	
5	0	0	0	0	511	511	0	0	
6	0	0	0	0	511	509	0	0	
7	0	0	0	0	512	512	0	0	
8	0	0	0	0	510	511	0	0	
9	0	0	0	0	512	511	0	0	
10	0	0	0	0	510	509	0	0	
11	0	0	0	0	510	510	0	0	
12	0	0	0	0	508	512	0	0	
13	0	0	0	0	507	510	0	0	
14	0	0	0	0	506	511	0	0	
15	0	0	0	0	505	508	0	0	
0	0	0	0	0	506	510	0	0	
1	0	0	0	0	509	509	0	0	
2	0	0	0	0	503	509	0	0	
3	0	0	0	0	502	508	0	0	
4	0	0	0	0	505	509	0	0	
5	0	0	0	0	507	510	0	0	
6	0	0	0	0	506	510	0	0	
7	0	0	0	0	511	511	0	0	
8	0	0	0	0	515	513	0	0	
9	0	0	0	0	513	512	0	0	
10	0	0	0	0	512	510	0	0	
11	0	0	0	0	509	512	0	0	
12	0	0	0	0	511	509	0	0	
13	0	0	0	0	512	512	0	0	
14	0	0	0	0	505	512	0	0	
15	0	0	0	0	506	511	0	0	
0	0	0	0	0	509	512	0	0	
1	0	0	0	0	510	510	0	0	
2	0	0	0	0	506	510	0	0	
3	0	0	0	0	508	508	0	0	
4	0	0	0	0	509	510	0	0	
5	0	0	0	0	515	511	0	0	
6	0	0	0	0	507	510	0	0	
7	0	0	0	0	504	512	0	0	
8	0	0	0	0	503	510	0	0	
9	0	0	0	0	507	508	0	0	
10	0	0	0	0	508	512	0	0	
11	0	0	0	0	508	511	0	0	
12	0	0	0	0	508	510	0	0	
13	0	0	0	0	510	513	0	0	
14	0	0	0	0	512	510	0	0	
15	0	0	0	0	514	509	0	0	
0	0	0	0	0	511	509	0	0	
1	0	0	0	0	509	511	0	0	
2	0	0	0	0	511	511	0	0	
3	0	0	0	0	509	511	0	0	
4	0	0	0	0	507	511	0	0	
5	0	0	0	0	504	511	0	0	
6	0	0	0	0	506	510	0	0	
7	0	0	0	0	504	509	0	0	
8	0	0	0	0	504	510	0	0	
9	0	0	0	0	504	511	0	0	
10	0	0	0	0	505	508	0	0	
11	0	0	0	0	506	512	0	0	
12	0	0	0	0	508	510	0	0	
13	0	0	0	0	510	509	0	0	
14	0	0	0	0	507	511	0	0	
15	0	0	0	0	511	511	0	0	
0	0	0	0	0	511	513	0	0	
1	0	0	0	0	512	511	0	0	
2	0	0	0	0	513	512	0	0	
3	0	0	0	0	511	512	0	0	
4	0	0	0	0	512	511	0	0	
5	0	0	0	0	512	510	0	0	
6	0	0	0	0	511	511	0	0	
7	0	0	0	0	511	511	0	0	
8	0	0	0	0	509	510	0	0	
9	0	0	0	0	505	506	0	0	
10	0	0	0	0	506	508	0	0	
11	0	0	0	0	500	509	0	0	
12	0	0	0	0	503	508	0	0	
13	0	0	0	0	504	510	0	0	
14	0	0	0	0	506	510	0	0	
15	0	0	0	0	506	510	0	0	
0	0	0	0	0	507	510	0	0	
1	0	0	0	0	509	510	0	0	
2	0	0	0	0	512	510	0	0	
3	0	0	0	0	513	511	0	0	
4	0	0	0	0	511	510	0	0	
5	0	0	0	0	515	512	0	0	
6	0	0	0	0	512	512	0	0	
7	0	0	0	0	508	514	0	0	
8	0	0	0	0	510	513	0	0	
9	0	0	0	0	511	511	0	0	
10	0	0	0	0	509	512	0	0	
11	0	0	0	0	504	510	0	0	
12	0	0	0	0	505	510	0	0	
13	0	0	0	0	508	510	0	0	
14	0	0	0	0	505	508	0	0	
15	0	0	0	0	508	509	0	0	
0	0	0	0	0	508	508	0	0	
1	0	0	0	0	504	510	0	0	
2	0	0	0	0	503	510	0	0	
3	0	0	0	0	504	508	0	0	
4	0	0	0	0	505	511	0	0	
5	0	0	0	0	512	511	0	0	
6	0	0	0	0	508	513	0	0	
7	0	0	0	0	506	509	0	0	
8	0	0	0	0	507	510	0	0	
9	0	0	0	0	513	511	0	0	
10	0	0	0	0	517	511	0	0	
11	0	0	0	0	527	512	0	0	
12	0	0	0	0	519	513	0	0	
13	0	0	0	0	515	512	0	0	
14	0	0	0	0	511	512	0	0	
15	0	0	0	0	505	511	0	0	
0	0	0	0	0	503	508	0	0	
1	0	0	0	0	502	509	0	0	
2	0	0	0	0	501	513	0	0	
3	0	0	0	0	501	511	0	0	
4	0	0	0	0	500	509	0	0	
5	0	0	0	0	503	512	0	0	
6	0	0	0	0	505	509	0	0	
7	0	0	0	0	508	511	0	0	
8	0	0	0	0	508	509	0	0	
9	0	0	0	0	508	510	0	0	
10	0	0	0	0	508	513	0	0	
11	0	0	0	0	511	509	0	0	
12	0	0	0	0	512	512	0	0	
13	0	0	0	0	512	510	0	0	
14	0	0	0	0	512	511	0	0	
15	0	0	0	0	512	510	0	0	
0	0	0	0	0	512	512	0	0	
1	0	0	0	0	512	511	0	0	
2	0	0	0	0	511	510	0	0	
3	0	0	0	0	510	511	0	0	
4	0	0	0	0	509	510	0	0	
5	0	0	0	0	504	512	0	0	
6	0	0	0	0	506	509	0	0	
7	0	0	0	0	505	510	0	0	
8	0	0	0	0	503	512	0	0	
9	0	0	0	0	505	511	0	0	
10	0	0	0	0	507	509	0	0	
11	0	0	0	0	506	506	0	0	
12	0	0	0	0	507	508	0	0	
13	0	0	0	0	507	509	0	0	
14	0	0	0	0	511	513	0	0	
15	0	0	0	0	510	509	0	0	
0	0	0	0	0	513	512	0	0	
1	0	0	0	0	515	514	0	0	
2	0	0	0	0	512	510	0	0	
3	0	0	0	0	513	512	0	0	
4	0	0	0	0	510	513	0	0	
5	0	0	0	0	509	511	0	0	
6	0	0	0	0	510	510	0	0	
7	0	0	0	0	509	510	0	0	
8	0	0	0	0	506	510	0	0	
9	0	0	0	0	504	508	0	0	
10	0	0	0	0	505	509	0	0	
11	0	0	0	0	507	509	0	0	
12	0	0	0	0	505	509	0	0	
13	0	0	0	0	505	509	0	0	
14	0	0	0	0	505	510	0	0	
15	0	0	0	0	507	511	0	0	
0	0	0	0	0	505	511	0	0	
1	0	0	0	0	509	511	0	0	
2	0	0	0	0	511	508	0	0	
3	0	0	0	0	504	509	0	0	
4	0	0	0	0	511	510	0	0	
5	0	0	0	0	515	510	0	0	
6	0	0	0	0	515	512	0	0	
7	0	0	0	0	511	510	0	0	
8	0	0	0	0	510	511	0	0	
9	0	0	0	0	512	512	0	0	
10	0	0	0	0	512	510	0	0	
11	0	0	0	0	511	512	0	0	
12	0	0	0	0	510	512	0	0	
13	0	0	0	0	506	509	0	0	
14	0	0	0	0	503	508	0	0	
15	0	0	0	0	505	508	0	0	
0	0	0	0	0	504	510	0	0	
1	0	0	0	0	503	509	0	0	
2	0	0	0	0	504	508	0	0	
3	0	0	0	0	505	509	0	0	
4	0	0	0	0	508	508	0	0	
5	0	0	0	0	505	510	0	0	
6	0	0	0	0	505	511	0	0	
7	0	0	0	0	510	514	0	0	
8	0	0	0	0	509	512	0	0	
9	0	0	0	0	513	510	0	0	
10	0	0	0	0	512	508	0	0	
11	0	0	0	0	516	511	0	0	
12	0	0	0	0	519	510	0	0	
13	0	0	0	0	523	513	0	0	
14	0	0	0	0	511	512	0	0	
15	0	0	0	0	507	510	0	0	
0	0	0	0	0	504	511	0	0	
1	0	0	0	0	503	511	0	0	
2	0	0	0	0	502	512	0	0	
3	0	0	0	0	500	508	0	0	
4	0	0	0	0	509	511	0	0	
5	0	0	0	0	514	510	0	0	
6	0	0	0	0	507	509	0	0	
7	0	0	0	0	502	509	0	0	
8	0	0	0	0	505	510	0	0	
9	0	0	0	0	510	510	0	0	
10	0	0	0	0	510	511	0	0	
11	0	0	0	0	507	510	0	0	
12	0	0	0	0	508	512	0	0	
13	0	0	0	0	508	510	0	0	
14	0	0	0	0	507	509	0	0	
15	0	0	0	0	516	510	0	0	
0	0	0	0	0	510	513	0	0	
1	0	0	0	0	511	513	0	0	
2	0	0	0	0	511	509	0	0	
3	0	0	0	0	505	511	0	0	
4	0	0	0	0	510	509	0	0	
5	0	0	0	0	506	511	0	0	
6	0	0	0	0	506	509	0	0	
7	0	0	0	0	507	510	0	0	
8	0	0	0	0	504	510	0	0	
9	0	0	0	0	508	509	0	0	
10	0	0	0	0	509	510	0	0	
11	0	0	0	0	507	509	0	0	
12	0	0	0	0	508	511	0	0	
13	0	0	0	0	508	511	0	0	
14	0	0	0	0	510	510	0	0	
15	0	0	0	0	510	511	0	0	
0	0	0	0	0	511	512	0	0	
1	0	0	0	0	514	513	0	0	
2	0	0	0	0	514	511	0	0	
3	0	0	0	0	512	513	0	0	
4	0	0	0	0	512	513	0	0	
5	0	0	0	0	509	515	0	0	
6	0	0	0	0	509	512	0	0	
7	0	0	0	0	507	511	0	0	
8	0	0	0	0	510	512	0	0	
9	0	0	0	0	510	508	0	0	
10	0	0	0	0	509	509	0	0	
11	0	0	0	0	510	511	0	0	
12	0	0	0	0	510	511	0	0	
13	0	0	0	0	507	510	0	0	
14	0	0	0	0	511	510	0	0	
15	0	0	0	0	509	509	0	0	
0	0	0	0	0	501	510	0	0	
1	0	0	0	0	496	510	0	0	
2	0	0	0	0	495	509	0	0	
3	0	0	0	0	497	507	0	0	
4	0	0	0	0	495	508	0	0	
5	0	0	0	0	508	511	0	0	
6	0	0	0	0	518	512	0	0	
7	0	0	0	0	517	513	0	0	
8	0	0	0	0	515	512	0	0	
9	0	0	0	0	514	514	0	0	
10	0	0	0	0	521	513	0	0	
11	0	0	0	0	512	511	0	0	
12	0	0	0	0	513	511	0	0	
13	0	0	0	0	516	511	0	0	
14	0	0	0	0	513	509	0	0	
15	0	0	0	0	512	508	0	0	
0	0	0	0	0	514	509	0	0	
1	0	0	0	0	500	508	0	0	
2	0	0	0	0	494	508	0	0	
3	0	0	0	0	493	508	0	0	
4	0	0	0	0	491	510	0	0	
5	0	0	0	0	502	510	0	0	
6	0	0	0	0	510	513	0	0	
7	0	0	0	0	513	512	0	0	
8	0	0	0	0	519	508	0	0	
9	0	0	0	0	515	509	0	0	
10	0	0	0	0	517	513	0	0	
11	0	0	0	0	519	512	0	0	
12	0	0	0	0	521	513	0	0	
13	0	0	0	0	515	512	0	0	
14	0	0	0	0	511	508	0	0	
15	0	0	0	0	510	508	0	0	
0	0	0	0	0	505	511	0	0	
1	0	0	0	0	484	507	0	0	
2	0	0	0	0	503	511	0	0	
3	0	0	0	0	503	511	0	0	
4	0	0	0	0	497	509	0	0	
5	0	0	0	0	497	507	0	0	
6	0	0	0	0	508	508	0	0	
7	0	0	0	0	506	511	0	0	
8	0	0	0	0	505	510	0	0	
9	0	0	0	0	510	511	0	0	
10	0	0	0	0	520	510	0	0	
11	0	0	0	0	519	512	0	0	
12	0	0	0	0	513	513	0	0	
13	0	0	0	0	508	511	0	0	
14	0	0	0	0	508	511	0	0	
15	0	0	0	0	511	513	0	0	
0	0	0	0	0	512	513	0	0	
1	0	0	0	0	507	513	0	0	
2	0	0	0	0	510	511	0	0	
3	0	0	0	0	517	509	0	0	
4	0	0	0	0	519	508	0	0	
5	0	0	0	0	515	506	0	0	
6	0	0	0	0	512	509	0	0	
7	0	0	0	0	508	508	0	0	
8	0	0	0	0	503	510	0	0	
9	0	0	0	0	502	511	0	0	
10	0	0	0	0	503	511	0	0	
11	0	0	0	0	504	512	0	0	
12	0	0	0	0	510	512	0	0	
13	0	0	0	0	503	512	0	0	
14	0	0	0	0	513	515	0	0	
15	0	0	0	0	508	511	0	0	
0	0	0	0	0	505	510	0	0	
1	0	0	0	0	500	507	0	0	
2	0	0	0	0	504	508	0	0	
3	0	0	0	0	503	514	0	0	
4	0	0	0	0	510	521	0	0	
5	0	0	0	0	530	519	0	0	
6	0	0	0	0	519	507	0	0	
7	0	0	0	0	507	501	0	0	
8	0	0	0	0	516	503	0	0	
9	0	0	0	0	518	509	0	0	
10	0	0	0	0	518	513	0	0	
11	0	0	0	0	508	510	0	0	
12	0	0	0	0	504	504	0	0	
13	0	0	0	0	493	503	0	0	
14	0	0	0	0	505	501	0	0	
15	0	0	0	0	481	505	0	0	
0	0	0	0	0	486	514	0	0	
1	0	0	0	0	498	519	1	0	
2	0	0	0	0	482	517	1	0	
3	0	0	0	0	485	512	5	0	
4	0	0	0	0	510	512	8	0	
5	0	0	0	0	531	515	11	0	
6	0	0	0	0	528	518	16	0	
7	0	0	0	0	534	512	25	0	
8	0	0	0	0	535	504	34	0	
9	0	0	0	0	531	510	34	0	
10	0	0	0	0	523	508	35	0	
11	0	0	0	0	500	501	25	0	
12	0	0	0	0	496	507	37	0	
13	0	0	0	0	509	516	43	0	
14	0	0	0	0	515	524	45	0	
15	0	0	0	0	519	516	43	0	
0	0	0	0	0	539	504	44	0	
1	0	0	0	0	529	500	47	0	
2	0	0	0	0	487	500	47	0	
3	0	0	0	0	446	494	48	0	
4	0	0	0	0	453	499	49	0	
5	0	0	0	0	519	514	50	0	
6	0	0	0	0	545	518	47	0	
7	0	0	0	0	531	524	51	0	
8	0	0	0	0	503	517	53	0	
9	0	0	0	0	491	516	51	0	
10	0	0	0	0	499	521	52	0	
11	0	0	0	0	488	516	52	0	
12	0	0	0	0	502	512	53	0	
13	0	0	0	0	537	514	54	0	
14	0	0	0	0	534	523	55	0	
15	0	0	0	0	513	512	58	0	
0	0	0	0	0	499	497	58	0	
1	0	0	0	0	480	497	60	0	
2	0	0	0	0	485	506	59	0	
3	0	0	0	0	503	513	59	0	
4	0	0	0	0	528	520	58	0	
5	0	0	0	0	511	507	60	0	
6	0	0	0	0	492	496	59	0	
7	0	0	0	0	537	510	58	0	
8	0	0	0	0	511	524	59	0	
9	0	0	0	0	497	515	61	0	
10	0	0	0	0	530	523	62	0	
11	0	0	0	0	545	526	65	0	
12	0	0	0	0	507	511	66	0	
13	0	0	0	0	487	488	76	0	
14	0	0	0	0	501	485	79	0	
15	0	0	0	0	529	486	84	0	
0	0	0	0	0	511	493	87	0	
1	0	0	0	0	494	515	92	0	
2	0	0	0	0	492	530	96	0	
3	0	0	0	0	473	520	99	0	
4	0	0	0	0	507	523	99	0	
5	0	0	0	0	575	529	103	0	
6	0	0	0	0	566	520	107	0	
7	0	0	0	0	489	505	110	0	
8	0	0	0	0	458	502	112	0	
9	0	0	0	0	455	500	113	0	
10	0	0	0	0	506	504	114	0	
11	0	0	0	0	517	505	116	0	
12	0	0	0	0	497	504	117	0	
13	0	0	0	0	521	497	119	0	
14	0	0	0	0	522	480	123	0	
15	0	0	0	0	511	487	122	0	
0	0	0	0	0	512	520	126	0	
1	0	0	0	0	516	540	130	0	
2	0	0	0	0	481	531	133	0	
3	0	0	0	0	492	519	133	0	
4	0	0	0	0	517	507	133	0	
5	0	0	0	0	541	512	135	0	
6	0	0	0	0	538	523	139	0	
7	0	0	0	0	549	532	140	0	
8	0	0	0	0	534	522	139	0	
9	0	0	0	0	499	523	142	0	
10	0	0	0	0	483	544	145	0	
11	0	0	0	0	473	535	148	0	
12	0	0	0	0	486	509	147	0	
13	0	0	0	0	499	501	148	0	
14	0	0	0	0	501	501	149	0	
15	0	0	0	0	468	498	152	0	
0	0	0	0	0	485	496	154	0	
1	0	0	0	0	540	499	156	0	
2	0	0	0	0	573	486	159	0	
3	0	0	0	0	504	456	160	0	
4	0	0	0	0	466	472	159	0	
5	0	0	0	0	471	520	161	0	
6	0	0	0	0	468	540	164	0	
7	0	0	0	0	560	546	168	0	
8	0	0	0	0	551	505	168	0	
9	0	0	0	0	534	494	171	0	
10	0	0	0	0	590	496	174	0	
11	0	0	0	0	552	486	172	0	
12	0	0	0	0	496	501	174	0	
13	0	0	0	0	523	516	174	0	
14	0	0	0	0	504	531	175	0	
15	0	0	0	0	459	550	177	0	
0	0	0	0	0	431	528	181	0	
1	0	0	0	0	450	503	183	0	
2	0	0	0	0	485	474	184	0	
3	0	0	0	0	522	506	184	0	
4	0	0	0	0	557	526	186	0	
5	0	0	0	0	566	504	187	0	
6	0	0	0	0	517	499	190	0	
7	0	0	0	0	489	494	196	0	
8	0	0	0	0	465	498	196	0	
9	0	0	0	0	449	501	195	0	
10	0	0	0	0	519	539	196	0	
11	0	0	0	0	543	552	196	0	
12	0	0	0	0	529	534	207	0	
13	0	0	0	0	542	523	207	0	
14	0	0	0	0	547	529	209	0	
15	0	0	0	0	517	521	216	0	
0	0	0	0	0	479	524	215	0	
1	0	0	0	0	475	515	215	0	
2	0	0	0	0	474	485	217	0	
3	0	0	0	0	499	492	231	0	
4	0	0	0	0	519	514	230	0	
5	0	0	0	0	535	518	231	0	
6	0	0	0	0	529	511	239	0	
7	0	0	0	0	472	477	243	0	
8	0	0	0	0	439	499	246	0	
9	0	0	0	0	487	539	245	0	
10	0	0	0	0	555	529	252	0	
11	0	0	0	0	529	505	257	0	
12	0	0	0	0	515	489	260	0	
13	0	0	0	0	524	494	261	0	
14	0	0	0	0	525	487	259	0	
15	0	0	0	0	561	497	264	0	
0	0	0	0	0	574	480	266	0	
1	0	0	0	0	520	487	270	0	
2	0	0	0	0	454	524	270	0	
3	0	0	0	0	427	549	276	0	
4	0	0	0	0	477	560	272	0	
5	0	0	0	0	512	563	279	0	
6	0	0	0	0	543	554	281	0	
7	0	0	0	0	511	499	304	0	
8	0	0	0	0	478	483	313	0	
9	0	0	0	0	482	466	315	0	
10	0	0	0	0	493	483	319	0	
11	0	0	0	0	521	494	319	0	
12	0	0	0	0	516	498	321	0	
13	0	0	0	0	535	513	326	0	
14	0	0	0	0	553	527	330	0	
15	0	0	0	0	539	519	331	0	
0	0	0	0	0	522	528	330	0	
1	0	0	0	0	499	512	339	0	
2	0	0	0	0	494	511	340	0	
3	0	0	0	0	487	520	342	0	
4	0	0	0	0	461	509	345	0	
5	0	0	0	0	476	508	345	0	
6	0	0	0	0	536	523	349	0	
7	0	0	0	0	515	506	351	0	
8	0	0	0	0	527	468	354	0	
9	0	0	0	0	535	496	354	0	
10	0	0	0	0	531	521	360	0	
11	0	0	0	0	505	517	363	0	
12	0	0	0	0	520	513	366	0	
13	0	0	0	0	485	504	368	0	
14	0	0	0	0	547	522	368	0	
15	0	0	0	0	558	539	372	0	
0	0	0	0	0	489	530	377	0	
1	0	0	0	0	441	526	379	0	
2	0	0	0	0	504	530	379	0	
3	0	0	0	0	537	520	379	0	
4	0	0	0	0	530	506	383	0	
5	0	0	0	0	556	493	383	0	
6	0	0	0	0	496	445	387	0	
7	0	0	0	0	496	497	388	0	
8	0	0	0	0	398	486	391	0	
9	0	0	0	0	419	483	391	0	
10	0	0	0	0	492	493	391	0	
11	0	0	0	0	509	497	391	0	
12	0	0	0	0	526	520	393	0	
13	0	0	0	0	513	521	394	0	
14	0	0	0	0	537	527	393	0	
15	0	0	0	0	567	540	398	0	
0	0	0	0	0	556	534	401	0	
1	0	0	0	0	544	522	401	0	
2	0	0	0	0	511	507	402	0	
3	0	0	0	0	511	502	403	0	
4	0	0	0	0	508	515	401	0	
5	0	0	0	0	474	519	403	0	
6	0	0	0	0	445	519	404	0	
7	0	0	0	0	476	528	405	0	
8	0	0	0	0	524	508	405	0	
9	0	0	0	0	533	482	406	0	
10	0	0	0	0	526	493	409	0	
11	0	0	0	0	504	524	413	0	
12	0	0	0	0	481	525	413	0	
13	0	0	0	0	497	527	416	0	
14	0	0	0	0	517	529	419	0	
15	0	0	0	0	508	504	423	0	
0	0	0	0	0	541	517	424	0	
1	0	0	0	0	551	506	426	0	
2	0	0	0	0	503	480	430	0	
3	0	0	0	0	483	487	431	0	
4	0	0	0	0	493	499	432	0	
5	0	0	0	0	526	501	432	0	
6	0	0	0	0	550	499	432	0	
7	0	0	0	0	546	527	434	0	
8	0	0	0	0	540	552	434	0	
9	0	0	0	0	518	563	432	0	
10	0	0	0	0	520	549	432	0	
11	0	0	0	0	489	511	432	0	
12	0	0	0	0	431	472	432	0	
13	0	0	0	0	379	454	434	0	
14	0	0	0	0	454	500	436	0	
15	0	0	0	0	551	517	436	0	
0	0	0	0	0	548	504	435	0	
1	0	0	0	0	519	513	432	0	
2	0	0	0	0	492	507	435	0	
3	0	0	0	0	508	523	437	0	
4	0	0	0	0	539	518	440	0	
5	0	0	0	0	534	507	441	0	
6	0	0	0	0	516	492	440	0	
7	0	0	0	0	513	511	441	0	
8	0	0	0	0	529	508	439	0	
9	0	0	0	0	507	501	442	0	
10	0	0	0	0	499	515	446	0	
11	0	0	0	0	505	511	443	0	
12	0	0	0	0	489	488	439	0	
13	0	0	0	0	494	503	440	0	
14	0	0	0	0	501	529	445	0	
15	0	0	0	0	496	525	441	0	
0	0	0	0	0	459	512	444	0	
1	0	0	0	0	521	508	443	0	
2	0	0	0	0	559	487	444	0	
3	0	0	0	0	504	491	443	0	
4	0	0	0	0	462	476	445	0	
5	0	0	0	0	454	529	444	0	
6	0	0	0	0	520	552	445	0	
7	0	0	0	0	570	550	445	0	
8	0	0	0	0	547	516	445	0	
9	0	0	0	0	530	497	449	0	
10	0	0	0	0	505	510	447	0	
11	0	0	0	0	559	519	448	0	
12	0	0	0	0	600	523	448	0	
13	0	0	0	0	574	535	447	0	
14	0	0	0	0	519	531	450	0	
15	0	0	0	0	475	513	450	0	
0	0	0	0	0	478	523	448	0	
1	0	0	0	0	469	519	451	0	
2	0	0	0	0	446	482	451	0	
3	0	0	0	0	467	441	450	0	
4	0	0	0	0	489	468	452	0	
5	0	0	0	0	471	510	452	0	
6	0	0	0	0	511	523	453	0	
7	0	0	0	0	532	539	454	0	
8	0	0	0	0	563	516	456	0	
9	0	0	0	0	525	495	457	0	
10	0	0	0	0	480	512	454	0	
11	0	0	0	0	483	539	455	0	
12	0	0	0	0	530	548	455	0	
13	0	0	0	0	523	519	454	0	
14	0	0	0	0	530	495	455	0	
15	0	0	0	0	506	475	455	0	
0	0	0	0	0	467	467	455	0	
1	0	0	0	0	458	483	457	0	
2	0	0	0	0	474	502	457	0	
3	0	0	0	0	483	521	459	0	
4	0	0	0	0	508	515	457	0	
5	0	0	0	0	527	516	456	0	
6	0	0	0	0	532	515	458	0	
7	0	0	0	0	516	505	457	0	
8	0	0	0	0	516	526	456	0	
9	0	0	0	0	507	537	458	0	
10	0	0	0	0	542	546	459	0	
11	0	0	0	0	525	509	460	0	
12	0	0	0	0	499	492	457	0	
13	0	0	0	0	508	510	456	0	
14	0	0	0	0	511	525	454	0	
15	0	0	0	0	513	519	454	0	
0	0	0	0	0	498	489	455	0	
1	0	0	0	0	507	496	452	0	
2	0	0	0	0	510	501	452	0	
3	0	0	0	0	563	515	452	0	
4	0	0	0	0	541	514	450	0	
5	0	0	0	0	489	496	450	0	
6	0	0	0	0	445	507	451	0	
7	0	0	0	0	460	525	451	0	
8	0	0	0	0	487	529	453	0	
9	0	0	0	0	527	523	452	0	
10	0	0	0	0	564	513	454	0	
11	0	0	0	0	570	497	451	0	
12	0	0	0	0	521	489	451	0	
13	0	0	0	0	465	489	452	0	
14	0	0	0	0	473	516	451	0	
15	0	0	0	0	501	527	451	0	
0	0	0	0	0	509	527	450	0	
1	0	0	0	0	495	515	451	0	
2	0	0	0	0	512	510	452	0	
3	0	0	0	0	526	517	451	0	
4	0	0	0	0	505	510	452	0	
5	0	0	0	0	505	493	448	0	
6	0	0	0	0	494	495	447	0	
7	0	0	0	0	520	507	448	0	
8	0	0	0	0	567	505	449	0	
9	0	0	0	0	537	528	448	0	
10	0	0	0	0	491	533	449	0	
11	0	0	0	0	489	529	451	0	
12	0	0	0	0	469	495	451	0	
13	0	0	0	0	466	493	452	0	
14	0	0	0	0	484	492	452	0	
15	0	0	0	0	530	503	453	0	
0	0	0	0	0	545	532	453	0	
1	0	0	0	0	527	531	452	0	
2	0	0	0	0	524	512	451	0	
3	0	0	0	0	519	510	451	0	
4	0	0	0	0	495	521	452	0	
5	0	0	0	0	491	496	451	0	
6	0	0	0	0	518	511	453	0	
7	0	0	0	0	545	495	453	0	
8	0	0	0	0	538	512	451	0	
9	0	0	0	0	485	511	451	0	
10	0	0	0	0	475	504	451	0	
11	0	0	0	0	500	514	453	0	
12	0	0	0	0	498	513	453	0	
13	0	0	0	0	531	502	451	0	
14	0	0	0	0	547	516	452	0	
15	0	0	0	0	536	519	451	0	
0	0	0	0	0	474	509	452	0	
1	0	0	0	0	442	536	451	0	
2	0	0	0	0	476	505	452	0	
3	0	0	0	0	470	457	453	0	
4	0	0	0	0	479	449	452	0	
5	0	0	0	0	503	519	453	0	
6	0	0	0	0	574	542	454	0	
7	0	0	0	0	564	522	454	0	
8	0	0	0	0	512	504	454	0	
9	0	0	0	0	472	504	454	0	
10	0	0	0	0	502	519	454	0	
11	0	0	0	0	544	504	456	0	
12	0	0	0	0	521	508	456	0	
13	0	0	0	0	499	511	456	0	
14	0	0	0	0	527	538	456	0	
15	0	0	0	0	523	546	455	0	
0	0	0	0	0	502	520	455	0	
1	0	0	0	0	473	502	453	0	
2	0	0	0	0	465	517	454	0	
3	0	0	0	0	516	545	454	0	
4	0	0	0	0	533	511	454	0	
5	0	0	0	0	529	472	455	0	
6	0	0	0	0	520	474	455	0	
7	0	0	0	0	531	505	454	0	
8	0	0	0	0	527	519	454	0	
9	0	0	0	0	497	530	452	0	
10	0	0	0	0	503	511	455	0	
11	0	0	0	0	493	499	456	0	
12	0	0	0	0	514	532	456	0	
13	0	0	0	0	515	508	456	0	
14	0	0	0	0	489	495	457	0	
15	0	0	0	0	502	503	456	0	
0	0	0	0	0	495	515	457	1	
1	0	0	0	0	495	514	457	0	
2	0	0	0	0	503	533	457	0	
3	0	0	0	0	492	524	459	0	
4	0	0	0	0	523	522	459	0	
5	0	0	0	0	540	515	458	0	
6	0	0	0	0	541	518	460	0	
7	0	0	0	0	512	486	460	0	
8	0	0	0	0	480	471	460	0	
9	0	0	0	0	486	487	460	0	
10	0	0	0	0	511	511	461	0	
11	0	0	0	0	501	501	460	0	
12	0	0	0	0	518	468	461	0	
13	0	0	0	0	529	504	462	0	
14	0	0	0	0	540	538	462	0	
15	0	0	0	0	512	534	462	0	
0	0	0	0	0	504	522	462	0	
1	0	0	0	0	525	519	462	0	
2	0	0	0	0	497	509	463	0	
3	0	0	0	0	505	511	463	0	
4	0	0	0	0	501	530	463	0	
5	0	0	0	0	517	525	464	0	
6	0	0	0	0	504	518	464	0	
7	0	0	0	0	460	508	464	0	
8	0	0	0	0	425	505	464	0	
9	0	0	0	0	457	505	465	0	
10	0	0	0	0	496	510	465	0	
11	0	0	0	0	542	528	465	0	
12	0	0	0	0	501	511	466	3	
13	0	0	0	0	523	497	466	2	
14	0	0	0	0	569	504	466	4	
15	0	0	0	0	616	509	466	7	
0	0	0	0	0	571	506	465	7	
1	0	0	0	0	532	513	466	7	
2	0	0	0	0	543	536	466	7	
3	0	0	0	0	528	524	464	7	
4	0	0	0	0	455	508	465	9	
5	0	0	0	0	415	487	465	6	
6	0	0	0	0	432	485	466	7	
7	0	0	0	0	478	514	466	7	
8	0	0	0	0	467	508	466	3	
9	0	0	0	0	491	512	466	4	
10	0	0	0	0	515	511	465	3	
11	0	0	0	0	522	513	467	3	
12	0	0	0	0	501	524	466	5	
13	0	0	0	0	512	523	466	3	
14	0	0	0	0	587	515	466	3	
15	0	0	0	0	601	503	467	3	
0	0	0	0	0	521	508	467	3	
1	0	0	0	0	487	513	468	3	
2	0	0	0	0	487	494	467	1	
3	0	0	0	0	484	477	467	1	
4	0	0	0	0	439	493	468	4	
5	0	0	0	0	484	509	468	2	
6	0	0	0	0	542	516	467	3	
7	0	0	0	0	518	519	468	2	
8	0	0	0	0	491	512	468	4	
9	0	0	0	0	515	514	468	2	
10	0	0	0	0	527	527	468	3	
11	0	0	0	0	512	532	467	3	
12	0	0	0	0	524	519	468	5	
13	0	0	0	0	523	506	467	4	
14	0	0	0	0	511	502	467	4	
15	0	0	0	0	503	517	467	4	
0	0	0	0	0	502	511	467	6	
1	0	0	0	0	526	489	466	5	
2	0	0	0	0	552	494	467	5	
3	0	0	0	0	536	523	466	3	
4	0	0	0	0	480	515	465	4	
5	0	0	0	0	472	499	465	4	
6	0	0	0	0	475	516	466	6	
7	0	0	0	0	477	528	466	7	
8	0	0	0	0	500	539	465	6	
9	0	0	0	0	522	520	467	6	
10	0	0	0	0	515	503	467	6	
11	0	0	0	0	516	513	466	3	
12	0	0	0	0	553	516	467	4	
13	0	0	0	0	539	501	467	3	
14	0	0	0	0	503	495	465	2	
15	0	0	0	0	492	509	466	2	
0	0	0	0	0	490	516	465	2	
1	0	0	0	0	489	521	464	1	
2	0	0	0	0	505	523	464	1	
3	0	0	0	0	528	524	464	0	
4	0	0	0	0	542	498	464	0	
5	0	0	0	0	519	483	465	2	
6	0	0	0	0	499	498	464	0	
7	0	0	0	0	524	519	463	0	
8	0	0	0	0	528	533	464	0	
9	0	0	0	0	483	515	465	0	
10	0	0	0	0	473	504	465	0	
11	0	0	0	0	490	507	464	0	
12	0	0	0	0	526	495	463	0	
13	0	0	0	0	501	489	465	0	
14	0	0	0	0	495	492	464	0	
15	0	0	0	0	498	501	463	0	
0	0	0	0	0	492	504	463	0	
1	0	0	0	0	499	508	463	0	
2	0	0	0	0	490	512	463	0	
3	0	0	0	0	502	521	462	0	
4	0	0	0	0	545	531	462	0	
5	0	0	0	0	524	514	462	0	
6	0	0	0	0	515	519	463	0	
7	0	0	0	0	511	519	463	0	
8	0	0	0	0	524	509	464	0	
9	0	0	0	0	554	513	465	0	
10	0	0	0	0	513	507	464	0	
11	0	0	0	0	502	521	464	0	
12	0	0	0	0	486	502	464	0	
13	0	0	0	0	449	492	464	0	
14	0	0	0	0	457	489	463	0	
15	0	0	0	0	522	508	463	0	
0	0	0	0	0	521	517	463	0	
1	0	0	0	0	509	519	462	0	
2	0	0	0	0	505	509	462	0	
3	0	0	0	0	536	532	461	0	
4	0	0	0	0	530	530	460	0	
5	0	0	0	0	523	529	461	0	
6	0	0	0	0	508	519	460	0	
7	0	0	0	0	516	514	460	0	
8	0	0	0	0	527	499	460	0	
9	0	0	0	0	530	490	459	0	
10	0	0	0	0	499	483	459	0	
11	0	0	0	0	498	476	459	0	
12	0	0	0	0	483	481	459	0	
13	0	0	0	0	487	517	459	0	
14	0	0	0	0	518	539	459	0	
15	0	0	0	0	530	537	460	0	
0	0	0	0	0	517	521	460	0	
1	0	0	0	0	491	512	460	0	
2	0	0	0	0	501	505	459	0	
3	0	0	0	0	516	510	458	0	
4	0	0	0	0	487	519	459	0	
5	0	0	0	0	477	520	459	0	
6	0	0	0	0	485	512	459	0	
7	0	0	0	0	531	517	459	0	
8	0	0	0	0	552	511	457	0	
9	0	0	0	0	535	518	458	0	
10	0	0	0	0	510	483	457	0	
11	0	0	0	0	475	491	457	0	
12	0	0	0	0	494	520	457	0	
13	0	0	0	0	495	519	457	0	
14	0	0	0	0	489	512	457	0	
15	0	0	0	0	509	521	457	0	
0	0	0	0	0	591	515	457	0	
1	0	0	0	0	548	504	458	0	
2	0	0	0	0	510	496	458	0	
3	0	0	0	0	531	523	459	0	
4	0	0	0	0	510	525	459	0	
5	0	0	0	0	486	524	459	0	
6	0	0	0	0	490	536	459	0	
7	0	0	0	0	489	526	460	0	
8	0	0	0	0	506	503	459	0	
9	0	0	0	0	483	493	459	0	
10	0	0	0	0	476	488	459	0	
11	0	0	0	0	480	474	458	0	
12	0	0	0	0	516	475	459	0	
13	0	0	0	0	541	519	459	0	
14	0	0	0	0	486	528	459	0	
15	0	0	0	0	497	524	459	0	
0	0	0	0	0	540	518	459	0	
1	0	0	0	0	513	508	459	0	
2	0	0	0	0	477	502	458	0	
3	0	0	0	0	484	515	458	0	
4	0	0	0	0	519	522	457	0	
5	0	0	0	0	538	514	457	0	
6	0	0	0	0	537	512	458	0	
7	0	0	0	0	547	511	459	0	
8	0	0	0	0	550	510	459	0	
9	0	0	0	0	522	499	456	0	
10	0	0	0	0	511	509	456	0	
11	0	0	0	0	479	505	456	0	
12	0	0	0	0	467	505	455	0	
13	0	0	0	0	476	520	455	0	
14	0	0	0	0	502	517	455	0	
15	0	0	0	0	503	506	455	0	
0	0	0	0	0	519	501	455	0	
1	0	0	0	0	519	509	454	0	
2	0	0	0	0	523	502	454	0	
3	0	0	0	0	500	505	454	0	
4	0	0	0	0	481	508	455	0	
5	0	0	0	0	483	507	454	0	
6	0	0	0	0	519	523	454	0	
7	0	0	0	0	523	519	455	0	
8	0	0	0	0	522	512	454	0	
9	0	0	0	0	528	521	454	0	
10	0	0	0	0	517	498	454	0	
11	0	0	0	0	472	500	454	0	
12	0	0	0	0	476	502	453	0	
13	0	0	0	0	506	508	452	0	
14	0	0	0	0	527	521	452	0	
15	0	0	0	0	521	523	452	0	
0	0	0	0	0	536	519	451	0	
1	0	0	0	0	535	511	452	0	
2	0	0	0	0	523	512	451	0	
3	0	0	0	0	495	517	451	0	
4	0	0	0	0	516	523	450	0	
5	0	0	0	0	534	523	450	0	
6	0	0	0	0	514	518	451	0	
7	0	0	0	0	546	526	450	0	
8	0	0	0	0	496	504	451	0	
9	0	0	0	0	449	475	450	0	
10	0	0	0	0	446	492	450	0	
11	0	0	0	0	443	500	450	0	
12	0	0	0	0	484	518	449	0	
13	0	0	0	0	507	522	450	0	
14	0	0	0	0	538	504	451	0	
15	0	0	0	0	531	489	451	0	
0	0	0	0	0	527	506	450	0	
1	0	0	0	0	551	519	449	0	
2	0	0	0	0	569	521	450	0	
3	0	0	0	0	494	510	448	0	
4	0	0	0	0	455	504	448	0	
5	0	0	0	0	488	511	448	0	
6	0	0	0	0	508	508	448	0	
7	0	0	0	0	491	494	446	0	
8	0	0	0	0	472	507	446	0	
9	0	0	0	0	482	522	446	0	
10	0	0	0	0	552	541	445	0	
11	0	0	0	0	577	535	445	0	
12	0	0	0	0	575	539	445	0	
13	0	0	0	0	537	512	446	0	
14	0	0	0	0	508	493	445	0	
15	0	0	0	0	503	497	446	0	
0	0	0	0	0	501	503	445	0	
1	0	0	0	0	509	507	446	0	
2	0	0	0	0	489	512	445	0	
3	0	0	0	0	487	515	444	0	
4	0	0	0	0	497	515	445	0	
5	0	0	0	0	468	504	445	0	
6	0	0	0	0	480	498	445	0	
7	0	0	0	0	493	500	444	0	
8	0	0	0	0	494	505	443	0	
9	0	0	0	0	494	504	444	0	
10	0	0	0	0	497	491	443	0	
11	0	0	0	0	508	511	442	0	
12	0	0	0	0	536	527	442	0	
13	0	0	0	0	536	520	440	0	
14	0	0	0	0	516	505	441	0	
15	0	0	0	0	510	510	440	0	
0	0	0	0	0	498	519	439	0	
1	0	0	0	0	475	512	438	0	
2	0	0	0	0	532	508	438	0	
3	0	0	0	0	558	502	438	0	
4	0	0	0	0	529	495	436	0	
5	0	0	0	0	529	512	437	0	
6	0	0	0	0	526	523	436	0	
7	0	0	0	0	505	530	438	0	
8	0	0	0	0	508	526	436	0	
9	0	0	0	0	504	519	436	0	
10	0	0	0	0	492	506	435	0	
11	0	0	0	0	495	522	435	0	
12	0	0	0	0	502	527	435	0	
13	0	0	0	0	523	506	434	0	
14	0	0	0	0	541	504	435	0	
15	0	0	0	0	519	511	434	0	
0	0	0	0	0	494	490	433	0	
1	0	0	0	0	475	487	434	0	
2	0	0	0	0	477	486	435	0	
3	0	0	0	0	503	515	434	0	
4	0	0	0	0	512	514	434	0	
5	0	0	0	0	488	504	433	0	
6	0	0	0	0	500	517	433	0	
7	0	0	0	0	523	525	432	0	
8	0	0	0	0	512	519	433	0	
9	0	0	0	0	514	515	432	0	
10	0	0	0	0	545	505	432	0	
11	0	0	0	0	534	514	432	0	
12	0	0	0	0	503	512	432	0	
13	0	0	0	0	471	511	433	0	
14	0	0	0	0	524	517	433	0	
15	0	0	0	0	485	513	433	0	
0	0	0	0	0	501	503	434	0	
1	0	0	0	0	474	497	433	0	
2	0	0	0	0	483	498	433	0	
3	0	0	0	0	520	502	433	0	
4	0	0	0	0	537	516	430	0	
5	0	0	0	0	539	527	431	0	
6	0	0	0	0	519	517	430	0	
7	0	0	0	0	526	514	431	0	
8	0	0	0	0	524	523	431	0	
9	0	0	0	0	514	525	431	0	
10	0	0	0	0	498	511	431	0	
11	0	0	0	0	447	491	432	0	
12	0	0	0	0	481	491	432	0	
13	0	0	0	0	507	495	433	0	
14	0	0	0	0	504	501	433	0	
15	0	0	0	0	515	524	433	0	
0	0	0	0	0	527	516	433	0	
1	0	0	0	0	509	514	432	0	
2	0	0	0	0	519	511	433	0	
3	0	0	0	0	543	521	433	0	
4	0	0	0	0	530	543	433	0	
5	0	0	0	0	496	534	434	0	
6	0	0	0	0	517	507	435	0	
7	0	0	0	0	539	504	433	0	
8	0	0	0	0	510	467	433	0	
9	0	0	0	0	444	469	433	0	
10	0	0	0	0	449	496	433	0	
11	0	0	0	0	520	517	433	0	
12	0	0	0	0	563	528	432	0	
13	0	0	0	0	524	512	432	0	
14	0	0	0	0	490	507	432	0	
15	0	0	0	0	505	502	432	0	
0	0	0	0	0	518	516	430	0	
1	0	0	0	0	497	510	428	0	
2	0	0	0	0	480	519	428	0	
3	0	0	0	0	491	542	429	0	
4	0	0	0	0	526	532	427	0	
5	0	0	0	0	547	516	425	0	
6	0	0	0	0	499	498	426	0	
7	0	0	0	0	486	500	424	0	
8	0	0	0	0	494	508	425	0	
9	0	0	0	0	505	519	422	0	
10	0	0	0	0	513	515	422	0	
11	0	0	0	0	496	507	421	0	
12	0	0	0	0	514	505	420	0	
13	0	0	0	0	537	510	419	0	
14	0	0	0	0	491	508	419	0	
15	0	0	0	0	500	517	420	0	
0	0	0	0	0	527	512	421	0	
1	0	0	0	0	518	506	422	0	
2	0	0	0	0	560	506	421	0	
3	0	0	0	0	544	509	420	0	
4	0	0	0	0	514	506	420	0	
5	0	0	0	0	484	508	421	0	
6	0	0	0	0	468	515	421	0	
7	0	0	0	0	480	500	420	0	
8	0	0	0	0	489	506	419	0	
9	0	0	0	0	511	518	420	0	
10	0	0	0	0	518	531	420	0	
11	0	0	0	0	521	519	419	0	
12	0	0	0	0	524	498	421	0	
13	0	0	0	0	518	505	421	0	
14	0	0	0	0	518	510	421	0	
15	0	0	0	0	531	507	422	0	
0	0	0	0	0	543	512	423	0	
1	0	0	0	0	511	506	422	0	
2	0	0	0	0	452	492	424	0	
3	0	0	0	0	461	521	423	0	
4	0	0	0	0	529	532	423	0	
5	0	0	0	0	538	526	424	0	
6	0	0	0	0	479	507	424	0	
7	0	0	0	0	444	484	425	0	
8	0	0	0	0	539	509	427	0	
9	0	0	0	0	535	520	425	0	
10	0	0	0	0	531	520	427	0	
11	0	0	0	0	545	501	427	0	
12	0	0	0	0	545	500	425	0	
13	0	0	0	0	455	484	427	0	
14	0	0	0	0	413	495	427	0	
15	0	0	0	0	449	500	427	0	
0	0	0	0	0	521	530	427	0	
1	0	0	0	0	543	524	426	0	
2	0	0	0	0	507	515	426	0	
3	0	0	0	0	514	516	426	0	
4	0	0	0	0	512	516	427	0	
5	0	0	0	0	511	514	427	0	
6	0	0	0	0	521	506	427	0	
7	0	0	0	0	523	508	426	0	
8	0	0	0	0	507	514	429	0	
9	0	0	0	0	496	524	427	0	
10	0	0	0	0	504	513	426	0	
11	0	0	0	0	529	511	425	0	
12	0	0	0	0	537	485	427	0	
13	0	0	0	0	537	507	427	0	
14	0	0	0	0	517	527	426	0	
15	0	0	0	0	521	520	425	0	
0	0	0	0	0	537	520	425	0	
1	0	0	0	0	516	496	425	0	
2	0	0	0	0	500	505	425	0	
3	0	0	0	0	527	507	426	0	
4	0	0	0	0	565	539	426	0	
5	0	0	0	0	521	550	424	0	
6	0	0	0	0	467	529	423	0	
7	0	0	0	0	439	492	423	0	
8	0	0	0	0	457	486	423	0	
9	0	0	0	0	430	477	423	0	
10	0	0	0	0	445	486	425	0	
11	0	0	0	0	511	506	425	0	
12	0	0	0	0	547	512	426	0	
13	0	0	0	0	544	514	425	0	
14	0	0	0	0	533	520	426	0	
15	0	0	0	0	511	519	425	0	
0	0	0	0	0	505	520	425	0	
1	0	0	0	0	491	510	426	0	
2	0	0	0	0	500	513	426	0	
3	0	0	0	0	494	498	426	0	
4	0	0	0	0	541	497	425	0	
5	0	0	0	0	534	516	426	0	
6	0	0	0	0	510	512	427	0	
7	0	0	0	0	506	512	427	0	
8	0	0	0	0	537	500	428	0	
9	0	0	0	0	516	502	428	0	
10	0	0	0	0	548	522	428	0	
11	0	0	0	0	543	531	427	0	
12	0	0	0	0	550	526	428	0	
13	0	0	0	0	561	514	428	0	
14	0	0	0	0	532	527	428	0	
15	0	0	0	0	519	508	428	0	
0	0	0	0	0	437	490	428	0	
1	0	0	0	0	367	499	428	0	
2	0	0	0	0	376	488	428	0	
3	0	0	0	0	470	503	428	0	
4	0	0	0	0	504	508	428	0	
5	0	0	0	0	575	508	428	0	
6	0	0	0	0	602	523	428	0	
7	0	0	0	0	518	516	428	0	
8	0	0	0	0	462	526	427	0	
9	0	0	0	0	507	523	428	0	
10	0	0	0	0	526	505	428	0	
11	0	0	0	0	494	497	428	0	
12	0	0	0	0	491	515	428	0	
13	0	0	0	0	495	510	428	0	
14	0	0	0	0	510	508	428	0	
15	0	0	0	0	519	502	428	0	
0	0	0	0	0	551	517	429	0	
1	0	0	0	0	540	507	428	0	
2	0	0	0	0	528	511	428	0	
3	0	0	0	0	536	519	427	0	
4	0	0	0	0	548	523	428	3	
5	0	0	0	0	536	520	427	5	
6	0	0	0	0	519	518	427	2	
7	0	0	0	0	508	515	427	0	
8	0	0	0	0	477	484	427	0	
9	0	0	0	0	456	497	427	0	
10	0	0	0	0	491	508	427	1	
11	0	0	0	0	475	486	427	0	
12	0	0	0	0	511	510	427	0	
13	0	0	0	0	532	526	427	0	
14	0	0	0	0	498	499	427	0	
15	0	0	0	0	483	499	426	0	
0	0	0	0	0	511	530	428	0	
1	0	0	0	0	527	523	429	0	
2	0	0	0	0	560	532	428	0	
3	0	0	0	0	532	537	429	0	
4	0	0	0	0	464	485	428	0	
5	0	0	0	0	440	474	429	0	
6	0	0	0	0	500	521	429	0	
7	0	0	0	0	506	518	430	0	
8	0	0	0	0	498	513	430	0	
9	0	0	0	0	530	510	429	0	
10	0	0	0	0	536	498	430	0	
11	0	0	0	0	527	478	429	0	
12	0	0	0	0	535	495	430	0	
13	0	0	0	0	515	522	430	0	
14	0	0	0	0	487	531	431	0	
15	0	0	0	0	487	527	428	0	
0	0	0	0	0	498	515	428	0	
1	0	0	0	0	512	517	428	0	
2	0	0	0	0	501	510	426	0	
3	0	0	0	0	553	522	429	0	
4	0	0	0	0	535	517	427	0	
5	0	0	0	0	507	515	427	3	
6	0	0	0	0	515	516	429	3	
7	0	0	0	0	472	500	429	3	
8	0	0	0	0	489	500	429	3	
9	0	0	0	0	471	518	429	1	
10	0	0	0	0	527	531	427	0	
11	0	0	0	0	545	517	427	0	
12	0	0	0	0	516	515	428	4	
13	0	0	0	0	497	520	428	7	
14	0	0	0	0	468	499	426	6	
15	0	0	0	0	468	470	425	7	
0	0	0	0	0	466	493	425	14	
1	0	0	0	0	503	504	424	7	
2	0	0	0	0	564	484	424	7	
3	0	0	0	0	572	516	426	7	
4	0	0	0	0	548	535	426	7	
5	0	0	0	0	529	523	425	3	
6	0	0	0	0	491	544	426	6	
7	0	0	0	0	445	521	425	0	
8	0	0	0	0	473	472	426	0	
9	0	0	0	0	518	508	427	0	
10	0	0	0	0	567	509	428	0	
11	0	0	0	0	529	502	427	0	
12	0	0	0	0	525	510	426	0	
13	0	0	0	0	497	519	428	0	
14	0	0	0	0	503	564	429	0	
15	0	0	0	0	520	552	429	0	
0	0	0	0	0	534	530	428	0	
1	0	0	0	0	474	505	428	0	
2	0	0	0	0	430	461	428	0	
3	0	0	0	0	463	467	425	0	
4	0	0	0	0	496	479	427	0	
5	0	0	0	0	497	487	426	0	
6	0	0	0	0	515	508	427	0	
7	0	0	0	0	535	505	426	0	
8	0	0	0	0	567	508	426	1	
9	0	0	0	0	576	489	425	1	
10	0	0	0	0	587	532	425	0	
11	0	0	0	0	547	536	427	0	
12	0	0	0	0	505	539	425	0	
13	0	0	0	0	444	546	423	0	
14	0	0	0	0	438	518	425	0	
15	0	0	0	0	462	467	425	0	
0	0	0	0	0	488	469	424	0	
1	0	0	0	0	496	494	427	0	
2	0	0	0	0	471	525	428	0	
3	0	0	0	0	538	531	428	0	
4	0	0	0	0	569	540	429	0	
5	0	0	0	0	556	535	429	0	
6	0	0	0	0	512	532	430	0	
7	0	0	0	0	485	512	430	0	
8	0	0	0	0	487	493	430	0	
9	0	0	0	0	492	521	431	0	
10	0	0	0	0	499	500	428	0	
11	0	0	0	0	536	491	428	0	
12	0	0	0	0	528	491	426	0	
13	0	0	0	0	505	509	423	0	
14	0	0	0	0	507	495	423	0	
15	0	0	0	0	512	524	423	0	
0	0	0	0	0	521	507	422	0	
1	0	0	0	0	516	508	423	0	
2	0	0	0	0	529	510	423	0	
3	0	0	0	0	509	523	423	6	
4	0	0	0	0	492	528	422	0	
5	0	0	0	0	433	500	422	0	
6	0	0	0	0	432	493	424	0	
7	0	0	0	0	500	492	424	0	
8	0	0	0	0	540	504	424	0	
9	0	0	0	0	575	523	423	0	
10	0	0	0	0	588	530	424	0	
11	0	0	0	0	547	513	423	0	
12	0	0	0	0	511	513	425	0	
13	0	0	0	0	468	519	424	0	
14	0	0	0	0	490	532	423	0	
15	0	0	0	0	486	518	422	5	
0	0	0	0	0	472	493	420	2	
1	0	0	0	0	480	489	421	1	
2	0	0	0	0	471	492	421	2	
3	0	0	0	0	507	494	421	8	
4	0	0	0	0	536	522	420	7	
5	0	0	0	0	556	539	420	5	
6	0	0	0	0	589	514	420	3	
7	0	0	0	0	567	507	421	3	
8	0	0	0	0	558	508	420	4	
9	0	0	0	0	521	539	421	5	
10	0	0	0	0	479	532	419	6	
11	0	0	0	0	416	508	419	6	
12	0	0	0	0	417	475	418	6	
13	0	0	0	0	436	508	419	7	
14	0	0	0	0	467	517	419	8	
15	0	0	0	0	523	534	419	11	
0	0	0	0	0	569	500	420	12	
1	0	0	0	0	561	488	421	9	
2	0	0	0	0	503	486	421	9	
3	0	0	0	0	475	501	421	9	
4	0	0	0	0	544	524	419	9	
5	0	0	0	0	523	531	420	10	
6	0	0	0	0	483	498	422	9	
7	0	0	0	0	504	509	422	11	
8	0	0	0	0	584	527	420	10	
9	0	0	0	0	543	517	421	13	
10	0	0	0	0	475	522	421	14	
11	0	0	0	0	514	516	421	15	
12	0	0	0	0	503	510	420	15	
13	0	0	0	0	491	507	418	15	
14	0	0	0	0	470	494	419	15	
15	0	0	0	0	515	483	419	15	
0	0	0	0	0	551	514	421	15	
1	0	0	0	0	560	537	422	15	
2	0	0	0	0	516	526	419	15	
3	0	0	0	0	426	492	419	15	
4	0	0	0	0	419	468	421	15	
5	0	0	0	0	514	502	422	16	
6	0	0	0	0	537	504	420	16	
7	0	0	0	0	539	518	421	16	
8	0	0	0	0	486	507	423	16	
9	0	0	0	0	459	514	422	16	
10	0	0	0	0	507	546	423	17	
11	0	0	0	0	545	552	423	18	
12	0	0	0	0	545	524	423	18	
13	0	0	0	0	558	502	425	18	
14	0	0	0	0	534	479	426	18	
15	0	0	0	0	496	487	426	18	
0	0	0	0	0	500	490	424	18	
1	0	0	0	0	498	497	424	18	
2	0	0	0	0	515	502	423	19	
3	0	0	0	0	513	516	424	20	
4	0	0	0	0	512	548	424	20	
5	0	0	0	0	486	569	426	20	
6	0	0	0	0	484	519	426	20	
7	0	0	0	0	527	518	425	21	
8	0	0	0	0	497	485	423	21	
9	0	0	0	0	444	460	425	20	
10	0	0	0	0	450	480	424	19	
11	0	0	0	0	514	511	425	20	
12	0	0	0	0	516	527	425	21	
13	0	0	0	0	497	518	424	20	
14	0	0	0	0	544	519	424	20	
15	0	0	0	0	538	509	423	19	
0	0	0	0	0	548	497	422	20	
1	0	0	0	0	568	495	421	21	
2	0	0	0	0	507	513	422	21	
3	0	0	0	0	490	537	420	20	
4	0	0	0	0	477	521	419	22	
5	0	0	0	0	515	518	418	20	
6	0	0	0	0	500	497	420	20	
7	0	0	0	0	550	511	420	22	
8	0	0	0	0	503	505	418	21	
9	0	0	0	0	506	516	417	23	
10	0	0	0	0	540	527	416	22	
11	0	0	0	0	522	528	415	23	
12	0	0	0	0	494	519	416	22	
13	0	0	0	0	479	508	415	22	
14	0	0	0	0	487	490	413	21	
15	0	0	0	0	493	499	413	21	
0	0	0	0	0	534	507	411	23	
1	0	0	0	0	529	535	411	22	
2	0	0	0	0	555	527	411	25	
3	0	0	0	0	529	527	409	27	
4	0	0	0	0	481	499	408	25	
5	0	0	0	0	458	467	408	27	
6	0	0	0	0	527	519	409	27	
7	0	0	0	0	519	525	406	27	
8	0	0	0	0	453	491	406	26	
9	0	0	0	0	383	480	405	27	
10	0	0	0	0	489	521	402	26	
11	0	0	0	0	528	488	402	25	
12	0	0	0	0	561	500	403	25	
13	0	0	0	0	520	513	401	26	
14	0	0	0	0	537	507	400	25	
15	0	0	0	0	553	501	401	23	
0	0	0	0	0	541	525	399	24	
1	0	0	0	0	498	521	399	23	
2	0	0	0	0	432	525	398	23	
3	0	0	0	0	464	511	398	24	
4	0	0	0	0	542	539	396	23	
5	0	0	0	0	534	524	396	23	
6	0	0	0	0	518	518	393	24	
7	0	0	0	0	524	520	393	24	
8	0	0	0	0	508	491	392	38	
9	0	0	0	0	540	483	391	33	
10	0	0	0	0	535	496	389	30	
11	0	0	0	0	542	515	387	26	
12	0	0	0	0	536	522	388	27	
13	0	0	0	0	538	542	388	27	
14	0	0	0	0	456	497	385	27	
15	0	0	0	0	453	504	385	28	
0	0	0	0	0	437	499	385	31	
1	0	0	0	0	489	511	384	28	
2	0	0	0	0	543	532	382	27	
3	0	0	0	0	530	504	383	31	
4	0	0	0	0	511	496	382	31	
5	0	0	0	0	578	500	382	32	
6	0	0	0	0	598	527	381	29	
7	0	0	0	0	516	529	379	27	
8	0	0	0	0	442	483	377	25	
9	0	0	0	0	429	505	377	24	
10	0	0	0	0	502	483	377	25	
11	0	0	0	0	523	524	376	29	
12	0	0	0	0	444	539	376	30	
13	0	0	0	0	422	529	376	29	
14	0	0	0	0	487	528	376	33	
15	0	0	0	0	537	541	374	35	
0	0	0	0	0	535	480	372	38	
1	0	0	0	0	528	456	372	41	
2	0	0	0	0	512	488	371	42	
3	0	0	0	0	527	492	369	44	
4	0	0	0	0	512	485	371	44	
5	0	0	0	0	560	508	369	49	
6	0	0	0	0	498	515	370	48	
7	0	0	0	0	497	518	371	51	
8	0	0	0	0	514	561	371	51	
9	0	0	0	0	556	550	371	51	
10	0	0	0	0	536	516	371	49	
11	0	0	0	0	494	503	371	49	
12	0	0	0	0	492	535	370	49	
13	0	0	0	0	527	537	371	49	
14	0	0	0	0	527	531	369	51	
15	0	0	0	0	476	505	370	52	
0	0	0	0	0	467	472	369	53	
1	0	0	0	0	544	515	369	52	
2	0	0	0	0	551	537	369	55	
3	0	0	0	0	550	520	369	55	
4	0	0	0	0	480	491	369	54	
5	0	0	0	0	457	468	369	57	
6	0	0	0	0	430	469	369	56	
7	0	0	0	0	519	516	370	78	
8	0	0	0	0	522	537	370	76	
9	0	0	0	0	521	539	369	81	
10	0	0	0	0	517	561	370	81	
11	0	0	0	0	517	540	371	84	
12	0	0	0	0	439	481	370	87	
13	0	0	0	0	465	433	371	87	
14	0	0	0	0	560	450	369	88	
15	0	0	0	0	548	513	370	91	
0	0	0	0	0	518	569	371	91	
1	0	0	0	0	559	536	372	95	
2	0	0	0	0	606	537	373	95	
3	0	0	0	0	507	499	374	97	
4	0	0	0	0	362	442	373	96	
5	0	0	0	0	395	461	375	97	
6	0	0	0	0	491	502	375	98	
7	0	0	0	0	542	519	375	97	
8	0	0	0	0	548	521	376	98	
9	0	0	0	0	543	535	375	99	
10	0	0	0	0	582	525	376	99	
11	0	0	0	0	592	536	376	99	
12	0	0	0	0	556	521	376	100	
13	0	0	0	0	459	506	376	101	
14	0	0	0	0	436	512	376	101	
15	0	0	0	0	448	510	377	98	
0	0	0	0	0	480	487	376	99	
1	0	0	0	0	495	488	376	97	
2	0	0	0	0	493	476	377	99	
3	0	0	0	0	497	479	377	96	
4	0	0	0	0	480	508	378	99	
5	0	0	0	0	540	540	376	96	
6	0	0	0	0	543	529	375	93	
7	0	0	0	0	534	556	376	94	
8	0	0	0	0	531	544	376	100	
9	0	0	0	0	508	534	375	100	
10	0	0	0	0	519	513	374	97	
11	0	0	0	0	513	492	375	104	
12	0	0	0	0	530	495	374	98	
13	0	0	0	0	502	511	374	97	
14	0	0	0	0	515	514	373	95	
15	0	0	0	0	526	521	373	95	
0	0	0	0	0	495	508	373	97	
1	0	0	0	0	455	523	372	97	
2	0	0	0	0	477	527	371	98	
3	0	0	0	0	505	488	371	99	
4	0	0	0	0	504	498	370	103	
5	0	0	0	0	513	510	369	101	
6	0	0	0	0	508	506	365	104	
7	0	0	0	0	508	504	367	104	
8	0	0	0	0	540	493	368	107	
9	0	0	0	0	532	502	368	108	
10	0	0	0	0	497	520	368	110	
11	0	0	0	0	476	518	348	108	
12	0	0	0	0	507	522	347	108	
13	0	0	0	0	497	517	348	108	
14	0	0	0	0	513	516	347	109	
15	0	0	0	0	554	478	347	110	
0	0	0	0	0	601	498	348	110	
1	0	0	0	0	563	540	368	109	
2	0	0	0	0	559	577	369	109	
3	0	0	0	0	551	561	369	111	
4	0	0	0	0	488	496	369	113	
5	0	0	0	0	435	456	369	114	
6	0	0	0	0	393	502	370	115	
7	0	0	0	0	352	471	369	116	
8	0	0	0	0	469	487	370	115	
9	0	0	0	0	544	502	371	116	
10	0	0	0	0	535	519	371	119	
11	0	0	0	0	521	519	371	121	
12	0	0	0	0	483	512	371	121	
13	0	0	0	0	528	476	372	123	
14	0	0	0	0	501	494	372	124	
15	0	0	0	0	508	531	371	125	
0	0	0	0	0	550	551	371	124	
1	0	0	0	0	551	540	370	123	
2	0	0	0	0	518	533	371	126	
3	0	0	0	0	527	520	371	129	
4	0	0	0	0	551	495	372	131	
5	0	0	0	0	509	500	370	133	
6	0	0	0	0	469	480	370	135	
7	0	0	0	0	443	486	370	135	
8	0	0	0	0	495	551	371	136	
9	0	0	0	0	566	552	369	137	
10	0	0	0	0	538	500	369	137	
11	0	0	0	0	522	470	370	139	
12	0	0	0	0	531	483	370	138	
13	0	0	0	0	563	484	370	139	
14	0	0	0	0	532	501	371	139	
15	0	0	0	0	510	545	369	138	
0	0	0	0	0	440	549	369	138	
1	0	0	0	0	432	538	368	138	
2	0	0	0	0	413	497	368	139	
3	0	0	0	0	449	466	369	140	
4	0	0	0	0	526	481	369	138	
5	0	0	0	0	528	481	368	138	
6	0	0	0	0	534	470	369	141	
