# OpenSignals Text File Format. Version 1
# {"20:18:06:13:21:78": {"position": 0, "device": "bitalino_rev", "device name": "20:18:06:13:21:78", "device connection": "BTH20:18:06:13:21:78", "sampling rate": 1000, "resolution": [4, 1, 1, 1, 1, 10, 10, 10, 10], "firmware version": 1281, "comments": "", "keywords": "", "mode": 0, "sync interval": 2, "date": "2023-6-2", "time": "13:8:43.22", "channels": [1, 2, 3, 4], "sensor": ["EMGBITREV", "EMGBITREV", "RAW", "RAW"], "label": ["A1", "A2", "A3", "A4"], "column": ["nSeq", "I1", "I2", "O1", "O2", "A1", "A2", "A3", "A4"], "special": [{}, {}, {}, {}], "digital IO": [0, 0, 1, 1]}}
# EndOfHeader
0	0	0	0	0	510	511	0	0	
1	0	0	0	0	512	510	0	0	
2	0	0	0	0	511	511	0	0	
3	0	0	0	0	514	511	0	0	
4	0	0	0	0	513	509	0	0	
5	0	0	0	0	514	508	0	0	
6	0	0	0	0	516	508	0	0	
7	0	0	0	0	512	508	0	0	
8	0	0	0	0	511	507	0	0	
9	0	0	0	0	510	508	0	0	
10	0	0	0	0	509	507	0	0	
11	0	0	0	0	506	507	0	0	
12	0	0	0	0	507	508	0	0	
13	0	0	0	0	505	508	0	0	
14	0	0	0	0	508	507	0	0	
15	0	0	0	0	509	505	0	0	
0	0	0	0	0	508	506	0	0	
1	0	0	0	0	509	506	0	0	
2	0	0	0	0	510	508	0	0	
3	0	0	0	0	512	510	0	0	
4	0	0	0	0	511	510	0	0	
5	0	0	0	0	513	508	0	0	
6	0	0	0	0	512	504	0	0	
7	0	0	0	0	512	508	0	0	
8	0	0	0	0	515	507	0	0	
9	0	0	0	0	513	509	0	0	
10	0	0	0	0	514	508	0	0	
11	0	0	0	0	513	508	0	0	
12	0	0	0	0	512	508	0	0	
13	0	0	0	0	512	508	0	0	
14	0	0	0	0	512	508	0	0	
15	0	0	0	0	511	507	0	0	
0	0	0	0	0	513	505	0	0	
1	0	0	0	0	511	507	0	0	
2	0	0	0	0	511	508	0	0	
3	0	0	0	0	509	507	0	0	
4	0	0	0	0	511	507	0	0	
5	0	0	0	0	511	508	0	0	
6	0	0	0	0	508	508	0	0	
7	0	0	0	0	509	507	0	0	
8	0	0	0	0	510	508	0	0	
9	0	0	0	0	509	508	0	0	
10	0	0	0	0	511	506	0	0	
11	0	0	0	0	515	507	0	0	
12	0	0	0	0	513	506	0	0	
13	0	0	0	0	516	508	0	0	
14	0	0	0	0	519	507	0	0	
15	0	0	0	0	518	511	0	0	
0	0	0	0	0	515	512	0	0	
1	0	0	0	0	512	508	0	0	
2	0	0	0	0	508	507	0	0	
3	0	0	0	0	505	506	0	0	
4	0	0	0	0	506	506	0	0	
5	0	0	0	0	509	507	0	0	
6	0	0	0	0	510	506	0	0	
7	0	0	0	0	511	505	0	0	
8	0	0	0	0	513	508	0	0	
9	0	0	0	0	512	507	0	0	
10	0	0	0	0	510	509	0	0	
11	0	0	0	0	512	510	0	0	
12	0	0	0	0	515	509	0	0	
13	0	0	0	0	511	510	0	0	
14	0	0	0	0	511	511	0	0	
15	0	0	0	0	512	510	0	0	
0	0	0	0	0	511	510	0	0	
1	0	0	0	0	511	511	0	0	
2	0	0	0	0	510	510	0	0	
3	0	0	0	0	511	510	0	0	
4	0	0	0	0	512	508	0	0	
5	0	0	0	0	512	509	0	0	
6	0	0	0	0	511	505	0	0	
7	0	0	0	0	506	508	0	0	
8	0	0	0	0	510	508	0	0	
9	0	0	0	0	510	506	0	0	
10	0	0	0	0	510	505	0	0	
11	0	0	0	0	509	506	0	0	
12	0	0	0	0	511	508	0	0	
13	0	0	0	0	510	508	0	0	
14	0	0	0	0	512	508	0	0	
15	0	0	0	0	511	508	0	0	
0	0	0	0	0	513	508	0	0	
1	0	0	0	0	514	508	0	0	
2	0	0	0	0	516	509	0	0	
3	0	0	0	0	515	508	0	0	
4	0	0	0	0	516	509	0	0	
5	0	0	0	0	512	507	0	0	
6	0	0	0	0	513	510	0	0	
7	0	0	0	0	513	508	0	0	
8	0	0	0	0	512	507	0	0	
9	0	0	0	0	512	509	0	0	
10	0	0	0	0	513	508	0	0	
11	0	0	0	0	514	508	0	0	
12	0	0	0	0	512	506	0	0	
13	0	0	0	0	511	507	0	0	
14	0	0	0	0	510	507	0	0	
15	0	0	0	0	510	506	0	0	
0	0	0	0	0	507	505	0	0	
1	0	0	0	0	509	507	0	0	
2	0	0	0	0	509	509	0	0	
3	0	0	0	0	510	510	0	0	
4	0	0	0	0	511	508	0	0	
5	0	0	0	0	510	508	0	0	
6	0	0	0	0	511	508	0	0	
7	0	0	0	0	509	508	0	0	
8	0	0	0	0	512	509	0	0	
9	0	0	0	0	513	509	0	0	
10	0	0	0	0	513	511	0	0	
11	0	0	0	0	511	511	0	0	
12	0	0	0	0	511	509	0	0	
13	0	0	0	0	510	508	0	0	
14	0	0	0	0	510	508	0	0	
15	0	0	0	0	508	508	0	0	
0	0	0	0	0	511	507	0	0	
1	0	0	0	0	510	508	0	0	
2	0	0	0	0	508	510	0	0	
3	0	0	0	0	508	508	0	0	
4	0	0	0	0	510	509	0	0	
5	0	0	0	0	509	507	0	0	
6	0	0	0	0	511	506	0	0	
7	0	0	0	0	511	507	0	0	
8	0	0	0	0	513	507	0	0	
9	0	0	0	0	510	508	0	0	
10	0	0	0	0	512	509	0	0	
11	0	0	0	0	513	510	0	0	
12	0	0	0	0	515	510	0	0	
13	0	0	0	0	515	506	0	0	
14	0	0	0	0	512	507	0	0	
15	0	0	0	0	512	506	0	0	
0	0	0	0	0	513	508	0	0	
1	0	0	0	0	511	510	0	0	
2	0	0	0	0	510	508	0	0	
3	0	0	0	0	509	507	0	0	
4	0	0	0	0	507	507	0	0	
5	0	0	0	0	504	504	0	0	
6	0	0	0	0	503	506	0	0	
7	0	0	0	0	506	507	0	0	
8	0	0	0	0	509	508	0	0	
9	0	0	0	0	508	507	0	0	
10	0	0	0	0	509	508	0	0	
11	0	0	0	0	512	508	0	0	
12	0	0	0	0	508	507	0	0	
13	0	0	0	0	505	507	0	0	
14	0	0	0	0	505	508	0	0	
15	0	0	0	0	508	510	0	0	
0	0	0	0	0	512	510	0	0	
1	0	0	0	0	513	510	0	0	
2	0	0	0	0	515	509	0	0	
3	0	0	0	0	515	508	0	0	
4	0	0	0	0	520	510	0	0	
5	0	0	0	0	516	508	0	0	
6	0	0	0	0	512	508	0	0	
7	0	0	0	0	509	507	0	0	
8	0	0	0	0	506	506	0	0	
9	0	0	0	0	508	508	0	0	
10	0	0	0	0	508	508	0	0	
11	0	0	0	0	508	505	0	0	
12	0	0	0	0	508	510	0	0	
13	0	0	0	0	510	508	0	0	
14	0	0	0	0	509	506	0	0	
15	0	0	0	0	510	508	0	0	
0	0	0	0	0	510	508	0	0	
1	0	0	0	0	514	508	0	0	
2	0	0	0	0	512	508	0	0	
3	0	0	0	0	513	510	0	0	
4	0	0	0	0	513	509	0	0	
5	0	0	0	0	514	508	0	0	
6	0	0	0	0	511	510	0	0	
7	0	0	0	0	511	508	0	0	
8	0	0	0	0	511	507	0	0	
9	0	0	0	0	512	507	0	0	
10	0	0	0	0	512	507	0	0	
11	0	0	0	0	509	507	0	0	
12	0	0	0	0	511	507	0	0	
13	0	0	0	0	513	507	0	0	
14	0	0	0	0	511	505	0	0	
15	0	0	0	0	512	506	0	0	
0	0	0	0	0	509	505	0	0	
1	0	0	0	0	509	509	0	0	
2	0	0	0	0	508	508	0	0	
3	0	0	0	0	509	509	0	0	
4	0	0	0	0	511	508	0	0	
5	0	0	0	0	515	508	0	0	
6	0	0	0	0	513	509	0	0	
7	0	0	0	0	513	508	0	0	
8	0	0	0	0	512	510	0	0	
9	0	0	0	0	510	508	0	0	
10	0	0	0	0	512	507	0	0	
11	0	0	0	0	515	509	0	0	
12	0	0	0	0	513	509	0	0	
13	0	0	0	0	513	508	0	0	
14	0	0	0	0	513	506	0	0	
15	0	0	0	0	511	508	0	0	
0	0	0	0	0	509	507	0	0	
1	0	0	0	0	509	507	0	0	
2	0	0	0	0	509	508	0	0	
3	0	0	0	0	508	507	0	0	
4	0	0	0	0	507	507	0	0	
5	0	0	0	0	506	509	0	0	
6	0	0	0	0	506	509	0	0	
7	0	0	0	0	508	508	0	0	
8	0	0	0	0	509	508	0	0	
9	0	0	0	0	511	509	0	0	
10	0	0	0	0	514	510	0	0	
11	0	0	0	0	513	509	0	0	
12	0	0	0	0	511	508	0	0	
13	0	0	0	0	514	511	0	0	
14	0	0	0	0	512	510	0	0	
15	0	0	0	0	512	510	0	0	
0	0	0	0	0	512	507	0	0	
1	0	0	0	0	512	509	0	0	
2	0	0	0	0	513	509	0	0	
3	0	0	0	0	511	506	0	0	
4	0	0	0	0	510	509	0	0	
5	0	0	0	0	510	506	0	0	
6	0	0	0	0	512	506	0	0	
7	0	0	0	0	510	506	0	0	
8	0	0	0	0	507	505	0	0	
9	0	0	0	0	507	508	0	0	
10	0	0	0	0	508	506	0	0	
11	0	0	0	0	509	507	0	0	
12	0	0	0	0	512	509	0	0	
13	0	0	0	0	512	507	0	0	
14	0	0	0	0	515	510	0	0	
15	0	0	0	0	516	508	0	0	
0	0	0	0	0	515	508	0	0	
1	0	0	0	0	511	508	0	0	
2	0	0	0	0	510	509	0	0	
3	0	0	0	0	509	508	0	0	
4	0	0	0	0	510	511	0	0	
5	0	0	0	0	509	510	0	0	
6	0	0	0	0	511	508	0	0	
7	0	0	0	0	509	505	0	0	
8	0	0	0	0	509	505	0	0	
9	0	0	0	0	509	508	0	0	
10	0	0	0	0	509	507	0	0	
11	0	0	0	0	508	507	0	0	
12	0	0	0	0	507	508	0	0	
13	0	0	0	0	507	507	0	0	
14	0	0	0	0	506	507	0	0	
15	0	0	0	0	511	508	0	0	
0	0	0	0	0	514	508	0	0	
1	0	0	0	0	518	506	0	0	
2	0	0	0	0	517	504	0	0	
3	0	0	0	0	519	506	0	0	
4	0	0	0	0	517	507	0	0	
5	0	0	0	0	515	508	0	0	
6	0	0	0	0	512	510	0	0	
7	0	0	0	0	513	507	0	0	
8	0	0	0	0	512	508	0	0	
9	0	0	0	0	512	507	0	0	
10	0	0	0	0	510	508	0	0	
11	0	0	0	0	509	511	0	0	
12	0	0	0	0	510	509	0	0	
13	0	0	0	0	507	507	0	0	
14	0	0	0	0	509	510	0	0	
15	0	0	0	0	506	506	0	0	
0	0	0	0	0	510	506	0	0	
1	0	0	0	0	510	508	0	0	
2	0	0	0	0	510	508	0	0	
3	0	0	0	0	512	508	0	0	
4	0	0	0	0	511	508	0	0	
5	0	0	0	0	512	508	0	0	
6	0	0	0	0	512	510	0	0	
7	0	0	0	0	513	509	0	0	
8	0	0	0	0	513	510	0	0	
9	0	0	0	0	513	508	0	0	
10	0	0	0	0	514	509	0	0	
11	0	0	0	0	511	509	0	0	
12	0	0	0	0	511	508	0	0	
13	0	0	0	0	512	510	0	0	
14	0	0	0	0	509	508	0	0	
15	0	0	0	0	509	507	0	0	
0	0	0	0	0	509	510	0	0	
1	0	0	0	0	509	508	0	0	
2	0	0	0	0	508	508	0	0	
3	0	0	0	0	510	506	0	0	
4	0	0	0	0	509	504	0	0	
5	0	0	0	0	510	504	0	0	
6	0	0	0	0	508	506	0	0	
7	0	0	0	0	511	508	0	0	
8	0	0	0	0	510	508	0	0	
9	0	0	0	0	511	508	0	0	
10	0	0	0	0	510	510	0	0	
11	0	0	0	0	511	508	0	0	
12	0	0	0	0	508	508	0	0	
13	0	0	0	0	512	508	0	0	
14	0	0	0	0	516	508	0	0	
15	0	0	0	0	519	510	0	0	
0	0	0	0	0	517	508	0	0	
1	0	0	0	0	514	505	0	0	
2	0	0	0	0	512	504	0	0	
3	0	0	0	0	512	504	0	0	
4	0	0	0	0	509	506	0	0	
5	0	0	0	0	509	505	0	0	
6	0	0	0	0	507	507	0	0	
7	0	0	0	0	507	508	0	0	
8	0	0	0	0	508	508	0	0	
9	0	0	0	0	509	507	0	0	
10	0	0	0	0	511	508	0	0	
11	0	0	0	0	510	510	0	0	
12	0	0	0	0	513	510	0	0	
13	0	0	0	0	512	508	0	0	
14	0	0	0	0	513	508	0	0	
15	0	0	0	0	513	508	0	0	
0	0	0	0	0	515	509	0	0	
1	0	0	0	0	512	508	0	0	
2	0	0	0	0	511	509	0	0	
3	0	0	0	0	514	508	0	0	
4	0	0	0	0	511	509	0	0	
5	0	0	0	0	512	509	0	0	
6	0	0	0	0	509	508	0	0	
7	0	0	0	0	511	506	0	0	
8	0	0	0	0	510	509	0	0	
9	0	0	0	0	508	507	0	0	
10	0	0	0	0	509	509	0	0	
11	0	0	0	0	507	508	0	0	
12	0	0	0	0	508	507	0	0	
13	0	0	0	0	511	510	0	0	
14	0	0	0	0	508	504	0	0	
15	0	0	0	0	510	505	0	0	
0	0	0	0	0	511	508	0	0	
1	0	0	0	0	512	510	0	0	
2	0	0	0	0	512	507	0	0	
3	0	0	0	0	511	508	0	0	
4	0	0	0	0	511	507	0	0	
5	0	0	0	0	512	508	0	0	
6	0	0	0	0	512	510	0	0	
7	0	0	0	0	513	509	0	0	
8	0	0	0	0	515	512	0	0	
9	0	0	0	0	516	508	0	0	
10	0	0	0	0	513	509	0	0	
11	0	0	0	0	509	511	0	0	
12	0	0	0	0	507	508	0	0	
13	0	0	0	0	508	509	0	0	
14	0	0	0	0	507	510	0	0	
15	0	0	0	0	508	506	0	0	
0	0	0	0	0	509	507	0	0	
1	0	0	0	0	511	506	0	0	
2	0	0	0	0	509	507	0	0	
3	0	0	0	0	510	507	0	0	
4	0	0	0	0	509	508	0	0	
5	0	0	0	0	510	509	0	0	
6	0	0	0	0	511	507	0	0	
7	0	0	0	0	513	511	0	0	
8	0	0	0	0	515	511	0	0	
9	0	0	0	0	513	509	0	0	
10	0	0	0	0	515	508	0	0	
11	0	0	0	0	514	508	0	0	
12	0	0	0	0	513	508	0	0	
13	0	0	0	0	514	509	0	0	
14	0	0	0	0	511	507	0	0	
15	0	0	0	0	509	508	0	0	
0	0	0	0	0	510	506	0	0	
1	0	0	0	0	508	507	0	0	
2	0	0	0	0	509	506	0	0	
3	0	0	0	0	510	507	0	0	
4	0	0	0	0	508	506	0	0	
5	0	0	0	0	511	507	0	0	
6	0	0	0	0	508	511	0	0	
7	0	0	0	0	511	508	0	0	
8	0	0	0	0	511	510	0	0	
9	0	0	0	0	512	508	0	0	
10	0	0	0	0	513	507	0	0	
11	0	0	0	0	512	509	0	0	
12	0	0	0	0	512	509	0	0	
13	0	0	0	0	513	508	0	0	
14	0	0	0	0	513	508	0	0	
15	0	0	0	0	510	509	0	0	
0	0	0	0	0	511	509	0	0	
1	0	0	0	0	510	507	0	0	
2	0	0	0	0	510	507	0	0	
3	0	0	0	0	510	507	0	0	
4	0	0	0	0	508	508	0	0	
5	0	0	0	0	509	508	0	0	
6	0	0	0	0	508	508	0	0	
7	0	0	0	0	511	506	0	0	
8	0	0	0	0	512	508	0	0	
9	0	0	0	0	511	508	0	0	
10	0	0	0	0	510	507	0	0	
11	0	0	0	0	509	508	0	0	
12	0	0	0	0	512	507	0	0	
13	0	0	0	0	514	508	0	0	
14	0	0	0	0	517	511	0	0	
15	0	0	0	0	515	510	0	0	
0	0	0	0	0	516	507	0	0	
1	0	0	0	0	512	507	0	0	
2	0	0	0	0	515	510	0	0	
3	0	0	0	0	519	508	0	0	
4	0	0	0	0	517	509	0	0	
5	0	0	0	0	513	509	0	0	
6	0	0	0	0	511	507	0	0	
7	0	0	0	0	510	506	0	0	
8	0	0	0	0	508	508	0	0	
9	0	0	0	0	510	507	0	0	
10	0	0	0	0	510	506	0	0	
11	0	0	0	0	508	505	0	0	
12	0	0	0	0	511	508	0	0	
13	0	0	0	0	507	507	0	0	
14	0	0	0	0	505	507	0	0	
15	0	0	0	0	508	508	0	0	
0	0	0	0	0	511	508	0	0	
1	0	0	0	0	513	511	0	0	
2	0	0	0	0	511	509	0	0	
3	0	0	0	0	515	509	0	0	
4	0	0	0	0	512	510	0	0	
5	0	0	0	0	511	507	0	0	
6	0	0	0	0	512	510	0	0	
7	0	0	0	0	512	509	0	0	
8	0	0	0	0	511	508	0	0	
9	0	0	0	0	511	510	0	0	
10	0	0	0	0	509	510	0	0	
11	0	0	0	0	509	508	0	0	
12	0	0	0	0	509	507	0	0	
13	0	0	0	0	507	508	0	0	
14	0	0	0	0	508	508	0	0	
15	0	0	0	0	506	508	0	0	
0	0	0	0	0	507	507	0	0	
1	0	0	0	0	509	507	0	0	
2	0	0	0	0	510	508	0	0	
3	0	0	0	0	510	508	0	0	
4	0	0	0	0	515	509	0	0	
5	0	0	0	0	511	507	0	0	
6	0	0	0	0	513	508	0	0	
7	0	0	0	0	511	509	0	0	
8	0	0	0	0	511	508	0	0	
9	0	0	0	0	513	508	0	0	
10	0	0	0	0	509	508	0	0	
11	0	0	0	0	508	509	0	0	
12	0	0	0	0	511	509	0	0	
13	0	0	0	0	512	508	0	0	
14	0	0	0	0	511	508	0	0	
15	0	0	0	0	513	507	0	0	
0	0	0	0	0	512	504	0	0	
1	0	0	0	0	510	503	0	0	
2	0	0	0	0	510	507	0	0	
3	0	0	0	0	510	507	0	0	
4	0	0	0	0	510	507	0	0	
5	0	0	0	0	511	506	0	0	
6	0	0	0	0	511	508	0	0	
7	0	0	0	0	512	509	0	0	
8	0	0	0	0	515	509	0	0	
9	0	0	0	0	515	508	0	0	
10	0	0	0	0	515	507	0	0	
11	0	0	0	0	511	511	0	0	
12	0	0	0	0	516	510	0	0	
13	0	0	0	0	512	509	0	0	
14	0	0	0	0	513	510	0	0	
15	0	0	0	0	511	511	0	0	
0	0	0	0	0	511	510	0	0	
1	0	0	0	0	512	508	0	0	
2	0	0	0	0	511	507	0	0	
3	0	0	0	0	512	507	0	0	
4	0	0	0	0	509	508	0	0	
5	0	0	0	0	507	508	0	0	
6	0	0	0	0	507	508	0	0	
7	0	0	0	0	507	508	0	0	
8	0	0	0	0	509	509	0	0	
9	0	0	0	0	507	508	0	0	
10	0	0	0	0	508	509	0	0	
11	0	0	0	0	510	508	0	0	
12	0	0	0	0	509	507	0	0	
13	0	0	0	0	510	507	0	0	
14	0	0	0	0	511	507	0	0	
15	0	0	0	0	512	507	0	0	
0	0	0	0	0	512	509	0	0	
1	0	0	0	0	514	507	0	0	
2	0	0	0	0	512	507	0	0	
3	0	0	0	0	510	511	0	0	
4	0	0	0	0	510	510	0	0	
5	0	0	0	0	511	506	0	0	
6	0	0	0	0	508	507	0	0	
7	0	0	0	0	511	506	0	0	
8	0	0	0	0	512	505	0	0	
9	0	0	0	0	514	510	0	0	
10	0	0	0	0	515	509	0	0	
11	0	0	0	0	518	505	0	0	
12	0	0	0	0	519	504	0	0	
13	0	0	0	0	512	508	0	0	
14	0	0	0	0	507	508	0	0	
15	0	0	0	0	508	509	0	0	
0	0	0	0	0	511	510	0	0	
1	0	0	0	0	508	509	0	0	
2	0	0	0	0	510	509	0	0	
3	0	0	0	0	511	509	0	0	
4	0	0	0	0	511	509	0	0	
5	0	0	0	0	512	509	0	0	
6	0	0	0	0	512	509	0	0	
7	0	0	0	0	512	508	0	0	
8	0	0	0	0	512	508	0	0	
9	0	0	0	0	513	508	0	0	
10	0	0	0	0	511	507	0	0	
11	0	0	0	0	509	509	0	0	
12	0	0	0	0	512	507	0	0	
13	0	0	0	0	511	508	0	0	
14	0	0	0	0	510	508	0	0	
15	0	0	0	0	510	506	0	0	
0	0	0	0	0	509	506	0	0	
1	0	0	0	0	508	507	0	0	
2	0	0	0	0	508	508	0	0	
3	0	0	0	0	511	509	0	0	
4	0	0	0	0	510	508	0	0	
5	0	0	0	0	512	510	0	0	
6	0	0	0	0	516	509	0	0	
7	0	0	0	0	515	507	0	0	
8	0	0	0	0	515	509	0	0	
9	0	0	0	0	515	510	0	0	
10	0	0	0	0	511	508	0	0	
11	0	0	0	0	508	510	0	0	
12	0	0	0	0	505	509	0	0	
13	0	0	0	0	509	509	0	0	
14	0	0	0	0	514	509	0	0	
15	0	0	0	0	510	508	0	0	
0	0	0	0	0	512	508	0	0	
1	0	0	0	0	511	506	0	0	
2	0	0	0	0	509	504	0	0	
3	0	0	0	0	509	504	0	0	
4	0	0	0	0	508	506	0	0	
5	0	0	0	0	509	507	0	0	
6	0	0	0	0	505	508	0	0	
7	0	0	0	0	506	508	0	0	
8	0	0	0	0	504	508	0	0	
9	0	0	0	0	506	508	0	0	
10	0	0	0	0	510	510	0	0	
11	0	0	0	0	514	508	0	0	
12	0	0	0	0	517	511	0	0	
13	0	0	0	0	516	510	0	0	
14	0	0	0	0	514	508	0	0	
15	0	0	0	0	515	508	0	0	
0	0	0	0	0	515	507	0	0	
1	0	0	0	0	510	508	0	0	
2	0	0	0	0	507	506	0	0	
3	0	0	0	0	508	507	0	0	
4	0	0	0	0	509	509	0	0	
5	0	0	0	0	508	508	0	0	
6	0	0	0	0	509	506	0	0	
7	0	0	0	0	507	505	0	0	
8	0	0	0	0	507	507	0	0	
9	0	0	0	0	504	505	0	0	
10	0	0	0	0	509	506	0	0	
11	0	0	0	0	511	506	0	0	
12	0	0	0	0	512	508	0	0	
13	0	0	0	0	511	507	0	0	
14	0	0	0	0	513	508	0	0	
15	0	0	0	0	515	509	0	0	
0	0	0	0	0	513	510	0	0	
1	0	0	0	0	515	508	0	0	
2	0	0	0	0	512	508	0	0	
3	0	0	0	0	511	508	0	0	
4	0	0	0	0	511	509	0	0	
5	0	0	0	0	511	511	0	0	
6	0	0	0	0	511	511	0	0	
7	0	0	0	0	511	508	0	0	
8	0	0	0	0	510	507	0	0	
9	0	0	0	0	510	506	0	0	
10	0	0	0	0	509	507	0	0	
11	0	0	0	0	511	506	0	0	
12	0	0	0	0	512	506	0	0	
13	0	0	0	0	509	506	0	0	
14	0	0	0	0	513	508	0	0	
15	0	0	0	0	513	507	0	0	
0	0	0	0	0	513	507	0	0	
1	0	0	0	0	514	509	0	0	
2	0	0	0	0	516	508	0	0	
3	0	0	0	0	514	508	0	0	
4	0	0	0	0	514	508	0	0	
5	0	0	0	0	513	511	0	0	
6	0	0	0	0	514	510	0	0	
7	0	0	0	0	512	509	0	0	
8	0	0	0	0	514	510	0	0	
9	0	0	0	0	513	508	0	0	
10	0	0	0	0	512	510	0	0	
11	0	0	0	0	509	508	0	0	
12	0	0	0	0	508	507	0	0	
13	0	0	0	0	507	507	0	0	
14	0	0	0	0	508	508	0	0	
15	0	0	0	0	505	506	0	0	
0	0	0	0	0	505	508	0	0	
1	0	0	0	0	508	508	0	0	
2	0	0	0	0	509	507	0	0	
3	0	0	0	0	509	507	0	0	
4	0	0	0	0	511	508	0	0	
5	0	0	0	0	508	508	0	0	
6	0	0	0	0	511	509	0	0	
7	0	0	0	0	512	507	0	0	
8	0	0	0	0	511	507	0	0	
9	0	0	0	0	511	511	0	0	
10	0	0	0	0	512	511	0	0	
11	0	0	0	0	514	509	0	0	
12	0	0	0	0	513	509	0	0	
13	0	0	0	0	511	509	0	0	
14	0	0	0	0	509	510	0	0	
15	0	0	0	0	507	508	0	0	
0	0	0	0	0	508	507	0	0	
1	0	0	0	0	508	509	0	0	
2	0	0	0	0	509	507	0	0	
3	0	0	0	0	508	508	0	0	
4	0	0	0	0	511	508	0	0	
5	0	0	0	0	512	508	0	0	
6	0	0	0	0	513	508	0	0	
7	0	0	0	0	512	506	0	0	
8	0	0	0	0	512	507	0	0	
9	0	0	0	0	514	510	0	0	
10	0	0	0	0	514	510	0	0	
11	0	0	0	0	512	510	0	0	
12	0	0	0	0	509	510	0	0	
13	0	0	0	0	512	508	0	0	
14	0	0	0	0	511	509	0	0	
15	0	0	0	0	511	508	0	0	
0	0	0	0	0	511	510	0	0	
1	0	0	0	0	511	508	0	0	
2	0	0	0	0	511	507	0	0	
3	0	0	0	0	510	506	0	0	
4	0	0	0	0	508	506	0	0	
5	0	0	0	0	505	508	0	0	
6	0	0	0	0	509	506	0	0	
7	0	0	0	0	509	507	0	0	
8	0	0	0	0	509	507	0	0	
9	0	0	0	0	513	507	0	0	
10	0	0	0	0	513	505	0	0	
11	0	0	0	0	513	508	0	0	
12	0	0	0	0	510	505	0	0	
13	0	0	0	0	508	507	0	0	
14	0	0	0	0	508	510	0	0	
15	0	0	0	0	511	510	0	0	
0	0	0	0	0	513	510	0	0	
1	0	0	0	0	513	508	0	0	
2	0	0	0	0	513	507	0	0	
3	0	0	0	0	515	508	0	0	
4	0	0	0	0	513	510	0	0	
5	0	0	0	0	514	510	0	0	
6	0	0	0	0	511	508	0	0	
7	0	0	0	0	511	507	0	0	
8	0	0	0	0	511	508	0	0	
9	0	0	0	0	508	510	0	0	
10	0	0	0	0	509	509	0	0	
11	0	0	0	0	509	505	0	0	
12	0	0	0	0	509	506	0	0	
13	0	0	0	0	509	508	0	0	
14	0	0	0	0	512	506	0	0	
15	0	0	0	0	513	508	0	0	
0	0	0	0	0	512	508	0	0	
1	0	0	0	0	513	509	0	0	
2	0	0	0	0	514	507	0	0	
3	0	0	0	0	515	509	0	0	
4	0	0	0	0	515	508	0	0	
5	0	0	0	0	514	508	0	0	
6	0	0	0	0	515	510	0	0	
7	0	0	0	0	516	507	0	0	
8	0	0	0	0	514	507	0	0	
9	0	0	0	0	513	508	0	0	
10	0	0	0	0	512	507	0	0	
11	0	0	0	0	511	509	0	0	
12	0	0	0	0	509	508	0	0	
13	0	0	0	0	508	505	0	0	
14	0	0	0	0	512	507	0	0	
15	0	0	0	0	511	508	0	0	
0	0	0	0	0	508	505	0	0	
1	0	0	0	0	508	510	0	0	
2	0	0	0	0	508	507	0	0	
3	0	0	0	0	508	508	0	0	
4	0	0	0	0	508	507	0	0	
5	0	0	0	0	509	509	0	0	
6	0	0	0	0	512	507	0	0	
7	0	0	0	0	511	509	0	0	
8	0	0	0	0	513	508	0	0	
9	0	0	0	0	512	508	0	0	
10	0	0	0	0	511	510	0	0	
11	0	0	0	0	511	507	0	0	
12	0	0	0	0	511	507	0	0	
13	0	0	0	0	514	507	0	0	
14	0	0	0	0	510	507	0	0	
15	0	0	0	0	509	505	0	0	
0	0	0	0	0	507	505	0	0	
1	0	0	0	0	507	506	0	0	
2	0	0	0	0	508	507	0	0	
3	0	0	0	0	507	507	0	0	
4	0	0	0	0	507	507	0	0	
5	0	0	0	0	511	510	0	0	
6	0	0	0	0	509	508	0	0	
7	0	0	0	0	510	508	0	0	
8	0	0	0	0	509	509	0	0	
9	0	0	0	0	510	508	0	0	
10	0	0	0	0	512	510	0	0	
11	0	0	0	0	513	511	0	0	
12	0	0	0	0	513	509	0	0	
13	0	0	0	0	514	508	0	0	
14	0	0	0	0	513	509	0	0	
15	0	0	0	0	515	507	0	0	
0	0	0	0	0	513	507	0	0	
1	0	0	0	0	510	507	0	0	
2	0	0	0	0	511	508	0	0	
3	0	0	0	0	512	508	0	0	
4	0	0	0	0	515	507	0	0	
5	0	0	0	0	512	507	0	0	
6	0	0	0	0	511	506	0	0	
7	0	0	0	0	509	504	0	0	
8	0	0	0	0	510	508	0	0	
9	0	0	0	0	515	505	0	0	
10	0	0	0	0	511	507	0	0	
11	0	0	0	0	511	506	0	0	
12	0	0	0	0	513	507	0	0	
13	0	0	0	0	511	508	0	0	
14	0	0	0	0	510	508	0	0	
15	0	0	0	0	511	509	0	0	
0	0	0	0	0	513	510	0	0	
1	0	0	0	0	513	510	0	0	
2	0	0	0	0	515	511	0	0	
3	0	0	0	0	516	511	0	0	
4	0	0	0	0	513	507	0	0	
5	0	0	0	0	512	507	0	0	
6	0	0	0	0	512	506	0	0	
7	0	0	0	0	508	506	0	0	
8	0	0	0	0	508	507	0	0	
9	0	0	0	0	507	508	0	0	
10	0	0	0	0	509	507	0	0	
11	0	0	0	0	508	508	0	0	
12	0	0	0	0	510	507	0	0	
13	0	0	0	0	509	508	0	0	
14	0	0	0	0	511	508	0	0	
15	0	0	0	0	511	509	0	0	
0	0	0	0	0	510	508	0	0	
1	0	0	0	0	511	508	0	0	
2	0	0	0	0	511	511	0	0	
3	0	0	0	0	511	510	0	0	
4	0	0	0	0	512	509	0	0	
5	0	0	0	0	512	510	0	0	
6	0	0	0	0	513	512	0	0	
7	0	0	0	0	513	510	0	0	
8	0	0	0	0	513	512	0	0	
9	0	0	0	0	512	507	0	0	
10	0	0	0	0	512	508	0	0	
11	0	0	0	0	507	506	0	0	
12	0	0	0	0	509	504	0	0	
13	0	0	0	0	512	507	0	0	
14	0	0	0	0	510	505	0	0	
15	0	0	0	0	508	504	0	0	
0	0	0	0	0	510	508	0	0	
1	0	0	0	0	510	506	0	0	
2	0	0	0	0	508	506	0	0	
3	0	0	0	0	511	508	0	0	
4	0	0	0	0	512	508	0	0	
5	0	0	0	0	509	509	0	0	
6	0	0	0	0	511	508	0	0	
7	0	0	0	0	511	508	0	0	
8	0	0	0	0	510	510	0	0	
9	0	0	0	0	510	506	0	0	
10	0	0	0	0	510	509	0	0	
11	0	0	0	0	510	508	0	0	
12	0	0	0	0	512	508	0	0	
13	0	0	0	0	515	510	0	0	
14	0	0	0	0	510	510	0	0	
15	0	0	0	0	513	506	0	0	
0	0	0	0	0	511	507	0	0	
1	0	0	0	0	508	505	0	0	
2	0	0	0	0	508	507	0	0	
3	0	0	0	0	505	508	0	0	
4	0	0	0	0	505	508	0	0	
5	0	0	0	0	507	508	0	0	
6	0	0	0	0	510	508	0	0	
7	0	0	0	0	511	508	0	0	
8	0	0	0	0	511	508	0	0	
9	0	0	0	0	512	509	0	0	
10	0	0	0	0	513	510	0	0	
11	0	0	0	0	514	510	0	0	
12	0	0	0	0	513	509	0	0	
13	0	0	0	0	512	510	0	0	
14	0	0	0	0	512	510	0	0	
15	0	0	0	0	513	508	0	0	
0	0	0	0	0	513	510	0	0	
1	0	0	0	0	515	510	0	0	
2	0	0	0	0	516	507	0	0	
3	0	0	0	0	511	507	0	0	
4	0	0	0	0	511	507	0	0	
5	0	0	0	0	511	506	0	0	
6	0	0	0	0	510	506	0	0	
7	0	0	0	0	511	507	0	0	
8	0	0	0	0	511	507	0	0	
9	0	0	0	0	511	507	0	0	
10	0	0	0	0	509	506	0	0	
11	0	0	0	0	509	509	0	0	
12	0	0	0	0	510	508	0	0	
13	0	0	0	0	513	508	0	0	
14	0	0	0	0	512	509	0	0	
15	0	0	0	0	512	508	0	0	
0	0	0	0	0	513	511	0	0	
1	0	0	0	0	515	511	0	0	
2	0	0	0	0	513	509	0	0	
3	0	0	0	0	512	507	0	0	
4	0	0	0	0	511	508	0	0	
5	0	0	0	0	512	508	0	0	
6	0	0	0	0	510	505	0	0	
7	0	0	0	0	511	506	0	0	
8	0	0	0	0	510	508	0	0	
9	0	0	0	0	507	507	0	0	
10	0	0	0	0	506	509	0	0	
11	0	0	0	0	511	506	0	0	
12	0	0	0	0	508	509	0	0	
13	0	0	0	0	509	508	0	0	
14	0	0	0	0	509	508	0	0	
15	0	0	0	0	507	510	0	0	
0	0	0	0	0	511	507	0	0	
1	0	0	0	0	511	507	0	0	
2	0	0	0	0	513	508	0	0	
3	0	0	0	0	512	510	0	0	
4	0	0	0	0	513	510	0	0	
5	0	0	0	0	513	508	0	0	
6	0	0	0	0	511	507	0	0	
7	0	0	0	0	512	509	0	0	
8	0	0	0	0	511	509	0	0	
9	0	0	0	0	512	506	0	0	
10	0	0	0	0	511	505	0	0	
11	0	0	0	0	511	507	0	0	
12	0	0	0	0	513	508	0	0	
13	0	0	0	0	508	508	0	0	
14	0	0	0	0	510	507	0	0	
15	0	0	0	0	506	508	0	0	
0	0	0	0	0	507	507	0	0	
1	0	0	0	0	508	509	0	0	
2	0	0	0	0	509	508	0	0	
3	0	0	0	0	512	508	0	0	
4	0	0	0	0	513	507	0	0	
5	0	0	0	0	512	508	0	0	
6	0	0	0	0	513	508	0	0	
7	0	0	0	0	517	508	0	0	
8	0	0	0	0	512	510	0	0	
9	0	0	0	0	510	510	0	0	
10	0	0	0	0	511	512	0	0	
11	0	0	0	0	511	509	0	0	
12	0	0	0	0	512	510	0	0	
13	0	0	0	0	511	508	0	0	
14	0	0	0	0	509	506	0	0	
15	0	0	0	0	508	508	0	0	
0	0	0	0	0	510	508	0	0	
1	0	0	0	0	508	506	0	0	
2	0	0	0	0	510	508	0	0	
3	0	0	0	0	508	507	0	0	
4	0	0	0	0	510	504	0	0	
5	0	0	0	0	509	507	0	0	
6	0	0	0	0	508	505	0	0	
7	0	0	0	0	509	510	0	0	
8	0	0	0	0	507	510	0	0	
9	0	0	0	0	508	512	0	0	
10	0	0	0	0	512	510	0	0	
11	0	0	0	0	510	508	0	0	
12	0	0	0	0	513	508	0	0	
13	0	0	0	0	514	508	0	0	
14	0	0	0	0	512	508	0	0	
15	0	0	0	0	516	507	0	0	
0	0	0	0	0	514	508	0	0	
1	0	0	0	0	513	509	0	0	
2	0	0	0	0	511	507	0	0	
3	0	0	0	0	511	508	0	0	
4	0	0	0	0	509	505	0	0	
5	0	0	0	0	509	505	0	0	
6	0	0	0	0	511	507	0	0	
7	0	0	0	0	513	506	0	0	
8	0	0	0	0	513	507	0	0	
9	0	0	0	0	512	507	0	0	
10	0	0	0	0	511	508	0	0	
11	0	0	0	0	509	508	0	0	
12	0	0	0	0	511	508	0	0	
13	0	0	0	0	515	509	0	0	
14	0	0	0	0	511	509	0	0	
15	0	0	0	0	514	510	0	0	
0	0	0	0	0	513	509	0	0	
1	0	0	0	0	512	508	0	0	
2	0	0	0	0	512	509	0	0	
3	0	0	0	0	512	509	0	0	
4	0	0	0	0	514	511	0	0	
5	0	0	0	0	511	510	0	0	
6	0	0	0	0	510	506	0	0	
7	0	0	0	0	511	508	0	0	
8	0	0	0	0	510	507	0	0	
9	0	0	0	0	508	508	0	0	
10	0	0	0	0	508	506	0	0	
11	0	0	0	0	508	507	0	0	
12	0	0	0	0	508	507	0	0	
13	0	0	0	0	509	509	0	0	
14	0	0	0	0	511	507	0	0	
15	0	0	0	0	510	507	0	0	
0	0	0	0	0	510	507	0	0	
1	0	0	0	0	511	510	0	0	
2	0	0	0	0	511	509	0	0	
3	0	0	0	0	511	508	0	0	
4	0	0	0	0	512	509	0	0	
5	0	0	0	0	512	508	0	0	
6	0	0	0	0	514	509	0	0	
7	0	0	0	0	513	508	0	0	
8	0	0	0	0	512	507	0	0	
9	0	0	0	0	512	508	0	0	
10	0	0	0	0	511	510	0	0	
11	0	0	0	0	508	508	0	0	
12	0	0	0	0	508	507	0	0	
13	0	0	0	0	507	507	0	0	
14	0	0	0	0	510	508	0	0	
15	0	0	0	0	508	507	0	0	
0	0	0	0	0	506	508	0	0	
1	0	0	0	0	506	507	0	0	
2	0	0	0	0	506	508	0	0	
3	0	0	0	0	507	509	0	0	
4	0	0	0	0	508	510	0	0	
5	0	0	0	0	511	509	0	0	
6	0	0	0	0	512	507	0	0	
7	0	0	0	0	511	508	0	0	
8	0	0	0	0	512	510	0	0	
9	0	0	0	0	515	508	0	0	
10	0	0	0	0	516	509	0	0	
11	0	0	0	0	510	510	0	0	
12	0	0	0	0	508	511	0	0	
13	0	0	0	0	507	508	0	0	
14	0	0	0	0	508	507	0	0	
15	0	0	0	0	512	508	0	0	
0	0	0	0	0	518	511	0	0	
1	0	0	0	0	517	507	0	0	
2	0	0	0	0	514	505	0	0	
3	0	0	0	0	513	504	0	0	
4	0	0	0	0	512	504	0	0	
5	0	0	0	0	510	507	0	0	
6	0	0	0	0	507	508	0	0	
7	0	0	0	0	508	508	0	0	
8	0	0	0	0	511	508	0	0	
9	0	0	0	0	510	509	0	0	
10	0	0	0	0	511	509	0	0	
11	0	0	0	0	510	507	0	0	
12	0	0	0	0	510	510	0	0	
13	0	0	0	0	511	509	0	0	
14	0	0	0	0	511	509	0	0	
15	0	0	0	0	512	508	0	0	
0	0	0	0	0	512	508	0	0	
1	0	0	0	0	513	508	0	0	
2	0	0	0	0	513	508	0	0	
3	0	0	0	0	512	507	0	0	
4	0	0	0	0	511	507	0	0	
5	0	0	0	0	510	507	0	0	
6	0	0	0	0	509	507	0	0	
7	0	0	0	0	508	509	0	0	
8	0	0	0	0	510	507	0	0	
9	0	0	0	0	510	507	0	0	
10	0	0	0	0	513	507	0	0	
11	0	0	0	0	511	510	0	0	
12	0	0	0	0	512	510	0	0	
13	0	0	0	0	512	511	0	0	
14	0	0	0	0	511	510	0	0	
15	0	0	0	0	513	508	0	0	
0	0	0	0	0	515	508	0	0	
1	0	0	0	0	512	507	0	0	
2	0	0	0	0	515	507	0	0	
3	0	0	0	0	515	507	0	0	
4	0	0	0	0	514	509	0	0	
5	0	0	0	0	511	509	0	0	
6	0	0	0	0	510	509	0	0	
7	0	0	0	0	510	509	0	0	
8	0	0	0	0	511	508	0	0	
9	0	0	0	0	510	507	0	0	
10	0	0	0	0	510	505	0	0	
11	0	0	0	0	507	506	0	0	
12	0	0	0	0	509	504	0	0	
13	0	0	0	0	509	505	0	0	
14	0	0	0	0	509	507	0	0	
15	0	0	0	0	509	508	0	0	
0	0	0	0	0	510	511	0	0	
1	0	0	0	0	512	511	0	0	
2	0	0	0	0	513	511	0	0	
3	0	0	0	0	513	511	0	0	
4	0	0	0	0	514	509	0	0	
5	0	0	0	0	512	508	0	0	
6	0	0	0	0	513	508	0	0	
7	0	0	0	0	512	508	0	0	
8	0	0	0	0	511	510	0	0	
9	0	0	0	0	514	505	0	0	
10	0	0	0	0	510	506	0	0	
11	0	0	0	0	508	507	0	0	
12	0	0	0	0	509	506	0	0	
13	0	0	0	0	511	505	0	0	
14	0	0	0	0	509	506	0	0	
15	0	0	0	0	509	506	0	0	
0	0	0	0	0	508	507	0	0	
1	0	0	0	0	507	510	0	0	
2	0	0	0	0	507	506	0	0	
3	0	0	0	0	509	508	0	0	
4	0	0	0	0	510	506	0	0	
5	0	0	0	0	512	509	0	0	
6	0	0	0	0	511	508	0	0	
7	0	0	0	0	511	508	0	0	
8	0	0	0	0	513	509	0	0	
9	0	0	0	0	514	508	0	0	
10	0	0	0	0	511	509	0	0	
11	0	0	0	0	510	509	0	0	
12	0	0	0	0	511	510	0	0	
13	0	0	0	0	514	509	0	0	
14	0	0	0	0	513	508	0	0	
15	0	0	0	0	514	508	0	0	
0	0	0	0	0	512	508	0	0	
1	0	0	0	0	512	505	0	0	
2	0	0	0	0	513	507	0	0	
3	0	0	0	0	512	506	0	0	
4	0	0	0	0	511	507	0	0	
5	0	0	0	0	511	507	0	0	
6	0	0	0	0	510	508	0	0	
7	0	0	0	0	512	511	0	0	
8	0	0	0	0	511	510	0	0	
9	0	0	0	0	511	507	0	0	
10	0	0	0	0	512	508	0	0	
11	0	0	0	0	515	508	0	0	
12	0	0	0	0	515	508	0	0	
13	0	0	0	0	514	509	0	0	
14	0	0	0	0	514	509	0	0	
15	0	0	0	0	514	507	0	0	
0	0	0	0	0	512	508	0	0	
1	0	0	0	0	511	508	0	0	
2	0	0	0	0	509	509	0	0	
3	0	0	0	0	509	508	0	0	
4	0	0	0	0	508	506	0	0	
5	0	0	0	0	509	507	0	0	
6	0	0	0	0	510	507	0	0	
7	0	0	0	0	508	507	0	0	
8	0	0	0	0	509	508	0	0	
9	0	0	0	0	510	506	0	0	
10	0	0	0	0	510	507	0	0	
11	0	0	0	0	508	508	0	0	
12	0	0	0	0	511	511	0	0	
13	0	0	0	0	510	513	0	0	
14	0	0	0	0	510	510	0	0	
15	0	0	0	0	512	510	0	0	
0	0	0	0	0	512	510	0	0	
1	0	0	0	0	513	510	0	0	
2	0	0	0	0	513	509	0	0	
3	0	0	0	0	515	507	0	0	
4	0	0	0	0	514	506	0	0	
5	0	0	0	0	512	508	0	0	
6	0	0	0	0	509	510	0	0	
7	0	0	0	0	511	508	0	0	
8	0	0	0	0	512	508	0	0	
9	0	0	0	0	510	507	0	0	
10	0	0	0	0	511	507	0	0	
11	0	0	0	0	511	506	0	0	
12	0	0	0	0	508	505	0	0	
13	0	0	0	0	507	507	0	0	
14	0	0	0	0	509	507	0	0	
15	0	0	0	0	506	508	0	0	
0	0	0	0	0	506	509	0	0	
1	0	0	0	0	509	506	0	0	
2	0	0	0	0	513	508	0	0	
3	0	0	0	0	517	509	0	0	
4	0	0	0	0	520	509	0	0	
5	0	0	0	0	518	508	0	0	
6	0	0	0	0	513	509	0	0	
7	0	0	0	0	509	508	0	0	
8	0	0	0	0	511	507	0	0	
9	0	0	0	0	512	509	0	0	
10	0	0	0	0	513	510	0	0	
11	0	0	0	0	515	507	0	0	
12	0	0	0	0	515	507	0	0	
13	0	0	0	0	510	507	0	0	
14	0	0	0	0	510	508	0	0	
15	0	0	0	0	507	508	0	0	
0	0	0	0	0	510	509	0	0	
1	0	0	0	0	507	511	0	0	
2	0	0	0	0	510	508	0	0	
3	0	0	0	0	510	508	0	0	
4	0	0	0	0	508	508	0	0	
5	0	0	0	0	511	510	0	0	
6	0	0	0	0	509	507	0	0	
7	0	0	0	0	509	510	0	0	
8	0	0	0	0	509	509	0	0	
9	0	0	0	0	511	508	0	0	
10	0	0	0	0	512	510	0	0	
11	0	0	0	0	512	509	0	0	
12	0	0	0	0	513	510	0	0	
13	0	0	0	0	514	508	0	0	
14	0	0	0	0	511	508	0	0	
15	0	0	0	0	511	506	0	0	
0	0	0	0	0	512	506	0	0	
1	0	0	0	0	509	505	0	0	
2	0	0	0	0	508	507	0	0	
3	0	0	0	0	510	505	0	0	
4	0	0	0	0	509	506	0	0	
5	0	0	0	0	509	505	0	0	
6	0	0	0	0	509	505	0	0	
7	0	0	0	0	511	507	0	0	
8	0	0	0	0	511	507	0	0	
9	0	0	0	0	510	508	0	0	
10	0	0	0	0	512	510	0	0	
11	0	0	0	0	512	507	0	0	
12	0	0	0	0	513	510	0	0	
13	0	0	0	0	514	508	0	0	
14	0	0	0	0	511	511	0	0	
15	0	0	0	0	512	508	0	0	
0	0	0	0	0	513	508	0	0	
1	0	0	0	0	511	507	0	0	
2	0	0	0	0	511	511	0	0	
3	0	0	0	0	510	507	0	0	
4	0	0	0	0	511	506	0	0	
5	0	0	0	0	508	507	0	0	
6	0	0	0	0	510	508	0	0	
7	0	0	0	0	511	507	0	0	
8	0	0	0	0	511	507	0	0	
9	0	0	0	0	511	508	0	0	
10	0	0	0	0	510	507	0	0	
11	0	0	0	0	510	509	0	0	
12	0	0	0	0	512	508	0	0	
13	0	0	0	0	512	509	0	0	
14	0	0	0	0	515	510	0	0	
15	0	0	0	0	518	508	0	0	
0	0	0	0	0	513	511	0	0	
1	0	0	0	0	511	508	0	0	
2	0	0	0	0	511	508	0	0	
3	0	0	0	0	508	510	0	0	
4	0	0	0	0	510	510	0	0	
5	0	0	0	0	509	511	0	0	
6	0	0	0	0	509	508	0	0	
7	0	0	0	0	512	505	0	0	
8	0	0	0	0	510	505	0	0	
9	0	0	0	0	509	507	0	0	
10	0	0	0	0	513	506	0	0	
11	0	0	0	0	516	506	0	0	
12	0	0	0	0	515	506	0	0	
13	0	0	0	0	512	508	0	0	
14	0	0	0	0	512	507	0	0	
15	0	0	0	0	509	507	0	0	
0	0	0	0	0	508	508	0	0	
1	0	0	0	0	508	508	0	0	
2	0	0	0	0	509	508	0	0	
3	0	0	0	0	508	509	0	0	
4	0	0	0	0	510	508	0	0	
5	0	0	0	0	510	513	0	0	
6	0	0	0	0	511	509	0	0	
7	0	0	0	0	510	509	0	0	
8	0	0	0	0	511	509	0	0	
9	0	0	0	0	510	507	0	0	
10	0	0	0	0	509	507	0	0	
11	0	0	0	0	513	508	0	0	
12	0	0	0	0	511	507	0	0	
13	0	0	0	0	508	508	0	0	
14	0	0	0	0	509	508	0	0	
15	0	0	0	0	508	507	0	0	
0	0	0	0	0	509	509	0	0	
1	0	0	0	0	511	508	0	0	
2	0	0	0	0	511	506	0	0	
3	0	0	0	0	511	507	0	0	
4	0	0	0	0	512	507	0	0	
5	0	0	0	0	513	509	0	0	
6	0	0	0	0	513	510	0	0	
7	0	0	0	0	511	509	0	0	
8	0	0	0	0	513	508	0	0	
9	0	0	0	0	512	508	0	0	
10	0	0	0	0	511	508	0	0	
11	0	0	0	0	512	507	0	0	
12	0	0	0	0	510	507	0	0	
13	0	0	0	0	511	508	0	0	
14	0	0	0	0	511	509	0	0	
15	0	0	0	0	510	507	0	0	
0	0	0	0	0	514	508	0	0	
1	0	0	0	0	514	506	0	0	
2	0	0	0	0	512	506	0	0	
3	0	0	0	0	507	505	0	0	
4	0	0	0	0	508	507	0	0	
5	0	0	0	0	509	509	0	0	
6	0	0	0	0	511	506	0	0	
7	0	0	0	0	512	507	0	0	
8	0	0	0	0	511	507	0	0	
9	0	0	0	0	514	507	0	0	
10	0	0	0	0	517	508	0	0	
11	0	0	0	0	519	506	0	0	
12	0	0	0	0	515	510	0	0	
13	0	0	0	0	515	509	0	0	
14	0	0	0	0	517	508	0	0	
15	0	0	0	0	513	511	0	0	
0	0	0	0	0	512	510	0	0	
1	0	0	0	0	511	510	0	0	
2	0	0	0	0	511	510	0	0	
3	0	0	0	0	510	507	0	0	
4	0	0	0	0	507	508	0	0	
5	0	0	0	0	506	507	0	0	
6	0	0	0	0	504	508	0	0	
7	0	0	0	0	506	509	0	0	
8	0	0	0	0	505	509	0	0	
9	0	0	0	0	508	508	0	0	
10	0	0	0	0	506	510	0	0	
11	0	0	0	0	510	509	0	0	
12	0	0	0	0	512	511	0	0	
13	0	0	0	0	515	510	0	0	
14	0	0	0	0	512	510	0	0	
15	0	0	0	0	510	511	0	0	
0	0	0	0	0	509	509	0	0	
1	0	0	0	0	511	508	0	0	
2	0	0	0	0	513	508	0	0	
3	0	0	0	0	510	509	0	0	
4	0	0	0	0	511	507	0	0	
5	0	0	0	0	512	510	0	0	
6	0	0	0	0	512	508	0	0	
7	0	0	0	0	510	506	0	0	
8	0	0	0	0	511	505	0	0	
9	0	0	0	0	512	506	0	0	
10	0	0	0	0	508	505	0	0	
11	0	0	0	0	511	504	0	0	
12	0	0	0	0	511	505	0	0	
13	0	0	0	0	510	505	0	0	
14	0	0	0	0	511	505	0	0	
15	0	0	0	0	510	507	0	0	
0	0	0	0	0	511	509	0	0	
1	0	0	0	0	511	507	0	0	
2	0	0	0	0	511	509	0	0	
3	0	0	0	0	513	508	0	0	
4	0	0	0	0	515	507	0	0	
5	0	0	0	0	514	509	0	0	
6	0	0	0	0	514	508	0	0	
7	0	0	0	0	512	508	0	0	
8	0	0	0	0	513	509	0	0	
9	0	0	0	0	515	510	0	0	
10	0	0	0	0	511	511	0	0	
11	0	0	0	0	510	509	0	0	
12	0	0	0	0	509	507	0	0	
13	0	0	0	0	509	507	0	0	
14	0	0	0	0	508	507	0	0	
15	0	0	0	0	508	508	0	0	
0	0	0	0	0	510	509	0	0	
1	0	0	0	0	508	507	0	0	
2	0	0	0	0	507	507	0	0	
3	0	0	0	0	508	508	0	0	
4	0	0	0	0	509	509	0	0	
5	0	0	0	0	511	509	0	0	
6	0	0	0	0	511	508	0	0	
7	0	0	0	0	511	509	0	0	
8	0	0	0	0	512	510	0	0	
9	0	0	0	0	513	509	0	0	
10	0	0	0	0	515	508	0	0	
11	0	0	0	0	513	509	0	0	
12	0	0	0	0	512	507	0	0	
13	0	0	0	0	511	508	0	0	
14	0	0	0	0	512	507	0	0	
15	0	0	0	0	511	507	0	0	
0	0	0	0	0	511	508	0	0	
1	0	0	0	0	510	505	0	0	
2	0	0	0	0	512	506	0	0	
3	0	0	0	0	511	507	0	0	
4	0	0	0	0	510	507	0	0	
5	0	0	0	0	512	507	0	0	
6	0	0	0	0	510	507	0	0	
7	0	0	0	0	508	508	0	0	
8	0	0	0	0	507	510	0	0	
9	0	0	0	0	510	509	0	0	
10	0	0	0	0	512	510	0	0	
11	0	0	0	0	516	510	0	0	
12	0	0	0	0	517	510	0	0	
13	0	0	0	0	519	509	0	0	
14	0	0	0	0	519	508	0	0	
15	0	0	0	0	519	510	0	0	
0	0	0	0	0	513	510	0	0	
1	0	0	0	0	511	507	0	0	
2	0	0	0	0	511	504	0	0	
3	0	0	0	0	509	506	0	0	
4	0	0	0	0	507	508	0	0	
5	0	0	0	0	508	507	0	0	
6	0	0	0	0	509	507	0	0	
7	0	0	0	0	509	507	0	0	
8	0	0	0	0	508	506	0	0	
9	0	0	0	0	509	505	0	0	
10	0	0	0	0	508	508	0	0	
11	0	0	0	0	505	508	0	0	
12	0	0	0	0	510	511	0	0	
13	0	0	0	0	512	511	0	0	
14	0	0	0	0	513	509	0	0	
15	0	0	0	0	514	509	0	0	
0	0	0	0	0	513	509	0	0	
1	0	0	0	0	513	506	0	0	
2	0	0	0	0	512	508	0	0	
3	0	0	0	0	511	507	0	0	
4	0	0	0	0	512	508	0	0	
5	0	0	0	0	514	509	0	0	
6	0	0	0	0	512	508	0	0	
7	0	0	0	0	513	507	0	0	
8	0	0	0	0	513	509	0	0	
9	0	0	0	0	510	504	0	0	
10	0	0	0	0	511	508	0	0	
11	0	0	0	0	511	508	0	0	
12	0	0	0	0	510	507	0	0	
13	0	0	0	0	511	507	0	0	
14	0	0	0	0	511	509	0	0	
15	0	0	0	0	510	508	0	0	
0	0	0	0	0	511	508	0	0	
1	0	0	0	0	511	511	0	0	
2	0	0	0	0	511	510	0	0	
3	0	0	0	0	512	510	0	0	
4	0	0	0	0	511	507	0	0	
5	0	0	0	0	512	509	0	0	
6	0	0	0	0	513	508	0	0	
7	0	0	0	0	511	508	0	0	
8	0	0	0	0	511	507	0	0	
9	0	0	0	0	512	508	0	0	
10	0	0	0	0	512	507	0	0	
11	0	0	0	0	510	507	0	0	
12	0	0	0	0	509	508	0	0	
13	0	0	0	0	507	508	0	0	
14	0	0	0	0	505	509	0	0	
15	0	0	0	0	507	508	0	0	
0	0	0	0	0	508	510	0	0	
1	0	0	0	0	512	509	0	0	
2	0	0	0	0	511	507	0	0	
3	0	0	0	0	511	508	0	0	
4	0	0	0	0	511	508	0	0	
5	0	0	0	0	512	510	0	0	
6	0	0	0	0	512	509	0	0	
7	0	0	0	0	513	508	0	0	
8	0	0	0	0	513	507	0	0	
9	0	0	0	0	515	509	0	0	
10	0	0	0	0	513	509	0	0	
11	0	0	0	0	512	508	0	0	
12	0	0	0	0	512	507	0	0	
13	0	0	0	0	511	508	0	0	
14	0	0	0	0	511	508	0	0	
15	0	0	0	0	509	506	0	0	
0	0	0	0	0	507	506	0	0	
1	0	0	0	0	505	506	0	0	
2	0	0	0	0	505	505	0	0	
3	0	0	0	0	510	505	0	0	
4	0	0	0	0	510	503	0	0	
5	0	0	0	0	512	507	0	0	
6	0	0	0	0	511	505	0	0	
7	0	0	0	0	509	508	0	0	
8	0	0	0	0	508	508	0	0	
9	0	0	0	0	510	510	0	0	
10	0	0	0	0	512	508	0	0	
11	0	0	0	0	511	509	0	0	
12	0	0	0	0	514	511	0	0	
13	0	0	0	0	511	511	0	0	
14	0	0	0	0	514	508	0	0	
15	0	0	0	0	514	509	0	0	
0	0	0	0	0	515	508	0	0	
1	0	0	0	0	511	507	0	0	
2	0	0	0	0	509	508	0	0	
3	0	0	0	0	508	508	0	0	
4	0	0	0	0	509	508	0	0	
5	0	0	0	0	507	509	0	0	
6	0	0	0	0	508	508	0	0	
7	0	0	0	0	510	507	0	0	
8	0	0	0	0	507	510	0	0	
9	0	0	0	0	507	510	0	0	
10	0	0	0	0	505	510	0	0	
11	0	0	0	0	509	507	0	0	
12	0	0	0	0	511	509	0	0	
13	0	0	0	0	511	508	0	0	
14	0	0	0	0	513	507	0	0	
15	0	0	0	0	513	506	0	0	
0	0	0	0	0	513	505	0	0	
1	0	0	0	0	516	507	0	0	
2	0	0	0	0	515	510	0	0	
3	0	0	0	0	513	509	0	0	
4	0	0	0	0	513	509	0	0	
5	0	0	0	0	512	510	0	0	
6	0	0	0	0	509	506	0	0	
7	0	0	0	0	512	506	0	0	
8	0	0	0	0	511	509	0	0	
9	0	0	0	0	508	507	0	0	
10	0	0	0	0	508	508	0	0	
11	0	0	0	0	509	508	0	0	
12	0	0	0	0	509	511	0	0	
13	0	0	0	0	510	508	0	0	
14	0	0	0	0	510	507	0	0	
15	0	0	0	0	510	507	0	0	
0	0	0	0	0	509	506	0	0	
1	0	0	0	0	511	508	0	0	
2	0	0	0	0	513	505	0	0	
3	0	0	0	0	515	508	0	0	
4	0	0	0	0	512	509	0	0	
5	0	0	0	0	514	508	0	0	
6	0	0	0	0	516	509	0	0	
7	0	0	0	0	515	511	0	0	
8	0	0	0	0	512	507	0	0	
9	0	0	0	0	513	509	0	0	
10	0	0	0	0	513	507	0	0	
11	0	0	0	0	510	507	0	0	
12	0	0	0	0	510	507	0	0	
13	0	0	0	0	508	507	0	0	
14	0	0	0	0	504	506	0	0	
15	0	0	0	0	509	508	0	0	
0	0	0	0	0	511	508	0	0	
1	0	0	0	0	512	506	0	0	
2	0	0	0	0	515	507	0	0	
3	0	0	0	0	516	508	0	0	
4	0	0	0	0	512	506	0	0	
5	0	0	0	0	511	508	0	0	
6	0	0	0	0	509	508	0	0	
7	0	0	0	0	511	511	0	0	
8	0	0	0	0	513	510	0	0	
9	0	0	0	0	512	509	0	0	
10	0	0	0	0	513	510	0	0	
11	0	0	0	0	511	509	0	0	
12	0	0	0	0	511	508	0	0	
13	0	0	0	0	510	508	0	0	
14	0	0	0	0	511	506	0	0	
15	0	0	0	0	507	506	0	0	
0	0	0	0	0	508	507	0	0	
1	0	0	0	0	510	505	0	0	
2	0	0	0	0	509	507	0	0	
3	0	0	0	0	507	507	0	0	
4	0	0	0	0	507	510	0	0	
5	0	0	0	0	507	508	0	0	
6	0	0	0	0	509	508	0	0	
7	0	0	0	0	512	507	0	0	
8	0	0	0	0	514	511	0	0	
9	0	0	0	0	512	510	0	0	
10	0	0	0	0	514	511	0	0	
11	0	0	0	0	512	509	0	0	
12	0	0	0	0	510	509	0	0	
13	0	0	0	0	510	512	0	0	
14	0	0	0	0	512	510	0	0	
15	0	0	0	0	511	511	0	0	
0	0	0	0	0	512	508	0	0	
1	0	0	0	0	511	509	0	0	
2	0	0	0	0	510	508	0	0	
3	0	0	0	0	515	507	0	0	
4	0	0	0	0	514	505	0	0	
5	0	0	0	0	511	506	0	0	
6	0	0	0	0	510	508	0	0	
7	0	0	0	0	506	506	0	0	
8	0	0	0	0	508	507	0	0	
9	0	0	0	0	510	507	0	0	
10	0	0	0	0	510	507	0	0	
11	0	0	0	0	509	507	0	0	
12	0	0	0	0	506	507	0	0	
13	0	0	0	0	510	510	0	0	
14	0	0	0	0	507	509	0	0	
15	0	0	0	0	511	506	0	0	
0	0	0	0	0	511	508	0	0	
1	0	0	0	0	513	508	0	0	
2	0	0	0	0	514	507	0	0	
3	0	0	0	0	514	508	0	0	
4	0	0	0	0	512	510	0	0	
5	0	0	0	0	514	510	0	0	
6	0	0	0	0	511	508	0	0	
7	0	0	0	0	512	506	0	0	
8	0	0	0	0	512	505	0	0	
9	0	0	0	0	511	504	0	0	
10	0	0	0	0	510	506	0	0	
11	0	0	0	0	511	507	0	0	
12	0	0	0	0	510	506	0	0	
13	0	0	0	0	509	506	0	0	
14	0	0	0	0	511	509	0	0	
15	0	0	0	0	511	508	0	0	
0	0	0	0	0	512	509	0	0	
1	0	0	0	0	511	508	0	0	
2	0	0	0	0	512	507	0	0	
3	0	0	0	0	513	508	0	0	
4	0	0	0	0	514	509	0	0	
5	0	0	0	0	512	509	0	0	
6	0	0	0	0	510	509	0	0	
7	0	0	0	0	511	508	0	0	
8	0	0	0	0	511	510	0	0	
9	0	0	0	0	513	508	0	0	
10	0	0	0	0	511	509	0	0	
11	0	0	0	0	510	507	0	0	
12	0	0	0	0	507	507	0	0	
13	0	0	0	0	504	508	0	0	
14	0	0	0	0	507	508	0	0	
15	0	0	0	0	508	510	0	0	
0	0	0	0	0	509	508	0	0	
1	0	0	0	0	509	506	0	0	
2	0	0	0	0	508	506	0	0	
3	0	0	0	0	508	507	0	0	
4	0	0	0	0	509	508	0	0	
5	0	0	0	0	512	508	0	0	
6	0	0	0	0	512	510	0	0	
7	0	0	0	0	513	511	0	0	
8	0	0	0	0	513	508	0	0	
9	0	0	0	0	513	511	0	0	
10	0	0	0	0	517	508	0	0	
11	0	0	0	0	519	508	0	0	
12	0	0	0	0	517	508	0	0	
13	0	0	0	0	512	507	0	0	
14	0	0	0	0	512	507	0	0	
15	0	0	0	0	509	509	0	0	
0	0	0	0	0	511	507	0	0	
1	0	0	0	0	508	506	0	0	
2	0	0	0	0	507	506	0	0	
3	0	0	0	0	507	508	0	0	
4	0	0	0	0	511	508	0	0	
5	0	0	0	0	511	507	0	0	
6	0	0	0	0	510	508	0	0	
7	0	0	0	0	508	508	0	0	
8	0	0	0	0	509	509	0	0	
9	0	0	0	0	511	508	0	0	
10	0	0	0	0	512	510	0	0	
11	0	0	0	0	514	510	0	0	
12	0	0	0	0	515	512	0	0	
13	0	0	0	0	512	511	0	0	
14	0	0	0	0	511	511	0	0	
15	0	0	0	0	512	509	0	0	
0	0	0	0	0	512	509	0	0	
1	0	0	0	0	514	508	0	0	
2	0	0	0	0	512	508	0	0	
3	0	0	0	0	507	505	0	0	
4	0	0	0	0	504	504	0	0	
5	0	0	0	0	507	507	0	0	
6	0	0	0	0	507	508	0	0	
7	0	0	0	0	508	508	0	0	
8	0	0	0	0	508	508	0	0	
9	0	0	0	0	510	506	0	0	
10	0	0	0	0	510	507	0	0	
11	0	0	0	0	510	506	0	0	
12	0	0	0	0	510	507	0	0	
13	0	0	0	0	510	510	0	0	
14	0	0	0	0	510	510	0	0	
15	0	0	0	0	511	511	0	0	
0	0	0	0	0	516	510	0	0	
1	0	0	0	0	516	510	0	0	
2	0	0	0	0	516	510	0	0	
3	0	0	0	0	515	505	0	0	
4	0	0	0	0	519	506	0	0	
5	0	0	0	0	518	509	0	0	
6	0	0	0	0	512	508	0	0	
7	0	0	0	0	511	508	0	0	
8	0	0	0	0	510	506	0	0	
9	0	0	0	0	509	505	0	0	
10	0	0	0	0	509	505	0	0	
11	0	0	0	0	511	507	0	0	
12	0	0	0	0	508	507	0	0	
13	0	0	0	0	510	506	0	0	
14	0	0	0	0	511	506	0	0	
15	0	0	0	0	509	507	0	0	
0	0	0	0	0	509	507	0	0	
1	0	0	0	0	511	508	0	0	
2	0	0	0	0	512	509	0	0	
3	0	0	0	0	511	510	0	0	
4	0	0	0	0	511	508	0	0	
5	0	0	0	0	507	510	0	0	
6	0	0	0	0	515	510	0	0	
7	0	0	0	0	511	509	0	0	
8	0	0	0	0	513	508	0	0	
9	0	0	0	0	514	508	0	0	
10	0	0	0	0	512	507	0	0	
11	0	0	0	0	511	507	0	0	
12	0	0	0	0	509	508	0	0	
13	0	0	0	0	509	508	0	0	
14	0	0	0	0	509	504	0	0	
15	0	0	0	0	511	508	0	0	
0	0	0	0	0	512	508	0	0	
1	0	0	0	0	509	506	0	0	
2	0	0	0	0	510	506	0	0	
3	0	0	0	0	511	507	0	0	
4	0	0	0	0	512	508	0	0	
5	0	0	0	0	513	507	0	0	
6	0	0	0	0	511	509	0	0	
7	0	0	0	0	510	511	0	0	
8	0	0	0	0	510	509	0	0	
9	0	0	0	0	510	511	0	0	
10	0	0	0	0	511	508	0	0	
11	0	0	0	0	511	510	0	0	
12	0	0	0	0	510	510	0	0	
13	0	0	0	0	511	508	0	0	
14	0	0	0	0	509	510	0	0	
15	0	0	0	0	509	508	0	0	
0	0	0	0	0	508	506	0	0	
1	0	0	0	0	509	506	0	0	
2	0	0	0	0	506	507	0	0	
3	0	0	0	0	508	507	0	0	
4	0	0	0	0	509	507	0	0	
5	0	0	0	0	509	505	0	0	
6	0	0	0	0	508	508	0	0	
7	0	0	0	0	509	507	0	0	
8	0	0	0	0	512	510	0	0	
9	0	0	0	0	513	509	0	0	
10	0	0	0	0	515	507	0	0	
11	0	0	0	0	515	507	0	0	
12	0	0	0	0	516	507	0	0	
13	0	0	0	0	518	506	0	0	
14	0	0	0	0	515	509	0	0	
15	0	0	0	0	517	509	0	0	
0	0	0	0	0	516	508	0	0	
1	0	0	0	0	514	510	0	0	
2	0	0	0	0	511	507	0	0	
3	0	0	0	0	512	508	0	0	
4	0	0	0	0	511	507	0	0	
5	0	0	0	0	509	508	0	0	
6	0	0	0	0	508	507	0	0	
7	0	0	0	0	510	505	0	0	
8	0	0	0	0	508	508	0	0	
9	0	0	0	0	511	505	0	0	
10	0	0	0	0	510	506	0	0	
11	0	0	0	0	507	505	0	0	
12	0	0	0	0	507	505	0	0	
13	0	0	0	0	511	507	0	0	
14	0	0	0	0	512	507	0	0	
15	0	0	0	0	511	509	0	0	
0	0	0	0	0	511	507	0	0	
1	0	0	0	0	511	508	0	0	
2	0	0	0	0	511	508	0	0	
3	0	0	0	0	512	510	0	0	
4	0	0	0	0	514	510	0	0	
5	0	0	0	0	513	509	0	0	
6	0	0	0	0	511	510	0	0	
7	0	0	0	0	509	510	0	0	
8	0	0	0	0	511	508	0	0	
9	0	0	0	0	510	508	0	0	
10	0	0	0	0	510	507	0	0	
11	0	0	0	0	508	507	0	0	
12	0	0	0	0	508	504	0	0	
13	0	0	0	0	507	506	0	0	
14	0	0	0	0	508	506	0	0	
15	0	0	0	0	508	507	0	0	
0	0	0	0	0	509	509	0	0	
1	0	0	0	0	510	509	0	0	
2	0	0	0	0	511	509	0	0	
3	0	0	0	0	511	511	0	0	
4	0	0	0	0	513	510	0	0	
5	0	0	0	0	513	511	0	0	
6	0	0	0	0	513	510	0	0	
7	0	0	0	0	514	510	0	0	
8	0	0	0	0	510	510	0	0	
9	0	0	0	0	511	509	0	0	
10	0	0	0	0	511	508	0	0	
11	0	0	0	0	510	507	0	0	
12	0	0	0	0	510	508	0	0	
13	0	0	0	0	512	507	0	0	
14	0	0	0	0	510	507	0	0	
15	0	0	0	0	515	507	0	0	
0	0	0	0	0	514	508	0	0	
1	0	0	0	0	515	508	0	0	
2	0	0	0	0	510	509	0	0	
3	0	0	0	0	512	509	0	0	
4	0	0	0	0	510	512	0	0	
5	0	0	0	0	510	509	0	0	
6	0	0	0	0	512	510	0	0	
7	0	0	0	0	514	510	0	0	
8	0	0	0	0	511	509	0	0	
9	0	0	0	0	512	509	0	0	
10	0	0	0	0	512	509	0	0	
11	0	0	0	0	511	508	0	0	
12	0	0	0	0	511	510	0	0	
13	0	0	0	0	512	508	0	0	
14	0	0	0	0	513	508	0	0	
15	0	0	0	0	511	508	0	0	
0	0	0	0	0	512	508	0	0	
1	0	0	0	0	511	507	0	0	
2	0	0	0	0	511	507	0	0	
3	0	0	0	0	513	506	0	0	
4	0	0	0	0	511	507	0	0	
5	0	0	0	0	511	507	0	0	
6	0	0	0	0	507	508	0	0	
7	0	0	0	0	508	506	0	0	
8	0	0	0	0	510	507	0	0	
9	0	0	0	0	510	509	0	0	
10	0	0	0	0	510	506	0	0	
11	0	0	0	0	513	509	0	0	
12	0	0	0	0	511	510	0	0	
13	0	0	0	0	512	508	0	0	
14	0	0	0	0	513	509	0	0	
15	0	0	0	0	512	509	0	0	
0	0	0	0	0	514	508	0	0	
1	0	0	0	0	513	508	0	0	
2	0	0	0	0	515	508	0	0	
3	0	0	0	0	515	508	0	0	
4	0	0	0	0	513	508	0	0	
5	0	0	0	0	510	505	0	0	
6	0	0	0	0	506	505	0	0	
7	0	0	0	0	507	504	0	0	
8	0	0	0	0	511	506	0	0	
9	0	0	0	0	511	506	0	0	
10	0	0	0	0	511	509	0	0	
11	0	0	0	0	508	510	0	0	
12	0	0	0	0	511	507	0	0	
13	0	0	0	0	514	509	0	0	
14	0	0	0	0	513	509	0	0	
15	0	0	0	0	512	508	0	0	
0	0	0	0	0	510	507	0	0	
1	0	0	0	0	510	508	0	0	
2	0	0	0	0	509	511	0	0	
3	0	0	0	0	510	511	0	0	
4	0	0	0	0	512	510	0	0	
5	0	0	0	0	512	510	0	0	
6	0	0	0	0	511	508	0	0	
7	0	0	0	0	508	507	0	0	
8	0	0	0	0	508	508	0	0	
9	0	0	0	0	505	510	0	0	
10	0	0	0	0	509	506	0	0	
11	0	0	0	0	507	506	0	0	
12	0	0	0	0	509	507	0	0	
13	0	0	0	0	509	506	0	0	
14	0	0	0	0	507	508	0	0	
15	0	0	0	0	508	506	0	0	
0	0	0	0	0	510	508	0	0	
1	0	0	0	0	513	510	0	0	
2	0	0	0	0	513	507	0	0	
3	0	0	0	0	510	508	0	0	
4	0	0	0	0	512	509	0	0	
5	0	0	0	0	513	511	0	0	
6	0	0	0	0	513	511	0	0	
7	0	0	0	0	514	511	0	0	
8	0	0	0	0	512	508	0	0	
9	0	0	0	0	512	505	0	0	
10	0	0	0	0	510	507	0	0	
11	0	0	0	0	510	508	0	0	
12	0	0	0	0	511	508	0	0	
13	0	0	0	0	510	507	0	0	
14	0	0	0	0	509	505	0	0	
15	0	0	0	0	510	507	0	0	
0	0	0	0	0	510	505	0	0	
1	0	0	0	0	513	510	0	0	
2	0	0	0	0	512	506	0	0	
3	0	0	0	0	510	508	0	0	
4	0	0	0	0	512	508	0	0	
5	0	0	0	0	511	506	0	0	
6	0	0	0	0	515	508	0	0	
7	0	0	0	0	513	506	0	0	
8	0	0	0	0	516	508	0	0	
9	0	0	0	0	515	510	0	0	
10	0	0	0	0	515	509	0	0	
11	0	0	0	0	514	510	0	0	
12	0	0	0	0	514	511	0	0	
13	0	0	0	0	514	510	0	0	
14	0	0	0	0	511	508	0	0	
15	0	0	0	0	512	510	0	0	
0	0	0	0	0	511	507	0	0	
1	0	0	0	0	507	506	0	0	
2	0	0	0	0	508	505	0	0	
3	0	0	0	0	507	505	0	0	
4	0	0	0	0	508	507	0	0	
5	0	0	0	0	507	507	0	0	
6	0	0	0	0	508	504	0	0	
7	0	0	0	0	508	508	0	0	
8	0	0	0	0	510	507	0	0	
9	0	0	0	0	510	509	0	0	
10	0	0	0	0	509	510	0	0	
11	0	0	0	0	511	508	0	0	
12	0	0	0	0	514	509	0	0	
13	0	0	0	0	513	507	0	0	
14	0	0	0	0	512	509	0	0	
15	0	0	0	0	513	508	0	0	
0	0	0	0	0	516	510	0	0	
1	0	0	0	0	518	510	0	0	
2	0	0	0	0	516	507	0	0	
3	0	0	0	0	510	509	0	0	
4	0	0	0	0	509	508	0	0	
5	0	0	0	0	509	510	0	0	
6	0	0	0	0	509	507	0	0	
7	0	0	0	0	507	507	0	0	
8	0	0	0	0	509	506	0	0	
9	0	0	0	0	508	507	0	0	
10	0	0	0	0	510	506	0	0	
11	0	0	0	0	512	508	0	0	
12	0	0	0	0	510	507	0	0	
13	0	0	0	0	508	507	0	0	
14	0	0	0	0	512	507	0	0	
15	0	0	0	0	510	509	0	0	
0	0	0	0	0	513	508	0	0	
1	0	0	0	0	515	511	0	0	
2	0	0	0	0	514	510	0	0	
3	0	0	0	0	512	509	0	0	
4	0	0	0	0	512	509	0	0	
5	0	0	0	0	513	510	0	0	
6	0	0	0	0	511	507	0	0	
7	0	0	0	0	512	509	0	0	
8	0	0	0	0	510	507	0	0	
9	0	0	0	0	508	506	0	0	
10	0	0	0	0	510	508	0	0	
11	0	0	0	0	508	507	0	0	
12	0	0	0	0	510	508	0	0	
13	0	0	0	0	510	507	0	0	
14	0	0	0	0	511	510	0	0	
15	0	0	0	0	508	508	0	0	
0	0	0	0	0	510	508	0	0	
1	0	0	0	0	509	508	0	0	
2	0	0	0	0	510	508	0	0	
3	0	0	0	0	510	509	0	0	
4	0	0	0	0	512	508	0	0	
5	0	0	0	0	511	510	0	0	
6	0	0	0	0	513	508	0	0	
7	0	0	0	0	513	508	0	0	
8	0	0	0	0	514	508	0	0	
9	0	0	0	0	512	508	0	0	
10	0	0	0	0	510	508	0	0	
11	0	0	0	0	511	510	0	0	
12	0	0	0	0	508	508	0	0	
13	0	0	0	0	508	508	0	0	
14	0	0	0	0	508	508	0	0	
15	0	0	0	0	509	506	0	0	
0	0	0	0	0	510	506	0	0	
1	0	0	0	0	508	509	0	0	
2	0	0	0	0	510	507	0	0	
3	0	0	0	0	509	507	0	0	
4	0	0	0	0	510	509	0	0	
5	0	0	0	0	511	508	0	0	
6	0	0	0	0	508	507	0	0	
7	0	0	0	0	510	508	0	0	
8	0	0	0	0	511	510	0	0	
9	0	0	0	0	514	509	0	0	
10	0	0	0	0	512	508	0	0	
11	0	0	0	0	513	509	0	0	
12	0	0	0	0	513	510	0	0	
13	0	0	0	0	514	510	0	0	
14	0	0	0	0	512	507	0	0	
15	0	0	0	0	508	507	0	0	
0	0	0	0	0	508	505	0	0	
1	0	0	0	0	508	505	0	0	
2	0	0	0	0	509	506	0	0	
3	0	0	0	0	510	507	0	0	
4	0	0	0	0	511	508	0	0	
5	0	0	0	0	507	508	0	0	
6	0	0	0	0	510	508	0	0	
7	0	0	0	0	510	507	0	0	
8	0	0	0	0	510	508	0	0	
9	0	0	0	0	511	509	0	0	
10	0	0	0	0	512	510	0	0	
11	0	0	0	0	516	508	0	0	
12	0	0	0	0	516	508	0	0	
13	0	0	0	0	517	510	0	0	
14	0	0	0	0	516	509	0	0	
15	0	0	0	0	515	512	0	0	
0	0	0	0	0	515	510	0	0	
1	0	0	0	0	515	510	0	0	
2	0	0	0	0	511	508	0	0	
3	0	0	0	0	511	506	0	0	
4	0	0	0	0	511	508	0	0	
5	0	0	0	0	509	510	0	0	
6	0	0	0	0	509	507	0	0	
7	0	0	0	0	509	506	0	0	
8	0	0	0	0	509	508	0	0	
9	0	0	0	0	508	506	0	0	
10	0	0	0	0	510	506	0	0	
11	0	0	0	0	508	509	0	0	
12	0	0	0	0	510	508	0	0	
13	0	0	0	0	511	508	0	0	
14	0	0	0	0	511	509	0	0	
15	0	0	0	0	513	509	0	0	
0	0	0	0	0	511	508	0	0	
1	0	0	0	0	514	506	0	0	
2	0	0	0	0	515	505	0	0	
3	0	0	0	0	513	507	0	0	
4	0	0	0	0	511	507	0	0	
5	0	0	0	0	511	508	0	0	
6	0	0	0	0	513	507	0	0	
7	0	0	0	0	511	508	0	0	
8	0	0	0	0	509	506	0	0	
9	0	0	0	0	504	507	0	0	
10	0	0	0	0	502	506	0	0	
11	0	0	0	0	504	504	0	0	
12	0	0	0	0	506	503	0	0	
13	0	0	0	0	509	509	0	0	
14	0	0	0	0	510	507	0	0	
15	0	0	0	0	511	507	0	0	
0	0	0	0	0	513	505	0	0	
1	0	0	0	0	515	509	0	0	
2	0	0	0	0	511	510	0	0	
3	0	0	0	0	513	508	0	0	
4	0	0	0	0	514	509	0	0	
5	0	0	0	0	515	510	0	0	
6	0	0	0	0	513	512	0	0	
7	0	0	0	0	514	508	0	0	
8	0	0	0	0	511	508	0	0	
9	0	0	0	0	511	510	0	0	
10	0	0	0	0	511	508	0	0	
11	0	0	0	0	511	507	0	0	
12	0	0	0	0	510	509	0	0	
13	0	0	0	0	510	507	0	0	
14	0	0	0	0	506	508	0	0	
15	0	0	0	0	508	506	0	0	
0	0	0	0	0	507	507	0	0	
1	0	0	0	0	508	507	0	0	
2	0	0	0	0	509	508	0	0	
3	0	0	0	0	508	508	0	0	
4	0	0	0	0	509	507	0	0	
5	0	0	0	0	509	509	0	0	
6	0	0	0	0	511	508	0	0	
7	0	0	0	0	511	508	0	0	
8	0	0	0	0	514	509	0	0	
9	0	0	0	0	513	509	0	0	
10	0	0	0	0	516	507	0	0	
11	0	0	0	0	514	510	0	0	
12	0	0	0	0	515	508	0	0	
13	0	0	0	0	513	508	0	0	
14	0	0	0	0	512	507	0	0	
15	0	0	0	0	514	508	0	0	
0	0	0	0	0	509	507	0	0	
1	0	0	0	0	511	505	0	0	
2	0	0	0	0	511	505	0	0	
3	0	0	0	0	509	508	0	0	
4	0	0	0	0	510	507	0	0	
5	0	0	0	0	509	508	0	0	
6	0	0	0	0	510	507	0	0	
7	0	0	0	0	508	507	0	0	
8	0	0	0	0	511	508	0	0	
9	0	0	0	0	509	510	0	0	
10	0	0	0	0	512	508	0	0	
11	0	0	0	0	512	510	0	0	
12	0	0	0	0	516	508	0	0	
13	0	0	0	0	515	511	0	0	
14	0	0	0	0	518	508	0	0	
15	0	0	0	0	517	510	0	0	
0	0	0	0	0	514	510	0	0	
1	0	0	0	0	511	510	0	0	
2	0	0	0	0	510	512	0	0	
3	0	0	0	0	511	508	0	0	
4	0	0	0	0	510	508	0	0	
5	0	0	0	0	506	507	0	0	
6	0	0	0	0	508	505	0	0	
7	0	0	0	0	509	506	0	0	
8	0	0	0	0	508	506	0	0	
9	0	0	0	0	509	506	0	0	
10	0	0	0	0	509	508	0	0	
11	0	0	0	0	508	507	0	0	
12	0	0	0	0	510	507	0	0	
13	0	0	0	0	510	508	0	0	
14	0	0	0	0	508	510	0	0	
15	0	0	0	0	507	508	0	0	
0	0	0	0	0	509	510	0	0	
1	0	0	0	0	509	510	0	0	
2	0	0	0	0	512	508	0	0	
3	0	0	0	0	510	508	0	0	
4	0	0	0	0	512	508	0	0	
5	0	0	0	0	513	509	0	0	
6	0	0	0	0	514	507	0	0	
7	0	0	0	0	511	507	0	0	
8	0	0	0	0	512	507	0	0	
9	0	0	0	0	511	508	0	0	
10	0	0	0	0	511	504	0	0	
11	0	0	0	0	508	505	0	0	
12	0	0	0	0	511	505	0	0	
13	0	0	0	0	510	504	0	0	
14	0	0	0	0	511	506	0	0	
15	0	0	0	0	512	507	0	0	
0	0	0	0	0	511	508	0	0	
1	0	0	0	0	512	510	0	0	
2	0	0	0	0	513	508	0	0	
3	0	0	0	0	510	508	0	0	
4	0	0	0	0	508	510	0	0	
5	0	0	0	0	513	508	0	0	
6	0	0	0	0	512	507	0	0	
7	0	0	0	0	513	510	0	0	
8	0	0	0	0	511	509	0	0	
9	0	0	0	0	510	508	0	0	
10	0	0	0	0	512	508	0	0	
11	0	0	0	0	509	507	0	0	
12	0	0	0	0	512	507	0	0	
13	0	0	0	0	509	508	0	0	
14	0	0	0	0	510	507	0	0	
15	0	0	0	0	508	508	0	0	
0	0	0	0	0	505	508	0	0	
1	0	0	0	0	506	508	0	0	
2	0	0	0	0	509	508	0	0	
3	0	0	0	0	507	508	0	0	
4	0	0	0	0	507	511	0	0	
5	0	0	0	0	512	510	0	0	
6	0	0	0	0	513	509	0	0	
7	0	0	0	0	513	513	0	0	
8	0	0	0	0	512	508	0	0	
9	0	0	0	0	515	510	0	0	
10	0	0	0	0	515	510	0	0	
11	0	0	0	0	513	507	0	0	
12	0	0	0	0	511	508	0	0	
13	0	0	0	0	514	509	0	0	
14	0	0	0	0	511	509	0	0	
15	0	0	0	0	508	507	0	0	
0	0	0	0	0	508	507	0	0	
1	0	0	0	0	510	507	0	0	
2	0	0	0	0	510	505	0	0	
3	0	0	0	0	507	507	0	0	
4	0	0	0	0	508	508	0	0	
5	0	0	0	0	511	508	0	0	
6	0	0	0	0	512	508	0	0	
7	0	0	0	0	512	507	0	0	
8	0	0	0	0	511	507	0	0	
9	0	0	0	0	509	508	0	0	
10	0	0	0	0	510	509	0	0	
11	0	0	0	0	510	509	0	0	
12	0	0	0	0	514	510	0	0	
13	0	0	0	0	515	508	0	0	
14	0	0	0	0	515	508	0	0	
15	0	0	0	0	515	507	0	0	
0	0	0	0	0	514	509	0	0	
1	0	0	0	0	512	507	0	0	
2	0	0	0	0	511	507	0	0	
3	0	0	0	0	509	508	0	0	
4	0	0	0	0	507	507	0	0	
5	0	0	0	0	507	508	0	0	
6	0	0	0	0	508	507	0	0	
7	0	0	0	0	508	507	0	0	
8	0	0	0	0	507	508	0	0	
9	0	0	0	0	509	506	0	0	
10	0	0	0	0	508	507	0	0	
11	0	0	0	0	509	506	0	0	
12	0	0	0	0	510	509	0	0	
13	0	0	0	0	511	508	0	0	
14	0	0	0	0	511	511	0	0	
15	0	0	0	0	512	508	0	0	
0	0	0	0	0	515	509	0	0	
1	0	0	0	0	514	511	0	0	
2	0	0	0	0	514	509	0	0	
3	0	0	0	0	514	507	0	0	
4	0	0	0	0	512	508	0	0	
5	0	0	0	0	513	507	0	0	
6	0	0	0	0	512	507	0	0	
7	0	0	0	0	511	507	0	0	
8	0	0	0	0	512	508	0	0	
9	0	0	0	0	512	507	0	0	
10	0	0	0	0	511	508	0	0	
11	0	0	0	0	512	508	0	0	
12	0	0	0	0	510	507	0	0	
13	0	0	0	0	510	509	0	0	
14	0	0	0	0	511	508	0	0	
15	0	0	0	0	512	506	0	0	
0	0	0	0	0	511	508	0	0	
1	0	0	0	0	512	508	0	0	
2	0	0	0	0	514	510	0	0	
3	0	0	0	0	510	510	0	0	
4	0	0	0	0	512	512	0	0	
5	0	0	0	0	514	508	0	0	
6	0	0	0	0	515	510	0	0	
7	0	0	0	0	512	507	0	0	
8	0	0	0	0	515	509	0	0	
9	0	0	0	0	514	510	0	0	
10	0	0	0	0	512	511	0	0	
11	0	0	0	0	513	507	0	0	
12	0	0	0	0	513	508	0	0	
13	0	0	0	0	511	508	0	0	
14	0	0	0	0	509	507	0	0	
15	0	0	0	0	509	505	0	0	
0	0	0	0	0	508	506	0	0	
1	0	0	0	0	506	506	0	0	
2	0	0	0	0	508	507	0	0	
3	0	0	0	0	508	509	0	0	
4	0	0	0	0	511	507	0	0	
5	0	0	0	0	510	508	0	0	
6	0	0	0	0	511	509	0	0	
7	0	0	0	0	516	508	0	0	
8	0	0	0	0	513	512	0	0	
9	0	0	0	0	510	508	0	0	
10	0	0	0	0	507	512	0	0	
11	0	0	0	0	507	508	0	0	
12	0	0	0	0	511	510	0	0	
13	0	0	0	0	511	509	0	0	
14	0	0	0	0	509	508	0	0	
15	0	0	0	0	510	505	0	0	
0	0	0	0	0	509	507	0	0	
1	0	0	0	0	509	508	0	0	
2	0	0	0	0	509	505	0	0	
3	0	0	0	0	511	508	0	0	
4	0	0	0	0	511	507	0	0	
5	0	0	0	0	506	506	0	0	
6	0	0	0	0	510	507	0	0	
7	0	0	0	0	511	506	0	0	
8	0	0	0	0	511	508	0	0	
9	0	0	0	0	511	507	0	0	
10	0	0	0	0	509	508	0	0	
11	0	0	0	0	511	509	0	0	
12	0	0	0	0	512	509	0	0	
13	0	0	0	0	515	509	0	0	
14	0	0	0	0	516	509	0	0	
15	0	0	0	0	516	505	0	0	
0	0	0	0	0	518	508	0	0	
1	0	0	0	0	516	507	0	0	
2	0	0	0	0	515	508	0	0	
3	0	0	0	0	511	509	0	0	
4	0	0	0	0	509	507	0	0	
5	0	0	0	0	509	505	0	0	
6	0	0	0	0	509	505	0	0	
7	0	0	0	0	509	506	0	0	
8	0	0	0	0	508	505	0	0	
9	0	0	0	0	507	506	0	0	
10	0	0	0	0	510	509	0	0	
11	0	0	0	0	508	508	0	0	
12	0	0	0	0	511	509	0	0	
13	0	0	0	0	513	507	0	0	
14	0	0	0	0	515	508	0	0	
15	0	0	0	0	515	506	0	0	
0	0	0	0	0	514	508	0	0	
1	0	0	0	0	513	508	0	0	
2	0	0	0	0	512	509	0	0	
3	0	0	0	0	514	510	0	0	
4	0	0	0	0	513	511	0	0	
5	0	0	0	0	514	507	0	0	
6	0	0	0	0	509	509	0	0	
7	0	0	0	0	511	508	0	0	
8	0	0	0	0	508	506	0	0	
9	0	0	0	0	512	507	0	0	
10	0	0	0	0	508	507	0	0	
11	0	0	0	0	510	504	0	0	
12	0	0	0	0	510	507	0	0	
13	0	0	0	0	508	508	0	0	
14	0	0	0	0	509	508	0	0	
15	0	0	0	0	509	507	0	0	
0	0	0	0	0	508	508	0	0	
1	0	0	0	0	509	508	0	0	
2	0	0	0	0	509	511	0	0	
3	0	0	0	0	510	511	0	0	
4	0	0	0	0	511	510	0	0	
5	0	0	0	0	516	509	0	0	
6	0	0	0	0	517	509	0	0	
7	0	0	0	0	519	509	0	0	
8	0	0	0	0	515	507	0	0	
9	0	0	0	0	512	506	0	0	
10	0	0	0	0	515	509	0	0	
11	0	0	0	0	514	511	0	0	
12	0	0	0	0	510	509	0	0	
13	0	0	0	0	510	510	0	0	
14	0	0	0	0	508	510	0	0	
15	0	0	0	0	508	510	0	0	
0	0	0	0	0	507	507	0	0	
1	0	0	0	0	508	505	0	0	
2	0	0	0	0	510	506	0	0	
3	0	0	0	0	509	507	0	0	
4	0	0	0	0	510	507	0	0	
5	0	0	0	0	512	509	0	0	
6	0	0	0	0	511	507	0	0	
7	0	0	0	0	513	510	0	0	
8	0	0	0	0	514	509	0	0	
9	0	0	0	0	516	509	0	0	
10	0	0	0	0	513	509	0	0	
11	0	0	0	0	513	508	0	0	
12	0	0	0	0	513	507	0	0	
13	0	0	0	0	515	506	0	0	
14	0	0	0	0	510	507	0	0	
15	0	0	0	0	509	505	0	0	
0	0	0	0	0	508	507	0	0	
1	0	0	0	0	509	508	0	0	
2	0	0	0	0	512	509	0	0	
3	0	0	0	0	511	507	0	0	
4	0	0	0	0	508	506	0	0	
5	0	0	0	0	509	507	0	0	
6	0	0	0	0	510	509	0	0	
7	0	0	0	0	508	508	0	0	
8	0	0	0	0	510	510	0	0	
9	0	0	0	0	509	509	0	0	
10	0	0	0	0	511	511	0	0	
11	0	0	0	0	512	508	0	0	
12	0	0	0	0	513	508	0	0	
13	0	0	0	0	513	509	0	0	
14	0	0	0	0	512	510	0	0	
15	0	0	0	0	513	508	0	0	
0	0	0	0	0	513	510	0	0	
1	0	0	0	0	514	508	0	0	
2	0	0	0	0	511	507	0	0	
3	0	0	0	0	511	508	0	0	
4	0	0	0	0	509	507	0	0	
5	0	0	0	0	508	509	0	0	
6	0	0	0	0	508	507	0	0	
7	0	0	0	0	508	509	0	0	
8	0	0	0	0	508	507	0	0	
9	0	0	0	0	508	507	0	0	
10	0	0	0	0	508	508	0	0	
11	0	0	0	0	507	507	0	0	
12	0	0	0	0	506	505	0	0	
13	0	0	0	0	508	505	0	0	
14	0	0	0	0	510	506	0	0	
15	0	0	0	0	510	508	0	0	
0	0	0	0	0	513	509	0	0	
1	0	0	0	0	518	508	0	0	
2	0	0	0	0	515	508	0	0	
3	0	0	0	0	517	505	0	0	
4	0	0	0	0	515	506	0	0	
5	0	0	0	0	516	510	0	0	
6	0	0	0	0	512	510	0	0	
7	0	0	0	0	510	510	0	0	
8	0	0	0	0	508	508	0	0	
9	0	0	0	0	508	509	0	0	
10	0	0	0	0	506	510	0	0	
11	0	0	0	0	507	508	0	0	
12	0	0	0	0	508	508	0	0	
13	0	0	0	0	510	507	0	0	
14	0	0	0	0	511	506	0	0	
15	0	0	0	0	511	507	0	0	
0	0	0	0	0	509	505	0	0	
1	0	0	0	0	511	511	0	0	
2	0	0	0	0	510	509	0	0	
3	0	0	0	0	509	511	0	0	
4	0	0	0	0	512	510	0	0	
5	0	0	0	0	512	508	0	0	
6	0	0	0	0	513	508	0	0	
7	0	0	0	0	512	509	0	0	
8	0	0	0	0	511	508	0	0	
9	0	0	0	0	513	509	0	0	
10	0	0	0	0	511	509	0	0	
11	0	0	0	0	512	508	0	0	
12	0	0	0	0	511	508	0	0	
13	0	0	0	0	510	508	0	0	
14	0	0	0	0	509	508	0	0	
15	0	0	0	0	508	506	0	0	
0	0	0	0	0	510	508	0	0	
1	0	0	0	0	509	507	0	0	
2	0	0	0	0	510	506	0	0	
3	0	0	0	0	510	508	0	0	
4	0	0	0	0	510	505	0	0	
5	0	0	0	0	513	507	0	0	
6	0	0	0	0	515	507	0	0	
7	0	0	0	0	514	509	0	0	
8	0	0	0	0	515	510	0	0	
9	0	0	0	0	512	509	0	0	
10	0	0	0	0	512	509	0	0	
11	0	0	0	0	514	508	0	0	
12	0	0	0	0	510	508	0	0	
13	0	0	0	0	511	507	0	0	
14	0	0	0	0	511	507	0	0	
15	0	0	0	0	509	507	0	0	
0	0	0	0	0	508	507	0	0	
1	0	0	0	0	507	507	0	0	
2	0	0	0	0	508	507	0	0	
3	0	0	0	0	508	505	0	0	
4	0	0	0	0	509	507	0	0	
5	0	0	0	0	510	508	0	0	
6	0	0	0	0	510	508	0	0	
7	0	0	0	0	512	510	0	0	
8	0	0	0	0	511	509	0	0	
9	0	0	0	0	511	507	0	0	
10	0	0	0	0	514	506	0	0	
11	0	0	0	0	515	506	0	0	
12	0	0	0	0	513	507	0	0	
13	0	0	0	0	514	509	0	0	
14	0	0	0	0	513	508	0	0	
15	0	0	0	0	512	509	0	0	
0	0	0	0	0	511	508	0	0	
1	0	0	0	0	513	507	0	0	
2	0	0	0	0	512	508	0	0	
3	0	0	0	0	511	508	0	0	
4	0	0	0	0	513	505	0	0	
5	0	0	0	0	514	505	0	0	
6	0	0	0	0	516	508	0	0	
7	0	0	0	0	513	507	0	0	
8	0	0	0	0	509	507	0	0	
9	0	0	0	0	511	507	0	0	
10	0	0	0	0	509	507	0	0	
11	0	0	0	0	507	507	0	0	
12	0	0	0	0	511	506	0	0	
13	0	0	0	0	512	509	0	0	
14	0	0	0	0	512	509	0	0	
15	0	0	0	0	511	511	0	0	
0	0	0	0	0	514	510	0	0	
1	0	0	0	0	515	510	0	0	
2	0	0	0	0	512	510	0	0	
3	0	0	0	0	512	509	0	0	
4	0	0	0	0	511	511	0	0	
5	0	0	0	0	514	512	0	0	
6	0	0	0	0	512	508	0	0	
7	0	0	0	0	509	508	0	0	
8	0	0	0	0	507	505	0	0	
9	0	0	0	0	508	507	0	0	
10	0	0	0	0	508	506	0	0	
11	0	0	0	0	509	507	0	0	
12	0	0	0	0	509	507	0	0	
13	0	0	0	0	511	508	0	0	
14	0	0	0	0	512	508	0	0	
15	0	0	0	0	512	506	0	0	
0	0	0	0	0	513	507	0	0	
1	0	0	0	0	511	508	0	0	
2	0	0	0	0	513	508	0	0	
3	0	0	0	0	511	509	0	0	
4	0	0	0	0	512	510	0	0	
5	0	0	0	0	513	508	0	0	
6	0	0	0	0	513	511	0	0	
7	0	0	0	0	513	510	0	0	
8	0	0	0	0	511	507	0	0	
9	0	0	0	0	512	508	0	0	
10	0	0	0	0	511	509	0	0	
11	0	0	0	0	511	506	0	0	
12	0	0	0	0	510	507	0	0	
13	0	0	0	0	507	506	0	0	
14	0	0	0	0	507	509	0	0	
15	0	0	0	0	510	507	0	0	
0	0	0	0	0	510	508	0	0	
1	0	0	0	0	508	506	0	0	
2	0	0	0	0	508	508	0	0	
3	0	0	0	0	510	510	0	0	
4	0	0	0	0	511	507	0	0	
5	0	0	0	0	511	509	0	0	
6	0	0	0	0	510	508	0	0	
7	0	0	0	0	514	509	0	0	
8	0	0	0	0	514	510	0	0	
9	0	0	0	0	513	510	0	0	
10	0	0	0	0	511	511	0	0	
11	0	0	0	0	509	508	0	0	
12	0	0	0	0	511	508	0	0	
13	0	0	0	0	511	507	0	0	
14	0	0	0	0	512	508	0	0	
15	0	0	0	0	509	504	0	0	
0	0	0	0	0	508	505	0	0	
1	0	0	0	0	507	507	0	0	
2	0	0	0	0	508	509	0	0	
3	0	0	0	0	507	509	0	0	
4	0	0	0	0	506	507	0	0	
5	0	0	0	0	507	506	0	0	
6	0	0	0	0	508	508	0	0	
7	0	0	0	0	505	507	0	0	
8	0	0	0	0	506	507	0	0	
9	0	0	0	0	508	507	0	0	
10	0	0	0	0	508	508	0	0	
11	0	0	0	0	508	508	0	0	
12	0	0	0	0	513	510	0	0	
13	0	0	0	0	515	512	0	0	
14	0	0	0	0	517	513	0	0	
15	0	0	0	0	517	511	0	0	
0	0	0	0	0	518	509	0	0	
1	0	0	0	0	515	509	0	0	
2	0	0	0	0	515	508	0	0	
3	0	0	0	0	513	507	0	0	
4	0	0	0	0	509	509	0	0	
5	0	0	0	0	505	508	0	0	
6	0	0	0	0	507	508	0	0	
7	0	0	0	0	507	508	0	0	
8	0	0	0	0	508	504	0	0	
9	0	0	0	0	511	505	0	0	
10	0	0	0	0	511	507	0	0	
11	0	0	0	0	510	506	0	0	
12	0	0	0	0	512	505	0	0	
13	0	0	0	0	512	508	0	0	
14	0	0	0	0	511	508	0	0	
15	0	0	0	0	513	508	0	0	
0	0	0	0	0	514	507	0	0	
1	0	0	0	0	513	505	0	0	
2	0	0	0	0	511	509	0	0	
3	0	0	0	0	513	508	0	0	
4	0	0	0	0	511	506	0	0	
5	0	0	0	0	513	508	0	0	
6	0	0	0	0	511	507	0	0	
7	0	0	0	0	509	508	0	0	
8	0	0	0	0	510	508	0	0	
9	0	0	0	0	510	508	0	0	
10	0	0	0	0	511	505	0	0	
11	0	0	0	0	509	505	0	0	
12	0	0	0	0	511	507	0	0	
13	0	0	0	0	513	507	0	0	
14	0	0	0	0	511	507	0	0	
15	0	0	0	0	510	507	0	0	
0	0	0	0	0	512	507	0	0	
1	0	0	0	0	508	509	0	0	
2	0	0	0	0	510	508	0	0	
3	0	0	0	0	514	508	0	0	
4	0	0	0	0	512	508	0	0	
5	0	0	0	0	514	509	0	0	
6	0	0	0	0	512	510	0	0	
7	0	0	0	0	511	510	0	0	
8	0	0	0	0	511	507	0	0	
9	0	0	0	0	512	504	0	0	
10	0	0	0	0	513	507	0	0	
11	0	0	0	0	513	507	0	0	
12	0	0	0	0	511	505	0	0	
13	0	0	0	0	510	506	0	0	
14	0	0	0	0	511	506	0	0	
15	0	0	0	0	510	506	0	0	
0	0	0	0	0	510	507	0	0	
1	0	0	0	0	511	506	0	0	
2	0	0	0	0	510	508	0	0	
3	0	0	0	0	507	510	0	0	
4	0	0	0	0	508	510	0	0	
5	0	0	0	0	508	510	0	0	
6	0	0	0	0	510	509	0	0	
7	0	0	0	0	514	509	0	0	
8	0	0	0	0	516	510	0	0	
9	0	0	0	0	514	509	0	0	
10	0	0	0	0	515	508	0	0	
11	0	0	0	0	518	509	0	0	
12	0	0	0	0	517	510	0	0	
13	0	0	0	0	515	508	0	0	
14	0	0	0	0	510	507	0	0	
15	0	0	0	0	511	509	0	0	
0	0	0	0	0	510	510	0	0	
1	0	0	0	0	508	505	0	0	
2	0	0	0	0	506	508	0	0	
3	0	0	0	0	509	507	0	0	
4	0	0	0	0	508	506	0	0	
5	0	0	0	0	510	507	0	0	
6	0	0	0	0	507	507	0	0	
7	0	0	0	0	507	511	0	0	
8	0	0	0	0	508	506	0	0	
9	0	0	0	0	509	508	0	0	
10	0	0	0	0	511	508	0	0	
11	0	0	0	0	511	510	0	0	
12	0	0	0	0	511	510	0	0	
13	0	0	0	0	513	510	0	0	
14	0	0	0	0	513	509	0	0	
15	0	0	0	0	512	508	0	0	
0	0	0	0	0	512	508	0	0	
1	0	0	0	0	513	508	0	0	
2	0	0	0	0	513	508	0	0	
3	0	0	0	0	510	508	0	0	
4	0	0	0	0	511	508	0	0	
5	0	0	0	0	512	510	0	0	
6	0	0	0	0	512	510	0	0	
7	0	0	0	0	511	505	0	0	
8	0	0	0	0	510	505	0	0	
9	0	0	0	0	509	507	0	0	
10	0	0	0	0	510	508	0	0	
11	0	0	0	0	512	508	0	0	
12	0	0	0	0	511	508	0	0	
13	0	0	0	0	513	509	0	0	
14	0	0	0	0	514	511	0	0	
15	0	0	0	0	513	511	0	0	
0	0	0	0	0	513	509	0	0	
1	0	0	0	0	513	508	0	0	
2	0	0	0	0	513	507	0	0	
3	0	0	0	0	511	508	0	0	
4	0	0	0	0	510	511	0	0	
5	0	0	0	0	509	509	0	0	
6	0	0	0	0	511	508	0	0	
7	0	0	0	0	511	508	0	0	
8	0	0	0	0	508	507	0	0	
9	0	0	0	0	508	510	0	0	
10	0	0	0	0	509	508	0	0	
11	0	0	0	0	509	508	0	0	
12	0	0	0	0	509	507	0	0	
13	0	0	0	0	509	506	0	0	
14	0	0	0	0	509	505	0	0	
15	0	0	0	0	509	506	0	0	
0	0	0	0	0	510	505	0	0	
1	0	0	0	0	514	509	0	0	
2	0	0	0	0	514	508	0	0	
3	0	0	0	0	514	508	0	0	
4	0	0	0	0	511	509	0	0	
5	0	0	0	0	509	510	0	0	
6	0	0	0	0	511	511	0	0	
7	0	0	0	0	513	509	0	0	
8	0	0	0	0	514	509	0	0	
9	0	0	0	0	512	508	0	0	
10	0	0	0	0	510	508	0	0	
11	0	0	0	0	511	508	0	0	
12	0	0	0	0	512	506	0	0	
13	0	0	0	0	511	505	0	0	
14	0	0	0	0	510	504	0	0	
15	0	0	0	0	506	504	0	0	
0	0	0	0	0	507	505	0	0	
1	0	0	0	0	508	507	0	0	
2	0	0	0	0	509	508	0	0	
3	0	0	0	0	508	508	0	0	
4	0	0	0	0	507	507	0	0	
5	0	0	0	0	505	507	0	0	
6	0	0	0	0	508	506	0	0	
7	0	0	0	0	511	507	0	0	
8	0	0	0	0	513	510	0	0	
9	0	0	0	0	516	511	0	0	
10	0	0	0	0	516	511	0	0	
11	0	0	0	0	517	509	0	0	
12	0	0	0	0	520	508	0	0	
13	0	0	0	0	517	509	0	0	
14	0	0	0	0	513	509	0	0	
15	0	0	0	0	511	508	0	0	
0	0	0	0	0	511	510	0	0	
1	0	0	0	0	511	508	0	0	
2	0	0	0	0	509	509	0	0	
3	0	0	0	0	511	508	0	0	
4	0	0	0	0	510	507	0	0	
5	0	0	0	0	509	505	0	0	
6	0	0	0	0	511	508	0	0	
7	0	0	0	0	509	508	0	0	
8	0	0	0	0	511	507	0	0	
9	0	0	0	0	511	510	0	0	
10	0	0	0	0	511	508	0	0	
11	0	0	0	0	511	510	0	0	
12	0	0	0	0	512	511	0	0	
13	0	0	0	0	513	509	0	0	
14	0	0	0	0	511	510	0	0	
15	0	0	0	0	515	508	0	0	
0	0	0	0	0	512	510	0	0	
1	0	0	0	0	514	509	0	0	
2	0	0	0	0	513	509	0	0	
3	0	0	0	0	513	507	0	0	
4	0	0	0	0	508	508	0	0	
5	0	0	0	0	510	506	0	0	
6	0	0	0	0	509	505	0	0	
7	0	0	0	0	506	509	0	0	
8	0	0	0	0	507	508	0	0	
9	0	0	0	0	508	508	0	0	
10	0	0	0	0	508	508	0	0	
11	0	0	0	0	508	507	0	0	
12	0	0	0	0	510	507	0	0	
13	0	0	0	0	511	507	0	0	
14	0	0	0	0	511	508	0	0	
15	0	0	0	0	514	508	0	0	
0	0	0	0	0	515	508	0	0	
1	0	0	0	0	515	507	0	0	
2	0	0	0	0	515	508	0	0	
3	0	0	0	0	514	508	0	0	
4	0	0	0	0	512	510	0	0	
5	0	0	0	0	512	508	0	0	
6	0	0	0	0	509	507	0	0	
7	0	0	0	0	510	511	0	0	
8	0	0	0	0	509	508	0	0	
9	0	0	0	0	508	508	0	0	
10	0	0	0	0	507	507	0	0	
11	0	0	0	0	507	505	0	0	
12	0	0	0	0	506	507	0	0	
13	0	0	0	0	508	507	0	0	
14	0	0	0	0	509	507	0	0	
15	0	0	0	0	510	507	0	0	
0	0	0	0	0	511	507	0	0	
1	0	0	0	0	512	508	0	0	
2	0	0	0	0	512	508	0	0	
3	0	0	0	0	511	509	0	0	
4	0	0	0	0	508	509	0	0	
5	0	0	0	0	511	511	0	0	
6	0	0	0	0	514	510	0	0	
7	0	0	0	0	515	508	0	0	
8	0	0	0	0	512	508	0	0	
9	0	0	0	0	510	508	0	0	
10	0	0	0	0	510	509	0	0	
11	0	0	0	0	511	505	0	0	
12	0	0	0	0	510	510	0	0	
13	0	0	0	0	513	507	0	0	
14	0	0	0	0	513	508	0	0	
15	0	0	0	0	510	506	0	0	
0	0	0	0	0	513	508	0	0	
1	0	0	0	0	517	505	0	0	
2	0	0	0	0	516	507	0	0	
3	0	0	0	0	510	506	0	0	
4	0	0	0	0	508	508	0	0	
5	0	0	0	0	509	509	0	0	
6	0	0	0	0	510	509	0	0	
7	0	0	0	0	509	507	0	0	
8	0	0	0	0	512	506	0	0	
9	0	0	0	0	512	508	0	0	
10	0	0	0	0	511	508	0	0	
11	0	0	0	0	512	508	0	0	
12	0	0	0	0	513	509	0	0	
13	0	0	0	0	511	508	0	0	
14	0	0	0	0	510	508	0	0	
15	0	0	0	0	511	509	0	0	
0	0	0	0	0	509	508	0	0	
1	0	0	0	0	508	506	0	0	
2	0	0	0	0	508	507	0	0	
3	0	0	0	0	508	507	0	0	
4	0	0	0	0	508	508	0	0	
5	0	0	0	0	507	508	0	0	
6	0	0	0	0	507	507	0	0	
7	0	0	0	0	508	507	0	0	
8	0	0	0	0	507	508	0	0	
9	0	0	0	0	510	510	0	0	
10	0	0	0	0	512	510	0	0	
11	0	0	0	0	511	509	0	0	
12	0	0	0	0	512	505	0	0	
13	0	0	0	0	514	510	0	0	
14	0	0	0	0	514	508	0	0	
15	0	0	0	0	514	508	0	0	
0	0	0	0	0	513	507	0	0	
1	0	0	0	0	513	508	0	0	
2	0	0	0	0	512	508	0	0	
3	0	0	0	0	512	507	0	0	
4	0	0	0	0	510	507	0	0	
5	0	0	0	0	510	505	0	0	
6	0	0	0	0	509	506	0	0	
7	0	0	0	0	510	507	0	0	
8	0	0	0	0	511	506	0	0	
9	0	0	0	0	510	505	0	0	
10	0	0	0	0	511	505	0	0	
11	0	0	0	0	509	507	0	0	
12	0	0	0	0	509	507	0	0	
13	0	0	0	0	509	506	0	0	
14	0	0	0	0	513	508	0	0	
15	0	0	0	0	517	508	0	0	
0	0	0	0	0	514	507	0	0	
1	0	0	0	0	516	509	0	0	
2	0	0	0	0	516	509	0	0	
3	0	0	0	0	518	508	0	0	
4	0	0	0	0	518	512	0	0	
5	0	0	0	0	513	508	0	0	
6	0	0	0	0	511	509	0	0	
7	0	0	0	0	509	508	0	0	
8	0	0	0	0	506	506	0	0	
9	0	0	0	0	504	509	0	0	
10	0	0	0	0	505	509	0	0	
11	0	0	0	0	509	508	0	0	
12	0	0	0	0	509	509	0	0	
13	0	0	0	0	513	508	0	0	
14	0	0	0	0	512	506	0	0	
15	0	0	0	0	510	510	0	0	
0	0	0	0	0	511	509	0	0	
1	0	0	0	0	511	509	0	0	
2	0	0	0	0	513	510	0	0	
3	0	0	0	0	513	508	0	0	
4	0	0	0	0	515	508	0	0	
5	0	0	0	0	515	510	0	0	
6	0	0	0	0	514	509	0	0	
7	0	0	0	0	515	509	0	0	
8	0	0	0	0	514	508	0	0	
9	0	0	0	0	513	510	0	0	
10	0	0	0	0	513	506	0	0	
11	0	0	0	0	512	507	0	0	
12	0	0	0	0	511	508	0	0	
13	0	0	0	0	510	510	0	0	
14	0	0	0	0	510	510	0	0	
15	0	0	0	0	505	508	0	0	
0	0	0	0	0	505	507	0	0	
1	0	0	0	0	508	507	0	0	
2	0	0	0	0	508	509	0	0	
3	0	0	0	0	509	508	0	0	
4	0	0	0	0	510	505	0	0	
5	0	0	0	0	511	509	0	0	
6	0	0	0	0	512	508	0	0	
7	0	0	0	0	513	508	0	0	
8	0	0	0	0	513	507	0	0	
9	0	0	0	0	512	509	0	0	
10	0	0	0	0	511	509	0	0	
11	0	0	0	0	508	508	0	0	
12	0	0	0	0	512	508	0	0	
13	0	0	0	0	511	511	0	0	
14	0	0	0	0	511	509	0	0	
15	0	0	0	0	510	508	0	0	
0	0	0	0	0	507	505	0	0	
1	0	0	0	0	508	506	0	0	
2	0	0	0	0	510	505	0	0	
3	0	0	0	0	511	506	0	0	
4	0	0	0	0	508	508	0	0	
5	0	0	0	0	508	508	0	0	
6	0	0	0	0	509	507	0	0	
7	0	0	0	0	510	507	0	0	
8	0	0	0	0	511	507	0	0	
9	0	0	0	0	512	508	0	0	
10	0	0	0	0	513	508	0	0	
11	0	0	0	0	513	511	0	0	
12	0	0	0	0	512	510	0	0	
13	0	0	0	0	512	511	0	0	
14	0	0	0	0	515	510	0	0	
15	0	0	0	0	512	509	0	0	
0	0	0	0	0	512	509	0	0	
1	0	0	0	0	511	508	0	0	
2	0	0	0	0	510	505	0	0	
3	0	0	0	0	513	506	0	0	
4	0	0	0	0	510	505	0	0	
5	0	0	0	0	510	506	0	0	
6	0	0	0	0	512	506	0	0	
7	0	0	0	0	514	505	0	0	
8	0	0	0	0	514	505	0	0	
9	0	0	0	0	513	505	0	0	
10	0	0	0	0	510	507	0	0	
11	0	0	0	0	510	509	0	0	
12	0	0	0	0	507	510	0	0	
13	0	0	0	0	507	507	0	0	
14	0	0	0	0	512	511	0	0	
15	0	0	0	0	513	510	0	0	
0	0	0	0	0	512	510	0	0	
1	0	0	0	0	517	509	0	0	
2	0	0	0	0	518	509	0	0	
3	0	0	0	0	513	509	0	0	
4	0	0	0	0	511	508	0	0	
5	0	0	0	0	511	505	0	0	
6	0	0	0	0	512	508	0	0	
7	0	0	0	0	512	509	0	0	
8	0	0	0	0	509	508	0	0	
9	0	0	0	0	507	507	0	0	
10	0	0	0	0	509	508	0	0	
11	0	0	0	0	509	508	0	0	
12	0	0	0	0	512	508	0	0	
13	0	0	0	0	510	508	0	0	
14	0	0	0	0	508	507	0	0	
15	0	0	0	0	511	508	0	0	
0	0	0	0	0	509	507	0	0	
1	0	0	0	0	507	508	0	0	
2	0	0	0	0	510	510	0	0	
3	0	0	0	0	511	510	0	0	
4	0	0	0	0	513	510	0	0	
5	0	0	0	0	511	509	0	0	
6	0	0	0	0	509	507	0	0	
7	0	0	0	0	511	510	0	0	
8	0	0	0	0	512	510	0	0	
9	0	0	0	0	513	509	0	0	
10	0	0	0	0	511	508	0	0	
11	0	0	0	0	512	506	0	0	
12	0	0	0	0	510	507	0	0	
13	0	0	0	0	509	507	0	0	
14	0	0	0	0	509	507	0	0	
15	0	0	0	0	510	506	0	0	
0	0	0	0	0	511	505	0	0	
1	0	0	0	0	508	507	0	0	
2	0	0	0	0	508	507	0	0	
3	0	0	0	0	511	507	0	0	
4	0	0	0	0	509	507	0	0	
5	0	0	0	0	509	507	0	0	
6	0	0	0	0	512	508	0	0	
7	0	0	0	0	512	508	0	0	
8	0	0	0	0	515	507	0	0	
9	0	0	0	0	512	508	0	0	
10	0	0	0	0	515	508	0	0	
11	0	0	0	0	515	509	0	0	
12	0	0	0	0	513	508	0	0	
13	0	0	0	0	511	509	0	0	
14	0	0	0	0	511	509	0	0	
15	0	0	0	0	510	508	0	0	
0	0	0	0	0	509	508	0	0	
1	0	0	0	0	509	508	0	0	
2	0	0	0	0	508	507	0	0	
3	0	0	0	0	509	508	0	0	
4	0	0	0	0	510	509	0	0	
5	0	0	0	0	508	506	0	0	
6	0	0	0	0	511	508	0	0	
7	0	0	0	0	511	505	0	0	
8	0	0	0	0	511	507	0	0	
9	0	0	0	0	513	506	0	0	
10	0	0	0	0	512	508	0	0	
11	0	0	0	0	513	508	0	0	
12	0	0	0	0	515	510	0	0	
13	0	0	0	0	514	509	0	0	
14	0	0	0	0	515	505	0	0	
15	0	0	0	0	513	509	0	0	
0	0	0	0	0	511	508	0	0	
1	0	0	0	0	512	508	0	0	
2	0	0	0	0	510	508	0	0	
3	0	0	0	0	508	507	0	0	
4	0	0	0	0	508	508	0	0	
5	0	0	0	0	509	507	0	0	
6	0	0	0	0	509	508	0	0	
7	0	0	0	0	508	508	0	0	
8	0	0	0	0	509	507	0	0	
9	0	0	0	0	509	507	0	0	
10	0	0	0	0	511	509	0	0	
11	0	0	0	0	509	506	0	0	
12	0	0	0	0	509	507	0	0	
13	0	0	0	0	511	506	0	0	
14	0	0	0	0	508	507	0	0	
15	0	0	0	0	511	508	0	0	
0	0	0	0	0	512	510	0	0	
1	0	0	0	0	513	510	0	0	
2	0	0	0	0	512	510	0	0	
3	0	0	0	0	512	508	0	0	
4	0	0	0	0	511	510	0	0	
5	0	0	0	0	510	510	0	0	
6	0	0	0	0	509	509	0	0	
7	0	0	0	0	510	509	0	0	
8	0	0	0	0	507	507	0	0	
9	0	0	0	0	507	507	0	0	
10	0	0	0	0	508	506	0	0	
11	0	0	0	0	510	506	0	0	
12	0	0	0	0	509	510	0	0	
13	0	0	0	0	508	508	0	0	
14	0	0	0	0	508	508	0	0	
15	0	0	0	0	509	508	0	0	
0	0	0	0	0	511	507	0	0	
1	0	0	0	0	510	508	0	0	
2	0	0	0	0	513	510	0	0	
3	0	0	0	0	515	509	0	0	
4	0	0	0	0	516	510	0	0	
5	0	0	0	0	515	509	0	0	
6	0	0	0	0	515	510	0	0	
7	0	0	0	0	511	511	0	0	
8	0	0	0	0	510	510	0	0	
9	0	0	0	0	510	509	0	0	
10	0	0	0	0	513	509	0	0	
11	0	0	0	0	514	507	0	0	
12	0	0	0	0	512	508	0	0	
13	0	0	0	0	509	506	0	0	
14	0	0	0	0	508	506	0	0	
15	0	0	0	0	509	508	0	0	
0	0	0	0	0	509	508	0	0	
1	0	0	0	0	512	508	0	0	
2	0	0	0	0	511	508	0	0	
3	0	0	0	0	509	506	0	0	
4	0	0	0	0	508	509	0	0	
5	0	0	0	0	511	508	0	0	
6	0	0	0	0	511	508	0	0	
7	0	0	0	0	513	510	0	0	
8	0	0	0	0	515	508	0	0	
9	0	0	0	0	513	510	0	0	
10	0	0	0	0	517	508	0	0	
11	0	0	0	0	515	508	0	0	
12	0	0	0	0	513	508	0	0	
13	0	0	0	0	509	511	0	0	
14	0	0	0	0	508	508	0	0	
15	0	0	0	0	509	507	0	0	
0	0	0	0	0	508	506	0	0	
1	0	0	0	0	510	505	0	0	
2	0	0	0	0	509	505	0	0	
3	0	0	0	0	508	506	0	0	
4	0	0	0	0	508	505	0	0	
5	0	0	0	0	511	503	0	0	
6	0	0	0	0	511	508	0	0	
7	0	0	0	0	509	508	0	0	
8	0	0	0	0	508	509	0	0	
9	0	0	0	0	511	508	0	0	
10	0	0	0	0	511	506	0	0	
11	0	0	0	0	511	508	0	0	
12	0	0	0	0	509	510	0	0	
13	0	0	0	0	511	512	0	0	
14	0	0	0	0	514	510	0	0	
15	0	0	0	0	513	509	0	0	
0	0	0	0	0	513	510	0	0	
1	0	0	0	0	514	509	0	0	
2	0	0	0	0	509	511	0	0	
3	0	0	0	0	507	508	0	0	
4	0	0	0	0	509	508	0	0	
5	0	0	0	0	508	508	0	0	
6	0	0	0	0	508	509	0	0	
7	0	0	0	0	508	506	0	0	
8	0	0	0	0	509	507	0	0	
9	0	0	0	0	510	505	0	0	
10	0	0	0	0	507	506	0	0	
11	0	0	0	0	509	508	0	0	
12	0	0	0	0	511	508	0	0	
13	0	0	0	0	511	508	0	0	
14	0	0	0	0	510	509	0	0	
15	0	0	0	0	510	510	0	0	
0	0	0	0	0	509	509	0	0	
1	0	0	0	0	510	510	0	0	
2	0	0	0	0	511	510	0	0	
3	0	0	0	0	513	508	0	0	
4	0	0	0	0	515	509	0	0	
5	0	0	0	0	516	506	0	0	
6	0	0	0	0	514	508	0	0	
7	0	0	0	0	514	507	0	0	
8	0	0	0	0	518	508	0	0	
9	0	0	0	0	515	506	0	0	
10	0	0	0	0	510	505	0	0	
11	0	0	0	0	508	508	0	0	
12	0	0	0	0	510	506	0	0	
13	0	0	0	0	510	505	0	0	
14	0	0	0	0	511	508	0	0	
15	0	0	0	0	511	507	0	0	
0	0	0	0	0	513	508	0	0	
1	0	0	0	0	512	508	0	0	
2	0	0	0	0	512	509	0	0	
3	0	0	0	0	513	507	0	0	
4	0	0	0	0	514	508	0	0	
5	0	0	0	0	511	509	0	0	
6	0	0	0	0	514	510	0	0	
7	0	0	0	0	513	509	0	0	
8	0	0	0	0	511	511	0	0	
9	0	0	0	0	515	509	0	0	
10	0	0	0	0	514	508	0	0	
11	0	0	0	0	512	506	0	0	
12	0	0	0	0	511	510	0	0	
13	0	0	0	0	509	505	0	0	
14	0	0	0	0	508	507	0	0	
15	0	0	0	0	509	508	0	0	
0	0	0	0	0	506	510	0	0	
1	0	0	0	0	508	506	0	0	
2	0	0	0	0	509	507	0	0	
3	0	0	0	0	514	508	0	0	
4	0	0	0	0	512	507	0	0	
5	0	0	0	0	517	507	0	0	
6	0	0	0	0	516	508	0	0	
7	0	0	0	0	511	506	0	0	
8	0	0	0	0	511	507	0	0	
9	0	0	0	0	510	509	0	0	
10	0	0	0	0	512	511	0	0	
11	0	0	0	0	512	508	0	0	
12	0	0	0	0	515	509	0	0	
13	0	0	0	0	512	507	0	0	
14	0	0	0	0	511	507	0	0	
15	0	0	0	0	513	506	0	0	
0	0	0	0	0	511	507	0	0	
1	0	0	0	0	512	508	0	0	
2	0	0	0	0	511	508	0	0	
3	0	0	0	0	508	507	0	0	
4	0	0	0	0	508	505	0	0	
5	0	0	0	0	508	507	0	0	
6	0	0	0	0	512	505	0	0	
7	0	0	0	0	510	507	0	0	
8	0	0	0	0	509	509	0	0	
9	0	0	0	0	512	510	0	0	
10	0	0	0	0	512	511	0	0	
11	0	0	0	0	514	511	0	0	
12	0	0	0	0	515	508	0	0	
13	0	0	0	0	514	508	0	0	
14	0	0	0	0	512	508	0	0	
15	0	0	0	0	513	510	0	0	
0	0	0	0	0	513	509	0	0	
1	0	0	0	0	511	510	0	0	
2	0	0	0	0	509	506	0	0	
3	0	0	0	0	507	507	0	0	
4	0	0	0	0	506	508	0	0	
5	0	0	0	0	508	506	0	0	
6	0	0	0	0	511	510	0	0	
7	0	0	0	0	512	508	0	0	
8	0	0	0	0	511	507	0	0	
9	0	0	0	0	512	508	0	0	
10	0	0	0	0	515	506	0	0	
11	0	0	0	0	514	505	0	0	
12	0	0	0	0	511	506	0	0	
13	0	0	0	0	512	508	0	0	
14	0	0	0	0	511	507	0	0	
15	0	0	0	0	512	509	0	0	
0	0	0	0	0	511	506	0	0	
1	0	0	0	0	511	510	0	0	
2	0	0	0	0	511	510	0	0	
3	0	0	0	0	510	508	0	0	
4	0	0	0	0	511	507	0	0	
5	0	0	0	0	513	509	0	0	
6	0	0	0	0	512	508	0	0	
7	0	0	0	0	509	508	0	0	
8	0	0	0	0	508	507	0	0	
9	0	0	0	0	508	506	0	0	
10	0	0	0	0	508	507	0	0	
11	0	0	0	0	512	505	0	0	
12	0	0	0	0	510	505	0	0	
13	0	0	0	0	509	505	0	0	
14	0	0	0	0	512	507	0	0	
15	0	0	0	0	511	507	0	0	
0	0	0	0	0	513	506	0	0	
1	0	0	0	0	512	509	0	0	
2	0	0	0	0	513	509	0	0	
3	0	0	0	0	513	509	0	0	
4	0	0	0	0	511	510	0	0	
5	0	0	0	0	511	511	0	0	
6	0	0	0	0	512	510	0	0	
7	0	0	0	0	513	510	0	0	
8	0	0	0	0	514	509	0	0	
9	0	0	0	0	513	508	0	0	
10	0	0	0	0	514	508	0	0	
11	0	0	0	0	515	508	0	0	
12	0	0	0	0	515	507	0	0	
13	0	0	0	0	511	508	0	0	
14	0	0	0	0	513	506	0	0	
15	0	0	0	0	513	508	0	0	
0	0	0	0	0	508	508	0	0	
1	0	0	0	0	512	508	0	0	
2	0	0	0	0	511	505	0	0	
3	0	0	0	0	511	507	0	0	
4	0	0	0	0	511	509	0	0	
5	0	0	0	0	508	508	0	0	
6	0	0	0	0	512	509	0	0	
7	0	0	0	0	512	512	0	0	
8	0	0	0	0	512	509	0	0	
9	0	0	0	0	513	509	0	0	
10	0	0	0	0	513	509	0	0	
11	0	0	0	0	514	510	0	0	
12	0	0	0	0	513	508	0	0	
13	0	0	0	0	513	508	0	0	
14	0	0	0	0	513	508	0	0	
15	0	0	0	0	510	508	0	0	
0	0	0	0	0	511	508	0	0	
1	0	0	0	0	509	507	0	0	
2	0	0	0	0	506	508	0	0	
3	0	0	0	0	507	505	0	0	
4	0	0	0	0	508	507	0	0	
5	0	0	0	0	509	507	0	0	
6	0	0	0	0	507	508	0	0	
7	0	0	0	0	507	507	0	0	
8	0	0	0	0	508	506	0	0	
9	0	0	0	0	511	509	0	0	
10	0	0	0	0	512	508	0	0	
11	0	0	0	0	513	508	0	0	
12	0	0	0	0	513	508	0	0	
13	0	0	0	0	512	510	0	0	
14	0	0	0	0	513	509	0	0	
15	0	0	0	0	512	508	0	0	
0	0	0	0	0	511	509	0	0	
1	0	0	0	0	511	507	0	0	
2	0	0	0	0	511	508	0	0	
3	0	0	0	0	511	507	0	0	
4	0	0	0	0	509	507	0	0	
5	0	0	0	0	507	508	0	0	
6	0	0	0	0	507	508	0	0	
7	0	0	0	0	508	507	0	0	
8	0	0	0	0	509	509	0	0	
9	0	0	0	0	508	508	0	0	
10	0	0	0	0	508	506	0	0	
11	0	0	0	0	510	506	0	0	
12	0	0	0	0	509	508	0	0	
13	0	0	0	0	513	508	0	0	
14	0	0	0	0	512	506	0	0	
15	0	0	0	0	511	508	0	0	
0	0	0	0	0	512	511	0	0	
1	0	0	0	0	514	508	0	0	
2	0	0	0	0	515	506	0	0	
3	0	0	0	0	516	510	0	0	
4	0	0	0	0	515	509	0	0	
5	0	0	0	0	513	509	0	0	
6	0	0	0	0	506	508	0	0	
7	0	0	0	0	508	509	0	0	
8	0	0	0	0	510	507	0	0	
9	0	0	0	0	509	508	0	0	
10	0	0	0	0	509	508	0	0	
11	0	0	0	0	510	509	0	0	
12	0	0	0	0	508	508	0	0	
13	0	0	0	0	510	507	0	0	
14	0	0	0	0	512	508	0	0	
15	0	0	0	0	511	507	0	0	
0	0	0	0	0	511	506	0	0	
1	0	0	0	0	516	510	0	0	
2	0	0	0	0	519	508	0	0	
3	0	0	0	0	515	509	0	0	
4	0	0	0	0	515	510	0	0	
5	0	0	0	0	511	510	0	0	
6	0	0	0	0	512	510	0	0	
7	0	0	0	0	511	511	0	0	
8	0	0	0	0	511	511	0	0	
9	0	0	0	0	511	509	0	0	
10	0	0	0	0	512	511	0	0	
11	0	0	0	0	512	510	0	0	
12	0	0	0	0	507	506	0	0	
13	0	0	0	0	511	508	0	0	
14	0	0	0	0	507	508	0	0	
15	0	0	0	0	508	505	0	0	
0	0	0	0	0	505	506	0	0	
1	0	0	0	0	507	503	0	0	
2	0	0	0	0	509	507	0	0	
3	0	0	0	0	510	508	0	0	
4	0	0	0	0	512	507	0	0	
5	0	0	0	0	513	508	0	0	
6	0	0	0	0	513	507	0	0	
7	0	0	0	0	512	510	0	0	
8	0	0	0	0	511	510	0	0	
9	0	0	0	0	512	509	0	0	
10	0	0	0	0	513	508	0	0	
11	0	0	0	0	512	510	0	0	
12	0	0	0	0	513	508	0	0	
13	0	0	0	0	512	507	0	0	
14	0	0	0	0	511	509	0	0	
15	0	0	0	0	510	506	0	0	
0	0	0	0	0	510	509	0	0	
1	0	0	0	0	511	508	0	0	
2	0	0	0	0	508	507	0	0	
3	0	0	0	0	508	508	0	0	
4	0	0	0	0	508	507	0	0	
5	0	0	0	0	509	508	0	0	
6	0	0	0	0	511	508	0	0	
7	0	0	0	0	512	507	0	0	
8	0	0	0	0	510	507	0	0	
9	0	0	0	0	510	506	0	0	
10	0	0	0	0	512	508	0	0	
11	0	0	0	0	513	507	0	0	
12	0	0	0	0	512	506	0	0	
13	0	0	0	0	511	506	0	0	
14	0	0	0	0	513	509	0	0	
15	0	0	0	0	513	508	0	0	
0	0	0	0	0	513	510	0	0	
1	0	0	0	0	513	509	0	0	
2	0	0	0	0	512	508	0	0	
3	0	0	0	0	512	507	0	0	
4	0	0	0	0	510	507	0	0	
5	0	0	0	0	510	508	0	0	
6	0	0	0	0	508	510	0	0	
7	0	0	0	0	508	510	0	0	
8	0	0	0	0	509	509	0	0	
9	0	0	0	0	508	507	0	0	
10	0	0	0	0	507	505	0	0	
11	0	0	0	0	507	507	0	0	
12	0	0	0	0	508	504	0	0	
13	0	0	0	0	510	507	0	0	
14	0	0	0	0	514	508	0	0	
15	0	0	0	0	513	508	0	0	
0	0	0	0	0	516	508	0	0	
1	0	0	0	0	516	507	0	0	
2	0	0	0	0	512	508	0	0	
3	0	0	0	0	513	508	0	0	
4	0	0	0	0	513	511	0	0	
5	0	0	0	0	512	509	0	0	
6	0	0	0	0	511	508	0	0	
7	0	0	0	0	512	509	0	0	
8	0	0	0	0	512	509	0	0	
9	0	0	0	0	511	509	0	0	
10	0	0	0	0	509	509	0	0	
11	0	0	0	0	509	508	0	0	
12	0	0	0	0	510	508	0	0	
13	0	0	0	0	511	508	0	0	
14	0	0	0	0	507	506	0	0	
15	0	0	0	0	508	508	0	0	
0	0	0	0	0	508	507	0	0	
1	0	0	0	0	509	509	0	0	
2	0	0	0	0	508	506	0	0	
3	0	0	0	0	511	509	0	0	
4	0	0	0	0	511	510	0	0	
5	0	0	0	0	513	508	0	0	
6	0	0	0	0	515	510	0	0	
7	0	0	0	0	512	508	0	0	
8	0	0	0	0	515	510	0	0	
9	0	0	0	0	512	508	0	0	
10	0	0	0	0	511	509	0	0	
11	0	0	0	0	507	507	0	0	
12	0	0	0	0	504	507	0	0	
13	0	0	0	0	506	506	0	0	
14	0	0	0	0	508	508	0	0	
15	0	0	0	0	508	507	0	0	
0	0	0	0	0	511	509	0	0	
1	0	0	0	0	513	506	0	0	
2	0	0	0	0	515	508	0	0	
3	0	0	0	0	511	509	0	0	
4	0	0	0	0	511	509	0	0	
5	0	0	0	0	509	508	0	0	
6	0	0	0	0	512	509	0	0	
7	0	0	0	0	511	511	0	0	
8	0	0	0	0	511	511	0	0	
9	0	0	0	0	512	508	0	0	
10	0	0	0	0	511	508	0	0	
11	0	0	0	0	511	508	0	0	
12	0	0	0	0	512	510	0	0	
13	0	0	0	0	512	511	0	0	
14	0	0	0	0	512	511	0	0	
15	0	0	0	0	510	506	0	0	
0	0	0	0	0	513	508	0	0	
1	0	0	0	0	510	508	0	0	
2	0	0	0	0	510	507	0	0	
3	0	0	0	0	509	504	0	0	
4	0	0	0	0	510	507	0	0	
5	0	0	0	0	511	507	0	0	
6	0	0	0	0	508	505	0	0	
7	0	0	0	0	506	507	0	0	
8	0	0	0	0	510	507	0	0	
9	0	0	0	0	512	508	0	0	
10	0	0	0	0	513	509	0	0	
11	0	0	0	0	513	509	0	0	
12	0	0	0	0	518	509	0	0	
13	0	0	0	0	516	509	0	0	
14	0	0	0	0	515	510	0	0	
15	0	0	0	0	512	509	0	0	
0	0	0	0	0	511	510	0	0	
1	0	0	0	0	511	508	0	0	
2	0	0	0	0	510	508	0	0	
3	0	0	0	0	510	509	0	0	
4	0	0	0	0	506	509	0	0	
5	0	0	0	0	507	510	0	0	
6	0	0	0	0	506	508	0	0	
7	0	0	0	0	508	505	0	0	
8	0	0	0	0	509	506	0	0	
9	0	0	0	0	512	507	0	0	
10	0	0	0	0	510	506	0	0	
11	0	0	0	0	512	509	0	0	
12	0	0	0	0	513	507	0	0	
13	0	0	0	0	513	506	0	0	
14	0	0	0	0	509	505	0	0	
15	0	0	0	0	508	508	0	0	
0	0	0	0	0	510	505	0	0	
1	0	0	0	0	511	509	0	0	
2	0	0	0	0	513	511	0	0	
3	0	0	0	0	513	510	0	0	
4	0	0	0	0	513	509	0	0	
5	0	0	0	0	513	510	0	0	
6	0	0	0	0	513	507	0	0	
7	0	0	0	0	511	509	0	0	
8	0	0	0	0	512	507	0	0	
9	0	0	0	0	511	507	0	0	
10	0	0	0	0	508	508	0	0	
11	0	0	0	0	510	506	0	0	
12	0	0	0	0	509	509	0	0	
13	0	0	0	0	509	507	0	0	
14	0	0	0	0	508	505	0	0	
15	0	0	0	0	508	507	0	0	
0	0	0	0	0	509	507	0	0	
1	0	0	0	0	511	509	0	0	
2	0	0	0	0	510	508	0	0	
3	0	0	0	0	514	508	0	0	
4	0	0	0	0	514	508	0	0	
5	0	0	0	0	514	507	0	0	
6	0	0	0	0	512	509	0	0	
7	0	0	0	0	513	509	0	0	
8	0	0	0	0	514	510	0	0	
9	0	0	0	0	515	509	0	0	
10	0	0	0	0	510	507	0	0	
11	0	0	0	0	508	510	0	0	
12	0	0	0	0	508	508	0	0	
13	0	0	0	0	508	509	0	0	
14	0	0	0	0	508	508	0	0	
15	0	0	0	0	512	508	0	0	
0	0	0	0	0	512	508	0	0	
1	0	0	0	0	511	507	0	0	
2	0	0	0	0	511	507	0	0	
3	0	0	0	0	514	508	0	0	
4	0	0	0	0	515	508	0	0	
5	0	0	0	0	512	508	0	0	
6	0	0	0	0	511	507	0	0	
7	0	0	0	0	512	508	0	0	
8	0	0	0	0	513	511	0	0	
9	0	0	0	0	512	510	0	0	
10	0	0	0	0	511	510	0	0	
11	0	0	0	0	511	508	0	0	
12	0	0	0	0	513	508	0	0	
13	0	0	0	0	511	508	0	0	
14	0	0	0	0	511	508	0	0	
15	0	0	0	0	511	506	0	0	
0	0	0	0	0	509	505	0	0	
1	0	0	0	0	510	505	0	0	
2	0	0	0	0	511	506	0	0	
3	0	0	0	0	509	510	0	0	
4	0	0	0	0	509	507	0	0	
5	0	0	0	0	510	507	0	0	
6	0	0	0	0	509	507	0	0	
7	0	0	0	0	510	507	0	0	
8	0	0	0	0	509	511	0	0	
9	0	0	0	0	508	510	0	0	
10	0	0	0	0	512	508	0	0	
11	0	0	0	0	512	507	0	0	
12	0	0	0	0	516	507	0	0	
13	0	0	0	0	515	506	0	0	
14	0	0	0	0	516	508	0	0	
15	0	0	0	0	515	509	0	0	
0	0	0	0	0	513	506	0	0	
1	0	0	0	0	511	508	0	0	
2	0	0	0	0	510	508	0	0	
3	0	0	0	0	505	507	0	0	
4	0	0	0	0	508	507	0	0	
5	0	0	0	0	509	507	0	0	
6	0	0	0	0	508	507	0	0	
7	0	0	0	0	508	507	0	0	
8	0	0	0	0	508	507	0	0	
9	0	0	0	0	510	508	0	0	
10	0	0	0	0	515	508	0	0	
11	0	0	0	0	513	505	0	0	
12	0	0	0	0	511	506	0	0	
13	0	0	0	0	511	507	0	0	
14	0	0	0	0	510	509	0	0	
15	0	0	0	0	511	510	0	0	
0	0	0	0	0	511	509	0	0	
1	0	0	0	0	511	510	0	0	
2	0	0	0	0	511	512	0	0	
3	0	0	0	0	511	509	0	0	
4	0	0	0	0	513	508	0	0	
5	0	0	0	0	514	510	0	0	
6	0	0	0	0	512	511	0	0	
7	0	0	0	0	510	509	0	0	
8	0	0	0	0	509	510	0	0	
9	0	0	0	0	507	507	0	0	
10	0	0	0	0	509	504	0	0	
11	0	0	0	0	508	506	0	0	
12	0	0	0	0	508	507	0	0	
13	0	0	0	0	507	507	0	0	
14	0	0	0	0	508	507	0	0	
15	0	0	0	0	510	509	0	0	
0	0	0	0	0	511	509	0	0	
1	0	0	0	0	511	508	0	0	
2	0	0	0	0	512	511	0	0	
3	0	0	0	0	512	509	0	0	
4	0	0	0	0	513	509	0	0	
5	0	0	0	0	513	509	0	0	
6	0	0	0	0	511	509	0	0	
7	0	0	0	0	513	509	0	0	
8	0	0	0	0	512	510	0	0	
9	0	0	0	0	514	506	0	0	
10	0	0	0	0	512	507	0	0	
11	0	0	0	0	511	508	0	0	
12	0	0	0	0	510	508	0	0	
13	0	0	0	0	510	510	0	0	
14	0	0	0	0	508	507	0	0	
15	0	0	0	0	510	507	0	0	
0	0	0	0	0	507	508	0	0	
1	0	0	0	0	506	507	0	0	
2	0	0	0	0	508	508	0	0	
3	0	0	0	0	509	505	0	0	
4	0	0	0	0	507	507	0	0	
5	0	0	0	0	508	508	0	0	
6	0	0	0	0	509	508	0	0	
7	0	0	0	0	510	510	0	0	
8	0	0	0	0	510	508	0	0	
9	0	0	0	0	508	509	0	0	
10	0	0	0	0	511	507	0	0	
11	0	0	0	0	513	509	0	0	
12	0	0	0	0	513	511	0	0	
13	0	0	0	0	513	508	0	0	
14	0	0	0	0	511	508	0	0	
15	0	0	0	0	509	507	0	0	
0	0	0	0	0	509	506	0	0	
1	0	0	0	0	510	508	0	0	
2	0	0	0	0	509	508	0	0	
3	0	0	0	0	511	508	0	0	
4	0	0	0	0	516	506	0	0	
5	0	0	0	0	518	508	0	0	
6	0	0	0	0	515	508	0	0	
7	0	0	0	0	512	506	0	0	
8	0	0	0	0	508	508	0	0	
9	0	0	0	0	511	508	0	0	
10	0	0	0	0	511	510	0	0	
11	0	0	0	0	511	510	0	0	
12	0	0	0	0	514	509	0	0	
13	0	0	0	0	512	509	0	0	
14	0	0	0	0	513	508	0	0	
15	0	0	0	0	513	508	0	0	
0	0	0	0	0	512	506	0	0	
1	0	0	0	0	511	507	0	0	
2	0	0	0	0	512	508	0	0	
3	0	0	0	0	511	508	0	0	
4	0	0	0	0	509	508	0	0	
5	0	0	0	0	510	507	0	0	
6	0	0	0	0	510	507	0	0	
7	0	0	0	0	509	505	0	0	
8	0	0	0	0	512	508	0	0	
9	0	0	0	0	511	509	0	0	
10	0	0	0	0	511	508	0	0	
11	0	0	0	0	510	509	0	0	
12	0	0	0	0	510	509	0	0	
13	0	0	0	0	513	508	0	0	
14	0	0	0	0	514	508	0	0	
15	0	0	0	0	513	507	0	0	
0	0	0	0	0	515	508	0	0	
1	0	0	0	0	515	512	0	0	
2	0	0	0	0	512	508	0	0	
3	0	0	0	0	512	508	0	0	
4	0	0	0	0	514	507	0	0	
5	0	0	0	0	512	508	0	0	
6	0	0	0	0	510	508	0	0	
7	0	0	0	0	511	508	0	0	
8	0	0	0	0	508	508	0	0	
9	0	0	0	0	507	509	0	0	
10	0	0	0	0	507	507	0	0	
11	0	0	0	0	506	508	0	0	
12	0	0	0	0	507	506	0	0	
13	0	0	0	0	508	506	0	0	
14	0	0	0	0	510	507	0	0	
15	0	0	0	0	508	508	0	0	
0	0	0	0	0	509	510	0	0	
1	0	0	0	0	512	507	0	0	
2	0	0	0	0	510	507	0	0	
3	0	0	0	0	510	507	0	0	
4	0	0	0	0	513	508	0	0	
5	0	0	0	0	511	507	0	0	
6	0	0	0	0	512	509	0	0	
7	0	0	0	0	511	511	0	0	
8	0	0	0	0	512	511	0	0	
9	0	0	0	0	513	510	0	0	
10	0	0	0	0	514	509	0	0	
11	0	0	0	0	511	510	0	0	
12	0	0	0	0	508	509	0	0	
13	0	0	0	0	506	507	0	0	
14	0	0	0	0	506	507	0	0	
15	0	0	0	0	508	507	0	0	
0	0	0	0	0	508	507	0	0	
1	0	0	0	0	511	507	0	0	
2	0	0	0	0	511	507	0	0	
3	0	0	0	0	508	509	0	0	
4	0	0	0	0	510	507	0	0	
5	0	0	0	0	512	507	0	0	
6	0	0	0	0	513	508	0	0	
7	0	0	0	0	513	508	0	0	
8	0	0	0	0	515	510	0	0	
9	0	0	0	0	513	510	0	0	
10	0	0	0	0	513	510	0	0	
11	0	0	0	0	512	510	0	0	
12	0	0	0	0	513	510	0	0	
13	0	0	0	0	512	511	0	0	
14	0	0	0	0	512	510	0	0	
15	0	0	0	0	512	508	0	0	
0	0	0	0	0	511	508	0	0	
1	0	0	0	0	510	506	0	0	
2	0	0	0	0	511	506	0	0	
3	0	0	0	0	511	505	0	0	
4	0	0	0	0	508	504	0	0	
5	0	0	0	0	511	508	0	0	
6	0	0	0	0	510	507	0	0	
7	0	0	0	0	509	506	0	0	
8	0	0	0	0	511	506	0	0	
9	0	0	0	0	512	506	0	0	
10	0	0	0	0	511	508	0	0	
11	0	0	0	0	512	510	0	0	
12	0	0	0	0	513	510	0	0	
13	0	0	0	0	511	509	0	0	
14	0	0	0	0	514	506	0	0	
15	0	0	0	0	513	508	0	0	
0	0	0	0	0	514	510	0	0	
1	0	0	0	0	513	509	0	0	
2	0	0	0	0	512	508	0	0	
3	0	0	0	0	511	509	0	0	
4	0	0	0	0	512	508	0	0	
5	0	0	0	0	510	508	0	0	
6	0	0	0	0	508	507	0	0	
7	0	0	0	0	511	506	0	0	
8	0	0	0	0	508	507	0	0	
9	0	0	0	0	508	506	0	0	
10	0	0	0	0	511	505	0	0	
11	0	0	0	0	509	508	0	0	
12	0	0	0	0	511	506	0	0	
13	0	0	0	0	508	507	0	0	
14	0	0	0	0	511	509	0	0	
15	0	0	0	0	511	510	0	0	
0	0	0	0	0	511	512	0	0	
1	0	0	0	0	515	508	0	0	
2	0	0	0	0	511	507	0	0	
3	0	0	0	0	513	507	0	0	
4	0	0	0	0	513	507	0	0	
5	0	0	0	0	513	508	0	0	
6	0	0	0	0	513	506	0	0	
7	0	0	0	0	511	506	0	0	
8	0	0	0	0	512	505	0	0	
9	0	0	0	0	510	507	0	0	
10	0	0	0	0	508	508	0	0	
11	0	0	0	0	511	508	0	0	
12	0	0	0	0	510	507	0	0	
13	0	0	0	0	509	505	0	0	
14	0	0	0	0	511	508	0	0	
15	0	0	0	0	509	508	0	0	
0	0	0	0	0	509	508	0	0	
1	0	0	0	0	509	509	0	0	
2	0	0	0	0	510	506	0	0	
3	0	0	0	0	512	508	0	0	
4	0	0	0	0	514	508	0	0	
5	0	0	0	0	513	508	0	0	
6	0	0	0	0	513	506	0	0	
7	0	0	0	0	513	509	0	0	
8	0	0	0	0	511	510	0	0	
9	0	0	0	0	514	509	0	0	
10	0	0	0	0	513	509	0	0	
11	0	0	0	0	510	510	0	0	
12	0	0	0	0	513	509	0	0	
13	0	0	0	0	510	508	0	0	
14	0	0	0	0	510	507	0	0	
15	0	0	0	0	509	507	0	0	
0	0	0	0	0	509	508	0	0	
1	0	0	0	0	508	508	0	0	
2	0	0	0	0	511	508	0	0	
3	0	0	0	0	509	506	0	0	
4	0	0	0	0	511	508	0	0	
5	0	0	0	0	513	507	0	0	
6	0	0	0	0	511	505	0	0	
7	0	0	0	0	513	509	0	0	
8	0	0	0	0	515	508	0	0	
9	0	0	0	0	515	508	0	0	
10	0	0	0	0	511	509	0	0	
11	0	0	0	0	511	510	0	0	
12	0	0	0	0	512	511	0	0	
13	0	0	0	0	512	510	0	0	
14	0	0	0	0	511	506	0	0	
15	0	0	0	0	513	509	0	0	
0	0	0	0	0	512	505	0	0	
1	0	0	0	0	510	506	0	0	
2	0	0	0	0	510	508	0	0	
3	0	0	0	0	510	507	0	0	
4	0	0	0	0	512	508	0	0	
5	0	0	0	0	509	507	0	0	
6	0	0	0	0	505	506	0	0	
7	0	0	0	0	509	507	0	0	
8	0	0	0	0	509	506	0	0	
9	0	0	0	0	508	506	0	0	
10	0	0	0	0	512	510	0	0	
11	0	0	0	0	510	510	0	0	
12	0	0	0	0	512	512	0	0	
13	0	0	0	0	511	509	0	0	
14	0	0	0	0	511	509	0	0	
15	0	0	0	0	513	510	0	0	
0	0	0	0	0	512	508	0	0	
1	0	0	0	0	513	508	0	0	
2	0	0	0	0	512	507	0	0	
3	0	0	0	0	513	506	0	0	
4	0	0	0	0	512	507	0	0	
5	0	0	0	0	512	508	0	0	
6	0	0	0	0	511	507	0	0	
7	0	0	0	0	511	507	0	0	
8	0	0	0	0	512	508	0	0	
9	0	0	0	0	512	508	0	0	
10	0	0	0	0	511	507	0	0	
11	0	0	0	0	508	507	0	0	
12	0	0	0	0	509	507	0	0	
13	0	0	0	0	510	510	0	0	
14	0	0	0	0	510	511	0	0	
15	0	0	0	0	512	512	0	0	
0	0	0	0	0	511	510	0	0	
1	0	0	0	0	512	511	0	0	
2	0	0	0	0	513	511	0	0	
3	0	0	0	0	514	510	0	0	
4	0	0	0	0	513	510	0	0	
5	0	0	0	0	511	507	0	0	
6	0	0	0	0	511	507	0	0	
7	0	0	0	0	510	509	0	0	
8	0	0	0	0	508	504	0	0	
9	0	0	0	0	511	507	0	0	
10	0	0	0	0	509	507	0	0	
11	0	0	0	0	509	506	0	0	
12	0	0	0	0	506	507	0	0	
13	0	0	0	0	504	505	0	0	
14	0	0	0	0	506	506	0	0	
15	0	0	0	0	507	509	0	0	
0	0	0	0	0	506	507	0	0	
1	0	0	0	0	512	508	0	0	
2	0	0	0	0	517	508	0	0	
3	0	0	0	0	515	508	0	0	
4	0	0	0	0	513	507	0	0	
5	0	0	0	0	513	508	0	0	
6	0	0	0	0	509	509	0	0	
7	0	0	0	0	514	510	0	0	
8	0	0	0	0	515	509	0	0	
9	0	0	0	0	515	509	0	0	
10	0	0	0	0	515	507	0	0	
11	0	0	0	0	515	507	0	0	
12	0	0	0	0	513	508	0	0	
13	0	0	0	0	509	507	0	0	
14	0	0	0	0	509	507	0	0	
15	0	0	0	0	508	507	0	0	
0	0	0	0	0	507	506	0	0	
1	0	0	0	0	507	510	0	0	
2	0	0	0	0	508	507	0	0	
3	0	0	0	0	508	506	0	0	
4	0	0	0	0	510	506	0	0	
5	0	0	0	0	508	508	0	0	
6	0	0	0	0	508	508	0	0	
7	0	0	0	0	514	509	0	0	
8	0	0	0	0	512	508	0	0	
9	0	0	0	0	513	509	0	0	
10	0	0	0	0	510	509	0	0	
11	0	0	0	0	512	509	0	0	
12	0	0	0	0	513	509	0	0	
13	0	0	0	0	515	511	0	0	
14	0	0	0	0	513	510	0	0	
15	0	0	0	0	512	508	0	0	
0	0	0	0	0	510	505	0	0	
1	0	0	0	0	511	505	0	0	
2	0	0	0	0	511	507	0	0	
3	0	0	0	0	510	505	0	0	
4	0	0	0	0	511	506	0	0	
5	0	0	0	0	510	506	0	0	
6	0	0	0	0	511	506	0	0	
7	0	0	0	0	511	510	0	0	
8	0	0	0	0	512	509	0	0	
9	0	0	0	0	511	510	0	0	
10	0	0	0	0	511	510	0	0	
11	0	0	0	0	511	511	0	0	
12	0	0	0	0	514	509	0	0	
13	0	0	0	0	511	509	0	0	
14	0	0	0	0	513	508	0	0	
15	0	0	0	0	512	509	0	0	
0	0	0	0	0	513	508	0	0	
1	0	0	0	0	515	508	0	0	
2	0	0	0	0	511	507	0	0	
3	0	0	0	0	510	506	0	0	
4	0	0	0	0	511	505	0	0	
5	0	0	0	0	509	507	0	0	
6	0	0	0	0	510	508	0	0	
7	0	0	0	0	508	509	0	0	
8	0	0	0	0	506	507	0	0	
9	0	0	0	0	509	506	0	0	
10	0	0	0	0	508	508	0	0	
11	0	0	0	0	509	509	0	0	
12	0	0	0	0	508	508	0	0	
13	0	0	0	0	512	508	0	0	
14	0	0	0	0	512	507	0	0	
15	0	0	0	0	511	508	0	0	
0	0	0	0	0	513	509	0	0	
1	0	0	0	0	512	509	0	0	
2	0	0	0	0	510	508	0	0	
3	0	0	0	0	511	509	0	0	
4	0	0	0	0	512	510	0	0	
5	0	0	0	0	511	510	0	0	
6	0	0	0	0	510	507	0	0	
7	0	0	0	0	511	507	0	0	
8	0	0	0	0	511	505	0	0	
9	0	0	0	0	508	506	0	0	
10	0	0	0	0	510	508	0	0	
11	0	0	0	0	510	507	0	0	
12	0	0	0	0	509	507	0	0	
13	0	0	0	0	509	507	0	0	
14	0	0	0	0	506	505	0	0	
15	0	0	0	0	507	503	0	0	
0	0	0	0	0	510	505	0	0	
1	0	0	0	0	512	510	0	0	
2	0	0	0	0	515	507	0	0	
3	0	0	0	0	513	509	0	0	
4	0	0	0	0	514	509	0	0	
5	0	0	0	0	513	508	0	0	
6	0	0	0	0	513	508	0	0	
7	0	0	0	0	514	509	0	0	
8	0	0	0	0	515	511	0	0	
9	0	0	0	0	514	508	0	0	
10	0	0	0	0	512	510	0	0	
11	0	0	0	0	512	508	0	0	
12	0	0	0	0	511	506	0	0	
13	0	0	0	0	511	508	0	0	
14	0	0	0	0	508	509	0	0	
15	0	0	0	0	509	508	0	0	
0	0	0	0	0	510	506	0	0	
1	0	0	0	0	509	505	0	0	
2	0	0	0	0	508	509	0	0	
3	0	0	0	0	508	508	0	0	
4	0	0	0	0	509	506	0	0	
5	0	0	0	0	509	508	0	0	
6	0	0	0	0	511	508	0	0	
7	0	0	0	0	512	509	0	0	
8	0	0	0	0	511	509	0	0	
9	0	0	0	0	513	509	0	0	
10	0	0	0	0	514	510	0	0	
11	0	0	0	0	516	508	0	0	
12	0	0	0	0	517	509	0	0	
13	0	0	0	0	515	509	0	0	
14	0	0	0	0	513	508	0	0	
15	0	0	0	0	512	507	0	0	
0	0	0	0	0	510	507	0	0	
1	0	0	0	0	507	507	0	0	
2	0	0	0	0	509	507	0	0	
3	0	0	0	0	508	507	0	0	
4	0	0	0	0	508	505	0	0	
5	0	0	0	0	507	505	0	0	
6	0	0	0	0	511	505	0	0	
7	0	0	0	0	510	505	0	0	
8	0	0	0	0	511	505	0	0	
9	0	0	0	0	513	506	0	0	
10	0	0	0	0	512	510	0	0	
11	0	0	0	0	511	510	0	0	
12	0	0	0	0	513	511	0	0	
13	0	0	0	0	513	510	0	0	
14	0	0	0	0	514	510	0	0	
15	0	0	0	0	515	510	0	0	
0	0	0	0	0	514	510	0	0	
1	0	0	0	0	514	507	0	0	
2	0	0	0	0	514	506	0	0	
3	0	0	0	0	509	507	0	0	
4	0	0	0	0	510	505	0	0	
5	0	0	0	0	507	507	0	0	
6	0	0	0	0	509	507	0	0	
7	0	0	0	0	509	507	0	0	
8	0	0	0	0	508	507	0	0	
9	0	0	0	0	508	507	0	0	
10	0	0	0	0	510	508	0	0	
11	0	0	0	0	509	507	0	0	
12	0	0	0	0	508	506	0	0	
13	0	0	0	0	510	507	0	0	
14	0	0	0	0	514	509	0	0	
15	0	0	0	0	515	510	0	0	
0	0	0	0	0	515	509	0	0	
1	0	0	0	0	513	510	0	0	
2	0	0	0	0	515	511	0	0	
3	0	0	0	0	515	508	0	0	
4	0	0	0	0	514	509	0	0	
5	0	0	0	0	514	509	0	0	
6	0	0	0	0	515	510	0	0	
7	0	0	0	0	514	508	0	0	
8	0	0	0	0	514	506	0	0	
9	0	0	0	0	515	507	0	0	
10	0	0	0	0	510	505	0	0	
11	0	0	0	0	509	507	0	0	
12	0	0	0	0	509	508	0	0	
13	0	0	0	0	511	507	0	0	
14	0	0	0	0	510	508	0	0	
15	0	0	0	0	508	509	0	0	
0	0	0	0	0	510	506	0	0	
1	0	0	0	0	511	508	0	0	
2	0	0	0	0	510	508	0	0	
3	0	0	0	0	511	509	0	0	
4	0	0	0	0	511	509	0	0	
5	0	0	0	0	511	508	0	0	
6	0	0	0	0	513	508	0	0	
7	0	0	0	0	511	510	0	0	
8	0	0	0	0	511	508	0	0	
9	0	0	0	0	513	508	0	0	
10	0	0	0	0	515	508	0	0	
11	0	0	0	0	512	509	0	0	
12	0	0	0	0	507	507	0	0	
13	0	0	0	0	506	507	0	0	
14	0	0	0	0	509	507	0	0	
15	0	0	0	0	507	508	0	0	
0	0	0	0	0	510	508	0	0	
1	0	0	0	0	511	507	0	0	
2	0	0	0	0	511	508	0	0	
3	0	0	0	0	511	506	0	0	
4	0	0	0	0	510	507	0	0	
5	0	0	0	0	511	509	0	0	
6	0	0	0	0	513	511	0	0	
7	0	0	0	0	511	510	0	0	
8	0	0	0	0	512	509	0	0	
9	0	0	0	0	511	509	0	0	
10	0	0	0	0	512	508	0	0	
11	0	0	0	0	512	508	0	0	
12	0	0	0	0	509	509	0	0	
13	0	0	0	0	512	509	0	0	
14	0	0	0	0	511	508	0	0	
15	0	0	0	0	513	511	0	0	
0	0	0	0	0	510	509	0	0	
1	0	0	0	0	508	507	0	0	
2	0	0	0	0	510	507	0	0	
3	0	0	0	0	508	506	0	0	
4	0	0	0	0	506	506	0	0	
5	0	0	0	0	509	505	0	0	
6	0	0	0	0	510	508	0	0	
7	0	0	0	0	509	507	0	0	
8	0	0	0	0	508	509	0	0	
9	0	0	0	0	510	507	0	0	
10	0	0	0	0	510	509	0	0	
11	0	0	0	0	512	508	0	0	
12	0	0	0	0	514	508	0	0	
13	0	0	0	0	514	508	0	0	
14	0	0	0	0	513	507	0	0	
15	0	0	0	0	512	508	0	0	
0	0	0	0	0	513	509	0	0	
1	0	0	0	0	515	511	0	0	
2	0	0	0	0	515	509	0	0	
3	0	0	0	0	512	509	0	0	
4	0	0	0	0	512	508	0	0	
5	0	0	0	0	511	508	0	0	
6	0	0	0	0	511	508	0	0	
7	0	0	0	0	510	504	0	0	
8	0	0	0	0	508	505	0	0	
9	0	0	0	0	508	508	0	0	
10	0	0	0	0	509	506	0	0	
11	0	0	0	0	511	506	0	0	
12	0	0	0	0	509	507	0	0	
13	0	0	0	0	511	508	0	0	
14	0	0	0	0	513	508	0	0	
15	0	0	0	0	513	509	0	0	
0	0	0	0	0	512	509	0	0	
1	0	0	0	0	515	510	0	0	
2	0	0	0	0	513	509	0	0	
3	0	0	0	0	511	509	0	0	
4	0	0	0	0	513	508	0	0	
5	0	0	0	0	512	510	0	0	
6	0	0	0	0	513	509	0	0	
7	0	0	0	0	513	508	0	0	
8	0	0	0	0	512	508	0	0	
9	0	0	0	0	511	507	0	0	
10	0	0	0	0	508	507	0	0	
11	0	0	0	0	510	510	0	0	
12	0	0	0	0	508	508	0	0	
13	0	0	0	0	509	507	0	0	
14	0	0	0	0	510	509	0	0	
15	0	0	0	0	510	507	0	0	
0	0	0	0	0	509	504	0	0	
1	0	0	0	0	511	508	0	0	
2	0	0	0	0	511	507	0	0	
3	0	0	0	0	509	507	0	0	
4	0	0	0	0	511	506	0	0	
5	0	0	0	0	511	510	0	0	
6	0	0	0	0	511	510	0	0	
7	0	0	0	0	511	510	0	0	
8	0	0	0	0	511	507	0	0	
9	0	0	0	0	510	508	0	0	
10	0	0	0	0	512	505	0	0	
11	0	0	0	0	510	508	0	0	
12	0	0	0	0	509	508	0	0	
13	0	0	0	0	510	508	0	0	
14	0	0	0	0	508	507	0	0	
15	0	0	0	0	509	506	0	0	
0	0	0	0	0	507	508	0	0	
1	0	0	0	0	509	507	0	0	
2	0	0	0	0	508	508	0	0	
3	0	0	0	0	510	510	0	0	
4	0	0	0	0	510	506	0	0	
5	0	0	0	0	510	507	0	0	
6	0	0	0	0	513	511	0	0	
7	0	0	0	0	514	509	0	0	
8	0	0	0	0	514	508	0	0	
9	0	0	0	0	514	510	0	0	
10	0	0	0	0	515	509	0	0	
11	0	0	0	0	511	510	0	0	
12	0	0	0	0	513	510	0	0	
13	0	0	0	0	514	510	0	0	
14	0	0	0	0	513	508	0	0	
15	0	0	0	0	510	508	0	0	
0	0	0	0	0	511	507	0	0	
1	0	0	0	0	512	507	0	0	
2	0	0	0	0	512	507	0	0	
3	0	0	0	0	510	507	0	0	
4	0	0	0	0	511	507	0	0	
5	0	0	0	0	509	508	0	0	
6	0	0	0	0	510	508	0	0	
7	0	0	0	0	510	506	0	0	
8	0	0	0	0	508	506	0	0	
9	0	0	0	0	511	504	0	0	
10	0	0	0	0	511	507	0	0	
11	0	0	0	0	511	509	0	0	
12	0	0	0	0	511	509	0	0	
13	0	0	0	0	513	507	0	0	
14	0	0	0	0	513	509	0	0	
15	0	0	0	0	511	511	0	0	
0	0	0	0	0	512	509	0	0	
1	0	0	0	0	513	509	0	0	
2	0	0	0	0	513	507	0	0	
3	0	0	0	0	511	507	0	0	
4	0	0	0	0	512	508	0	0	
5	0	0	0	0	510	506	0	0	
6	0	0	0	0	511	508	0	0	
7	0	0	0	0	509	505	0	0	
8	0	0	0	0	508	506	0	0	
9	0	0	0	0	510	507	0	0	
10	0	0	0	0	509	507	0	0	
11	0	0	0	0	509	509	0	0	
12	0	0	0	0	511	508	0	0	
13	0	0	0	0	512	508	0	0	
14	0	0	0	0	511	507	0	0	
15	0	0	0	0	508	509	0	0	
0	0	0	0	0	511	509	0	0	
1	0	0	0	0	512	509	0	0	
2	0	0	0	0	513	511	0	0	
3	0	0	0	0	513	511	0	0	
4	0	0	0	0	511	510	0	0	
5	0	0	0	0	513	509	0	0	
6	0	0	0	0	511	508	0	0	
7	0	0	0	0	510	507	0	0	
8	0	0	0	0	511	507	0	0	
9	0	0	0	0	509	507	0	0	
10	0	0	0	0	510	506	0	0	
11	0	0	0	0	510	509	0	0	
12	0	0	0	0	509	509	0	0	
13	0	0	0	0	510	506	0	0	
14	0	0	0	0	510	509	0	0	
15	0	0	0	0	511	507	0	0	
0	0	0	0	0	510	508	0	0	
1	0	0	0	0	509	509	0	0	
2	0	0	0	0	511	507	0	0	
3	0	0	0	0	514	509	0	0	
4	0	0	0	0	512	509	0	0	
5	0	0	0	0	512	508	0	0	
6	0	0	0	0	515	511	0	0	
7	0	0	0	0	512	508	0	0	
8	0	0	0	0	513	508	0	0	
9	0	0	0	0	513	506	0	0	
10	0	0	0	0	512	507	0	0	
11	0	0	0	0	510	507	0	0	
12	0	0	0	0	509	508	0	0	
13	0	0	0	0	508	507	0	0	
14	0	0	0	0	509	508	0	0	
15	0	0	0	0	509	507	0	0	
0	0	0	0	0	507	505	0	0	
1	0	0	0	0	508	509	0	0	
2	0	0	0	0	506	507	0	0	
3	0	0	0	0	507	507	0	0	
4	0	0	0	0	508	508	0	0	
5	0	0	0	0	511	510	0	0	
6	0	0	0	0	510	506	0	0	
7	0	0	0	0	511	509	0	0	
8	0	0	0	0	513	508	0	0	
9	0	0	0	0	512	508	0	0	
10	0	0	0	0	512	508	0	0	
11	0	0	0	0	511	510	0	0	
12	0	0	0	0	511	511	0	0	
13	0	0	0	0	510	508	0	0	
14	0	0	0	0	511	507	0	0	
15	0	0	0	0	509	509	0	0	
0	0	0	0	0	511	508	0	0	
1	0	0	0	0	508	507	0	0	
2	0	0	0	0	510	506	0	0	
3	0	0	0	0	510	505	0	0	
4	0	0	0	0	509	507	0	0	
5	0	0	0	0	509	509	0	0	
6	0	0	0	0	508	507	0	0	
7	0	0	0	0	506	511	0	0	
8	0	0	0	0	510	508	0	0	
9	0	0	0	0	510	505	0	0	
10	0	0	0	0	513	510	0	0	
11	0	0	0	0	511	508	0	0	
12	0	0	0	0	515	509	0	0	
13	0	0	0	0	514	512	0	0	
14	0	0	0	0	514	511	0	0	
15	0	0	0	0	514	508	0	0	
0	0	0	0	0	511	511	0	0	
1	0	0	0	0	511	508	0	0	
2	0	0	0	0	512	507	0	0	
3	0	0	0	0	512	507	0	0	
4	0	0	0	0	510	506	0	0	
5	0	0	0	0	510	505	0	0	
6	0	0	0	0	510	509	0	0	
7	0	0	0	0	509	507	0	0	
8	0	0	0	0	509	508	0	0	
9	0	0	0	0	508	506	0	0	
10	0	0	0	0	510	507	0	0	
11	0	0	0	0	509	507	0	0	
12	0	0	0	0	510	508	0	0	
13	0	0	0	0	508	507	0	0	
14	0	0	0	0	511	508	0	0	
15	0	0	0	0	512	509	0	0	
0	0	0	0	0	514	509	0	0	
1	0	0	0	0	512	508	0	0	
2	0	0	0	0	513	508	0	0	
3	0	0	0	0	513	508	0	0	
4	0	0	0	0	512	508	0	0	
5	0	0	0	0	511	508	0	0	
6	0	0	0	0	512	509	0	0	
7	0	0	0	0	512	511	0	0	
8	0	0	0	0	510	510	0	0	
9	0	0	0	0	512	507	0	0	
10	0	0	0	0	511	508	0	0	
11	0	0	0	0	510	509	0	0	
12	0	0	0	0	508	508	0	0	
13	0	0	0	0	509	507	0	0	
14	0	0	0	0	511	508	0	0	
15	0	0	0	0	511	507	0	0	
0	0	0	0	0	511	509	0	0	
1	0	0	0	0	510	506	0	0	
2	0	0	0	0	512	506	0	0	
3	0	0	0	0	513	509	0	0	
4	0	0	0	0	514	506	0	0	
5	0	0	0	0	513	505	0	0	
6	0	0	0	0	513	508	0	0	
7	0	0	0	0	512	509	0	0	
8	0	0	0	0	512	510	0	0	
9	0	0	0	0	513	508	0	0	
10	0	0	0	0	513	508	0	0	
11	0	0	0	0	511	510	0	0	
12	0	0	0	0	511	508	0	0	
13	0	0	0	0	510	511	0	0	
14	0	0	0	0	510	507	0	0	
15	0	0	0	0	511	508	0	0	
0	0	0	0	0	510	508	0	0	
1	0	0	0	0	508	506	0	0	
2	0	0	0	0	508	510	0	0	
3	0	0	0	0	509	508	0	0	
4	0	0	0	0	508	510	0	0	
5	0	0	0	0	510	509	0	0	
6	0	0	0	0	510	510	0	0	
7	0	0	0	0	511	508	0	0	
8	0	0	0	0	511	508	0	0	
9	0	0	0	0	511	511	0	0	
10	0	0	0	0	512	509	0	0	
11	0	0	0	0	512	509	0	0	
12	0	0	0	0	511	508	0	0	
13	0	0	0	0	511	507	0	0	
14	0	0	0	0	512	507	0	0	
15	0	0	0	0	512	508	0	0	
0	0	0	0	0	512	505	0	0	
1	0	0	0	0	513	504	0	0	
2	0	0	0	0	512	507	0	0	
3	0	0	0	0	511	506	0	0	
4	0	0	0	0	511	503	0	0	
5	0	0	0	0	512	505	0	0	
6	0	0	0	0	511	509	0	0	
7	0	0	0	0	510	508	0	0	
8	0	0	0	0	510	508	0	0	
9	0	0	0	0	511	506	0	0	
10	0	0	0	0	511	508	0	0	
11	0	0	0	0	513	509	0	0	
12	0	0	0	0	516	508	0	0	
13	0	0	0	0	512	508	0	0	
14	0	0	0	0	512	510	0	0	
15	0	0	0	0	512	511	0	0	
0	0	0	0	0	513	508	0	0	
1	0	0	0	0	513	509	0	0	
2	0	0	0	0	512	508	0	0	
3	0	0	0	0	513	506	0	0	
4	0	0	0	0	510	507	0	0	
5	0	0	0	0	508	507	0	0	
6	0	0	0	0	508	506	0	0	
7	0	0	0	0	508	507	0	0	
8	0	0	0	0	507	506	0	0	
9	0	0	0	0	508	505	0	0	
10	0	0	0	0	510	505	0	0	
11	0	0	0	0	509	507	0	0	
12	0	0	0	0	508	507	0	0	
13	0	0	0	0	508	506	0	0	
14	0	0	0	0	509	508	0	0	
15	0	0	0	0	512	510	0	0	
0	0	0	0	0	512	509	0	0	
1	0	0	0	0	513	510	0	0	
2	0	0	0	0	513	511	0	0	
3	0	0	0	0	515	510	0	0	
4	0	0	0	0	512	510	0	0	
5	0	0	0	0	513	509	0	0	
6	0	0	0	0	511	510	0	0	
7	0	0	0	0	509	509	0	0	
8	0	0	0	0	511	508	0	0	
9	0	0	0	0	508	509	0	0	
10	0	0	0	0	512	506	0	0	
11	0	0	0	0	510	507	0	0	
12	0	0	0	0	510	508	0	0	
13	0	0	0	0	511	506	0	0	
14	0	0	0	0	507	507	0	0	
15	0	0	0	0	508	508	0	0	
0	0	0	0	0	508	509	0	0	
1	0	0	0	0	511	508	0	0	
2	0	0	0	0	511	508	0	0	
3	0	0	0	0	511	508	0	0	
4	0	0	0	0	512	508	0	0	
5	0	0	0	0	510	510	0	0	
6	0	0	0	0	513	509	0	0	
7	0	0	0	0	512	509	0	0	
8	0	0	0	0	510	508	0	0	
9	0	0	0	0	512	507	0	0	
10	0	0	0	0	514	508	0	0	
11	0	0	0	0	512	507	0	0	
12	0	0	0	0	510	509	0	0	
13	0	0	0	0	511	507	0	0	
14	0	0	0	0	510	507	0	0	
15	0	0	0	0	509	507	0	0	
0	0	0	0	0	511	507	0	0	
1	0	0	0	0	507	508	0	0	
2	0	0	0	0	510	507	0	0	
3	0	0	0	0	511	508	0	0	
4	0	0	0	0	512	509	0	0	
5	0	0	0	0	510	511	0	0	
6	0	0	0	0	512	510	0	0	
7	0	0	0	0	511	511	0	0	
8	0	0	0	0	513	507	0	0	
9	0	0	0	0	515	507	0	0	
10	0	0	0	0	515	508	0	0	
11	0	0	0	0	513	509	0	0	
12	0	0	0	0	518	508	0	0	
13	0	0	0	0	513	508	0	0	
14	0	0	0	0	512	508	0	0	
15	0	0	0	0	510	509	0	0	
0	0	0	0	0	512	507	0	0	
1	0	0	0	0	511	510	0	0	
2	0	0	0	0	509	507	0	0	
3	0	0	0	0	508	507	0	0	
4	0	0	0	0	510	508	0	0	
5	0	0	0	0	511	508	0	0	
6	0	0	0	0	509	507	0	0	
7	0	0	0	0	510	506	0	0	
8	0	0	0	0	511	506	0	0	
9	0	0	0	0	513	507	0	0	
10	0	0	0	0	515	508	0	0	
11	0	0	0	0	516	505	0	0	
12	0	0	0	0	514	507	0	0	
13	0	0	0	0	513	510	0	0	
14	0	0	0	0	510	508	0	0	
15	0	0	0	0	512	510	0	0	
0	0	0	0	0	512	509	0	0	
1	0	0	0	0	511	508	0	0	
2	0	0	0	0	512	508	0	0	
3	0	0	0	0	511	508	0	0	
4	0	0	0	0	510	507	0	0	
5	0	0	0	0	511	505	0	0	
6	0	0	0	0	509	505	0	0	
7	0	0	0	0	508	506	0	0	
8	0	0	0	0	508	509	0	0	
9	0	0	0	0	513	506	0	0	
10	0	0	0	0	512	508	0	0	
11	0	0	0	0	515	508	0	0	
12	0	0	0	0	515	508	0	0	
13	0	0	0	0	514	508	0	0	
14	0	0	0	0	513	507	0	0	
15	0	0	0	0	512	510	0	0	
0	0	0	0	0	519	510	0	0	
1	0	0	0	0	524	510	0	0	
2	0	0	0	0	521	508	0	0	
3	0	0	0	0	517	510	0	0	
4	0	0	0	0	511	508	0	0	
5	0	0	0	0	515	510	0	0	
6	0	0	0	0	511	510	0	0	
7	0	0	0	0	497	508	0	0	
8	0	0	0	0	482	506	0	0	
9	0	0	0	0	493	509	0	0	
10	0	0	0	0	503	508	0	0	
11	0	0	0	0	507	508	0	0	
12	0	0	0	0	500	508	0	0	
13	0	0	0	0	497	505	0	0	
14	0	0	0	0	500	507	0	0	
15	0	0	0	0	511	507	0	0	
0	0	0	0	0	515	508	0	0	
1	0	0	0	0	517	507	0	0	
2	0	0	0	0	523	508	0	0	
3	0	0	0	0	526	510	0	0	
4	0	0	0	0	527	511	0	0	
5	0	0	0	0	530	512	0	0	
6	0	0	0	0	533	512	0	0	
7	0	0	0	0	532	509	0	0	
8	0	0	0	0	527	510	0	0	
9	0	0	0	0	523	512	0	0	
10	0	0	0	0	515	509	0	0	
11	0	0	0	0	506	509	0	0	
12	0	0	0	0	487	506	0	0	
13	0	0	0	0	484	508	0	0	
14	0	0	0	0	496	513	0	0	
15	0	0	0	0	501	523	0	0	
0	0	0	0	0	504	519	0	0	
1	0	0	0	0	515	513	0	0	
2	0	0	0	0	524	510	0	0	
3	0	0	0	0	533	503	0	0	
4	0	0	0	0	528	505	0	0	
5	0	0	0	0	527	503	0	0	
6	0	0	0	0	508	493	0	0	
7	0	0	0	0	475	486	0	0	
8	0	0	0	0	445	482	0	0	
9	0	0	0	0	444	490	0	0	
10	0	0	0	0	468	503	0	0	
11	0	0	0	0	499	514	0	0	
12	0	0	0	0	520	515	0	0	
13	0	0	0	0	530	508	0	0	
14	0	0	0	0	535	505	4	0	
15	0	0	0	0	534	510	6	0	
0	0	0	0	0	533	513	13	0	
1	0	0	0	0	530	513	15	0	
2	0	0	0	0	530	511	19	0	
3	0	0	0	0	537	515	37	0	
4	0	0	0	0	536	518	26	0	
5	0	0	0	0	527	522	35	0	
6	0	0	0	0	512	521	38	0	
7	0	0	0	0	508	517	35	0	
8	0	0	0	0	512	509	37	0	
9	0	0	0	0	507	508	40	0	
10	0	0	0	0	492	499	47	0	
11	0	0	0	0	484	516	49	0	
12	0	0	0	0	469	528	63	0	
13	0	0	0	0	482	508	67	0	
14	0	0	0	0	516	503	71	0	
15	0	0	0	0	534	510	89	0	
0	0	0	0	0	539	508	97	0	
1	0	0	0	0	533	512	109	0	
2	0	0	0	0	504	497	120	0	
3	0	0	0	0	452	473	129	0	
4	0	0	0	0	424	465	138	0	
5	0	0	0	0	427	468	135	0	
6	0	0	0	0	474	477	142	0	
7	0	0	0	0	545	491	149	0	
8	0	0	0	0	574	508	151	0	
9	0	0	0	0	583	527	154	0	
10	0	0	0	0	569	532	161	0	
11	0	0	0	0	538	541	168	0	
12	0	0	0	0	501	561	174	0	
13	0	0	0	0	484	550	176	0	
14	0	0	0	0	474	522	183	0	
15	0	0	0	0	449	482	186	0	
0	0	0	0	0	436	481	191	0	
1	0	0	0	0	438	503	194	0	
2	0	0	0	0	467	540	196	0	
3	0	0	0	0	495	543	198	0	
4	0	0	0	0	519	514	201	0	
5	0	0	0	0	527	498	201	0	
6	0	0	0	0	539	497	203	0	
7	0	0	0	0	552	510	205	0	
8	0	0	0	0	557	492	206	0	
9	0	0	0	0	565	485	206	0	
10	0	0	0	0	576	487	208	0	
11	0	0	0	0	563	484	211	0	
12	0	0	0	0	530	491	210	0	
13	0	0	0	0	493	483	205	0	
14	0	0	0	0	479	491	206	0	
15	0	0	0	0	470	497	212	0	
0	0	0	0	0	458	490	214	0	
1	0	0	0	0	436	491	216	0	
2	0	0	0	0	455	521	217	0	
3	0	0	0	0	481	549	217	0	
4	0	0	0	0	506	553	220	0	
5	0	0	0	0	523	546	220	0	
6	0	0	0	0	534	543	224	0	
7	0	0	0	0	536	528	223	3	
8	0	0	0	0	524	504	223	17	
9	0	0	0	0	529	501	227	20	
10	0	0	0	0	535	480	226	20	
11	0	0	0	0	544	472	227	24	
12	0	0	0	0	537	477	222	24	
13	0	0	0	0	523	482	223	28	
14	0	0	0	0	506	485	221	32	
15	0	0	0	0	488	499	220	32	
0	0	0	0	0	483	499	220	37	
1	0	0	0	0	489	510	220	40	
2	0	0	0	0	500	524	218	35	
3	0	0	0	0	490	519	221	44	
4	0	0	0	0	479	529	222	45	
5	0	0	0	0	494	537	220	44	
6	0	0	0	0	526	539	219	42	
7	0	0	0	0	540	536	219	44	
8	0	0	0	0	535	543	218	43	
9	0	0	0	0	524	521	214	46	
10	0	0	0	0	510	513	209	47	
11	0	0	0	0	504	508	211	46	
12	0	0	0	0	502	491	209	47	
13	0	0	0	0	514	486	208	51	
14	0	0	0	0	531	503	210	82	
15	0	0	0	0	546	514	210	82	
0	0	0	0	0	546	501	209	83	
1	0	0	0	0	548	471	209	77	
2	0	0	0	0	543	473	207	78	
3	0	0	0	0	545	471	207	77	
4	0	0	0	0	539	476	208	78	
5	0	0	0	0	505	472	208	80	
6	0	0	0	0	462	484	207	80	
7	0	0	0	0	445	515	204	82	
8	0	0	0	0	447	531	206	83	
9	0	0	0	0	459	544	207	88	
10	0	0	0	0	487	536	207	92	
11	0	0	0	0	499	534	208	92	
12	0	0	0	0	496	540	205	105	
13	0	0	0	0	478	501	206	107	
14	0	0	0	0	487	491	205	113	
15	0	0	0	0	512	492	207	120	
0	0	0	0	0	532	526	205	127	
1	0	0	0	0	556	580	204	136	
2	0	0	0	0	554	590	206	139	
3	0	0	0	0	548	540	207	137	
4	0	0	0	0	551	499	209	144	
5	0	0	0	0	558	476	206	150	
6	0	0	0	0	545	481	206	161	
7	0	0	0	0	524	472	207	161	
8	0	0	0	0	499	448	206	154	
9	0	0	0	0	476	442	208	163	
10	0	0	0	0	476	466	211	137	
11	0	0	0	0	481	500	212	136	
12	0	0	0	0	500	497	209	137	
13	0	0	0	0	502	481	208	140	
14	0	0	0	0	506	545	211	139	
15	0	0	0	0	524	611	214	141	
0	0	0	0	0	539	607	217	145	
1	0	0	0	0	531	548	219	151	
2	0	0	0	0	536	519	217	152	
3	0	0	0	0	526	509	220	143	
4	0	0	0	0	516	501	223	146	
5	0	0	0	0	496	460	222	145	
6	0	0	0	0	475	470	219	151	
7	0	0	0	0	482	482	218	156	
8	0	0	0	0	515	476	220	157	
9	0	0	0	0	528	458	221	166	
10	0	0	0	0	543	457	224	165	
11	0	0	0	0	525	484	226	173	
12	0	0	0	0	493	526	231	178	
13	0	0	0	0	472	527	227	182	
14	0	0	0	0	476	527	230	189	
15	0	0	0	0	494	559	234	189	
0	0	0	0	0	518	567	235	198	
1	0	0	0	0	533	548	236	198	
2	0	0	0	0	528	537	242	205	
3	0	0	0	0	524	523	241	207	
4	0	0	0	0	526	475	244	207	
5	0	0	0	0	520	470	255	208	
6	0	0	0	0	520	501	255	209	
7	0	0	0	0	527	513	260	211	
8	0	0	0	0	540	498	259	223	
9	0	0	0	0	552	498	261	228	
10	0	0	0	0	554	499	263	218	
11	0	0	0	0	547	497	273	220	
12	0	0	0	0	544	489	274	219	
13	0	0	0	0	539	496	276	237	
14	0	0	0	0	504	508	278	240	
15	0	0	0	0	464	511	279	244	
0	0	0	0	0	459	512	283	245	
1	0	0	0	0	465	511	284	249	
2	0	0	0	0	480	508	284	252	
3	0	0	0	0	478	502	285	257	
4	0	0	0	0	468	501	288	251	
5	0	0	0	0	472	507	289	250	
6	0	0	0	0	498	512	291	255	
7	0	0	0	0	517	510	297	259	
8	0	0	0	0	532	513	296	264	
9	0	0	0	0	539	514	296	262	
10	0	0	0	0	550	516	297	263	
11	0	0	0	0	558	513	301	258	
12	0	0	0	0	547	512	304	261	
13	0	0	0	0	531	508	307	256	
14	0	0	0	0	511	510	310	257	
15	0	0	0	0	472	507	310	256	
0	0	0	0	0	470	502	308	259	
1	0	0	0	0	478	507	310	259	
2	0	0	0	0	497	508	314	255	
3	0	0	0	0	511	506	316	257	
4	0	0	0	0	521	507	316	266	
5	0	0	0	0	523	506	314	270	
6	0	0	0	0	531	508	316	271	
7	0	0	0	0	549	508	315	273	
8	0	0	0	0	553	512	316	267	
9	0	0	0	0	542	513	320	270	
10	0	0	0	0	526	510	321	271	
11	0	0	0	0	515	507	322	275	
12	0	0	0	0	506	505	321	271	
13	0	0	0	0	494	502	321	274	
14	0	0	0	0	480	509	319	275	
15	0	0	0	0	473	509	319	276	
0	0	0	0	0	492	510	318	279	
1	0	0	0	0	521	513	319	281	
2	0	0	0	0	518	510	317	282	
3	0	0	0	0	508	508	317	283	
4	0	0	0	0	508	506	316	282	
5	0	0	0	0	498	508	317	281	
6	0	0	0	0	492	508	316	286	
7	0	0	0	0	512	507	316	286	
8	0	0	0	0	534	508	316	288	
9	0	0	0	0	541	507	319	288	
10	0	0	0	0	540	512	320	290	
11	0	0	0	0	533	511	321	289	
12	0	0	0	0	512	507	322	290	
13	0	0	0	0	500	504	322	289	
14	0	0	0	0	499	507	320	288	
15	0	0	0	0	465	508	319	287	
0	0	0	0	0	451	509	319	288	
1	0	0	0	0	487	508	318	311	
2	0	0	0	0	513	503	319	312	
3	0	0	0	0	516	509	318	312	
4	0	0	0	0	520	520	318	313	
5	0	0	0	0	515	516	318	313	
6	0	0	0	0	534	511	317	311	
7	0	0	0	0	537	515	317	310	
8	0	0	0	0	531	514	318	312	
9	0	0	0	0	520	493	319	313	
10	0	0	0	0	511	489	316	313	
11	0	0	0	0	519	496	315	314	
12	0	0	0	0	515	505	313	316	
13	0	0	0	0	519	515	313	317	
14	0	0	0	0	514	509	313	318	
15	0	0	0	0	504	500	312	320	
0	0	0	0	0	512	512	307	321	
1	0	0	0	0	506	513	307	321	
2	0	0	0	0	488	505	307	322	
3	0	0	0	0	479	509	307	323	
4	0	0	0	0	481	513	304	323	
5	0	0	0	0	502	511	303	324	
6	0	0	0	0	519	509	303	324	
7	0	0	0	0	522	507	300	324	
8	0	0	0	0	521	502	299	325	
9	0	0	0	0	528	506	300	324	
10	0	0	0	0	530	508	299	326	
11	0	0	0	0	521	506	298	327	
12	0	0	0	0	508	505	300	327	
13	0	0	0	0	504	510	301	329	
14	0	0	0	0	511	514	301	329	
15	0	0	0	0	516	505	299	327	
0	0	0	0	0	518	509	297	327	
1	0	0	0	0	516	524	294	327	
2	0	0	0	0	521	513	289	328	
3	0	0	0	0	517	496	286	326	
4	0	0	0	0	514	487	285	327	
5	0	0	0	0	517	505	281	328	
6	0	0	0	0	517	508	280	328	
7	0	0	0	0	517	519	278	329	
8	0	0	0	0	516	538	276	329	
9	0	0	0	0	520	530	275	328	
10	0	0	0	0	518	508	274	327	
11	0	0	0	0	505	501	274	327	
12	0	0	0	0	494	501	274	327	
13	0	0	0	0	492	494	273	326	
14	0	0	0	0	506	492	272	327	
15	0	0	0	0	513	501	273	327	
0	0	0	0	0	512	509	271	327	
1	0	0	0	0	519	513	270	327	
2	0	0	0	0	528	506	268	329	
3	0	0	0	0	531	509	267	328	
4	0	0	0	0	524	512	265	327	
5	0	0	0	0	524	521	262	328	
6	0	0	0	0	513	496	262	329	
7	0	0	0	0	506	498	259	332	
8	0	0	0	0	495	514	255	334	
9	0	0	0	0	477	513	256	332	
10	0	0	0	0	463	513	255	333	
11	0	0	0	0	473	519	252	334	
12	0	0	0	0	501	514	251	316	
13	0	0	0	0	516	505	249	315	
14	0	0	0	0	521	495	248	314	
15	0	0	0	0	531	492	249	315	
0	0	0	0	0	533	490	248	314	
1	0	0	0	0	525	510	248	314	
2	0	0	0	0	528	530	250	315	
3	0	0	0	0	537	539	249	315	
4	0	0	0	0	550	523	248	314	
5	0	0	0	0	544	504	246	313	
6	0	0	0	0	525	498	245	314	
7	0	0	0	0	491	496	245	314	
8	0	0	0	0	493	496	244	314	
9	0	0	0	0	497	498	244	312	
10	0	0	0	0	483	501	243	311	
11	0	0	0	0	460	504	241	312	
12	0	0	0	0	446	509	241	311	
13	0	0	0	0	470	508	241	311	
14	0	0	0	0	510	513	242	309	
15	0	0	0	0	531	518	240	307	
0	0	0	0	0	539	507	241	312	
1	0	0	0	0	534	507	242	312	
2	0	0	0	0	529	517	241	312	
3	0	0	0	0	539	529	240	312	
4	0	0	0	0	534	526	240	313	
5	0	0	0	0	524	508	239	313	
6	0	0	0	0	513	499	238	311	
7	0	0	0	0	504	498	238	309	
8	0	0	0	0	491	496	237	308	
9	0	0	0	0	498	505	236	310	
10	0	0	0	0	509	509	236	309	
11	0	0	0	0	507	506	235	308	
12	0	0	0	0	511	508	233	307	
13	0	0	0	0	516	507	234	307	
14	0	0	0	0	520	508	234	305	
15	0	0	0	0	512	511	227	299	
0	0	0	0	0	517	510	225	300	
1	0	0	0	0	520	511	224	299	
2	0	0	0	0	520	511	224	301	
3	0	0	0	0	534	507	223	301	
4	0	0	0	0	540	508	223	296	
5	0	0	0	0	542	509	222	297	
6	0	0	0	0	529	504	221	297	
7	0	0	0	0	515	503	221	296	
8	0	0	0	0	503	510	220	294	
9	0	0	0	0	491	511	220	292	
10	0	0	0	0	476	508	220	293	
11	0	0	0	0	452	504	217	291	
12	0	0	0	0	455	505	217	289	
13	0	0	0	0	475	509	216	289	
14	0	0	0	0	517	514	216	287	
15	0	0	0	0	540	510	214	283	
0	0	0	0	0	544	506	213	275	
1	0	0	0	0	538	507	213	276	
2	0	0	0	0	520	506	212	276	
3	0	0	0	0	507	505	210	276	
4	0	0	0	0	519	508	209	278	
5	0	0	0	0	511	508	207	279	
6	0	0	0	0	492	506	206	276	
7	0	0	0	0	494	507	205	274	
8	0	0	0	0	520	513	203	276	
9	0	0	0	0	526	505	200	272	
10	0	0	0	0	528	508	199	271	
11	0	0	0	0	521	509	200	268	
12	0	0	0	0	511	508	199	268	
13	0	0	0	0	508	511	199	270	
14	0	0	0	0	508	512	199	267	
15	0	0	0	0	515	518	198	264	
0	0	0	0	0	515	513	198	262	
1	0	0	0	0	527	508	197	261	
2	0	0	0	0	550	518	196	260	
3	0	0	0	0	563	511	196	261	
4	0	0	0	0	550	499	195	258	
5	0	0	0	0	531	487	193	240	
6	0	0	0	0	502	497	192	238	
7	0	0	0	0	463	505	192	238	
8	0	0	0	0	435	515	190	239	
9	0	0	0	0	429	514	189	233	
10	0	0	0	0	437	499	193	231	
11	0	0	0	0	463	495	192	231	
12	0	0	0	0	492	504	192	229	
13	0	0	0	0	535	510	191	231	
14	0	0	0	0	544	506	191	227	
15	0	0	0	0	538	509	190	226	
0	0	0	0	0	531	518	190	229	
1	0	0	0	0	524	514	190	229	
2	0	0	0	0	517	514	188	228	
3	0	0	0	0	522	508	188	226	
4	0	0	0	0	530	500	187	228	
5	0	0	0	0	539	505	185	227	
6	0	0	0	0	536	510	184	225	
7	0	0	0	0	535	509	181	225	
8	0	0	0	0	531	514	180	219	
9	0	0	0	0	518	510	179	218	
10	0	0	0	0	504	508	178	215	
11	0	0	0	0	492	507	178	217	
12	0	0	0	0	478	502	178	217	
13	0	0	0	0	484	496	177	215	
14	0	0	0	0	497	504	178	216	
15	0	0	0	0	499	512	177	218	
0	0	0	0	0	503	505	177	216	
1	0	0	0	0	519	510	177	219	
2	0	0	0	0	520	525	177	217	
3	0	0	0	0	519	532	177	221	
4	0	0	0	0	513	519	177	218	
5	0	0	0	0	517	486	176	219	
6	0	0	0	0	515	465	176	217	
7	0	0	0	0	508	483	176	216	
8	0	0	0	0	511	499	176	214	
9	0	0	0	0	512	515	176	215	
10	0	0	0	0	515	536	176	216	
11	0	0	0	0	519	537	177	215	
12	0	0	0	0	528	540	177	215	
13	0	0	0	0	529	546	176	215	
14	0	0	0	0	528	516	176	214	
15	0	0	0	0	523	496	177	216	
0	0	0	0	0	519	486	177	217	
1	0	0	0	0	509	480	177	217	
2	0	0	0	0	494	485	178	221	
3	0	0	0	0	492	494	177	220	
4	0	0	0	0	487	507	178	221	
5	0	0	0	0	500	508	178	220	
6	0	0	0	0	509	516	178	219	
7	0	0	0	0	507	531	178	222	
8	0	0	0	0	509	536	179	226	
9	0	0	0	0	519	513	179	225	
10	0	0	0	0	517	499	179	224	
11	0	0	0	0	500	492	179	224	
12	0	0	0	0	499	492	179	225	
13	0	0	0	0	511	493	180	225	
14	0	0	0	0	527	513	180	225	
15	0	0	0	0	534	511	180	226	
0	0	0	0	0	520	498	180	227	
1	0	0	0	0	510	490	179	227	
2	0	0	0	0	504	496	179	227	
3	0	0	0	0	495	508	179	227	
4	0	0	0	0	486	518	180	227	
5	0	0	0	0	491	530	180	228	
6	0	0	0	0	495	515	179	230	
7	0	0	0	0	507	508	181	229	
8	0	0	0	0	511	506	181	229	
9	0	0	0	0	524	507	181	230	
10	0	0	0	0	521	504	181	229	
11	0	0	0	0	524	503	181	230	
12	0	0	0	0	528	509	181	230	
13	0	0	0	0	529	510	181	230	
14	0	0	0	0	531	506	181	231	
15	0	0	0	0	523	510	181	231	
0	0	0	0	0	512	512	180	231	
1	0	0	0	0	523	514	180	231	
2	0	0	0	0	518	508	181	231	
3	0	0	0	0	501	506	181	231	
4	0	0	0	0	495	505	182	231	
5	0	0	0	0	493	506	181	232	
6	0	0	0	0	494	508	182	232	
7	0	0	0	0	502	510	182	233	
8	0	0	0	0	504	505	182	234	
9	0	0	0	0	504	507	182	233	
10	0	0	0	0	516	506	182	234	
11	0	0	0	0	526	508	182	234	
12	0	0	0	0	525	509	182	235	
13	0	0	0	0	523	509	182	236	
14	0	0	0	0	519	510	183	236	
15	0	0	0	0	515	511	183	235	
0	0	0	0	0	494	507	183	235	
1	0	0	0	0	483	506	183	235	
2	0	0	0	0	471	505	183	235	
3	0	0	0	0	487	504	183	234	
4	0	0	0	0	515	513	183	235	
5	0	0	0	0	528	515	183	235	
6	0	0	0	0	536	510	183	235	
7	0	0	0	0	538	505	183	235	
8	0	0	0	0	536	507	183	236	
9	0	0	0	0	531	506	183	235	
10	0	0	0	0	522	508	183	236	
11	0	0	0	0	520	501	183	236	
12	0	0	0	0	516	497	183	236	
13	0	0	0	0	506	499	184	236	
14	0	0	0	0	485	506	184	236	
15	0	0	0	0	471	515	184	236	
0	0	0	0	0	476	518	183	237	
1	0	0	0	0	492	515	184	237	
2	0	0	0	0	507	515	184	236	
3	0	0	0	0	513	514	184	236	
4	0	0	0	0	516	515	184	236	
5	0	0	0	0	529	516	184	235	
6	0	0	0	0	540	511	184	236	
7	0	0	0	0	535	504	185	236	
8	0	0	0	0	525	502	185	235	
9	0	0	0	0	519	508	184	235	
10	0	0	0	0	512	507	184	235	
11	0	0	0	0	503	504	184	235	
12	0	0	0	0	494	504	185	234	
13	0	0	0	0	495	503	185	235	
14	0	0	0	0	505	503	184	233	
15	0	0	0	0	512	505	184	233	
0	0	0	0	0	508	504	185	233	
1	0	0	0	0	503	506	184	233	
2	0	0	0	0	502	508	184	233	
3	0	0	0	0	504	509	184	231	
4	0	0	0	0	511	511	184	231	
5	0	0	0	0	514	513	185	231	
6	0	0	0	0	514	512	184	231	
7	0	0	0	0	511	513	185	231	
8	0	0	0	0	516	510	185	229	
9	0	0	0	0	519	512	184	230	
10	0	0	0	0	519	523	185	230	
11	0	0	0	0	519	519	184	231	
12	0	0	0	0	520	508	184	231	
13	0	0	0	0	529	492	184	230	
14	0	0	0	0	526	493	184	231	
15	0	0	0	0	522	501	183	229	
0	0	0	0	0	530	498	184	229	
1	0	0	0	0	532	504	184	228	
2	0	0	0	0	525	520	184	227	
3	0	0	0	0	508	522	184	227	
4	0	0	0	0	481	504	184	227	
5	0	0	0	0	469	491	184	226	
6	0	0	0	0	472	508	183	224	
7	0	0	0	0	478	523	183	224	
8	0	0	0	0	494	520	183	222	
9	0	0	0	0	509	507	183	219	
10	0	0	0	0	511	505	183	211	
11	0	0	0	0	515	506	183	206	
12	0	0	0	0	516	507	183	205	
13	0	0	0	0	520	508	183	204	
14	0	0	0	0	516	498	183	203	
15	0	0	0	0	504	494	184	202	
0	0	0	0	0	501	497	183	202	
1	0	0	0	0	513	492	183	201	
2	0	0	0	0	520	499	183	201	
3	0	0	0	0	524	520	183	202	
4	0	0	0	0	524	537	184	202	
5	0	0	0	0	523	518	183	202	
6	0	0	0	0	524	506	183	203	
7	0	0	0	0	532	502	183	204	
8	0	0	0	0	533	509	184	203	
9	0	0	0	0	518	530	184	203	
10	0	0	0	0	507	525	184	203	
11	0	0	0	0	507	505	184	203	
12	0	0	0	0	503	492	184	204	
13	0	0	0	0	499	493	184	203	
14	0	0	0	0	499	501	183	204	
15	0	0	0	0	480	510	183	205	
0	0	0	0	0	485	510	182	204	
1	0	0	0	0	511	511	182	206	
2	0	0	0	0	528	508	182	205	
3	0	0	0	0	533	508	182	204	
4	0	0	0	0	526	533	182	204	
5	0	0	0	0	514	529	183	206	
6	0	0	0	0	511	504	182	205	
7	0	0	0	0	510	485	182	204	
8	0	0	0	0	509	483	183	206	
9	0	0	0	0	506	509	182	206	
10	0	0	0	0	510	510	182	206	
11	0	0	0	0	512	502	183	205	
12	0	0	0	0	512	497	183	206	
13	0	0	0	0	507	507	183	207	
14	0	0	0	0	504	515	183	208	
15	0	0	0	0	516	523	184	207	
0	0	0	0	0	499	522	184	208	
1	0	0	0	0	489	510	184	208	
2	0	0	0	0	513	504	184	209	
3	0	0	0	0	527	508	184	208	
4	0	0	0	0	529	511	184	208	
5	0	0	0	0	528	507	184	207	
6	0	0	0	0	523	503	185	208	
7	0	0	0	0	517	502	184	207	
8	0	0	0	0	507	502	184	207	
9	0	0	0	0	502	505	185	208	
10	0	0	0	0	503	507	185	208	
11	0	0	0	0	497	517	184	207	
12	0	0	0	0	506	519	184	208	
13	0	0	0	0	515	508	184	208	
14	0	0	0	0	512	494	185	209	
15	0	0	0	0	508	492	185	208	
0	0	0	0	0	493	501	185	209	
1	0	0	0	0	495	506	185	208	
2	0	0	0	0	511	508	185	208	
3	0	0	0	0	528	513	186	208	
4	0	0	0	0	527	512	187	206	
5	0	0	0	0	532	514	187	204	
6	0	0	0	0	531	513	187	204	
7	0	0	0	0	520	512	187	204	
8	0	0	0	0	507	511	187	204	
9	0	0	0	0	496	508	188	205	
10	0	0	0	0	487	507	187	205	
11	0	0	0	0	476	508	189	206	
12	0	0	0	0	477	508	189	207	
13	0	0	0	0	487	515	189	207	
14	0	0	0	0	501	513	188	207	
15	0	0	0	0	510	511	188	208	
0	0	0	0	0	518	509	189	207	
1	0	0	0	0	525	511	189	208	
2	0	0	0	0	526	506	190	208	
3	0	0	0	0	527	504	189	208	
4	0	0	0	0	522	503	190	207	
5	0	0	0	0	524	505	190	207	
6	0	0	0	0	529	504	189	207	
7	0	0	0	0	543	508	190	207	
8	0	0	0	0	549	510	190	207	
9	0	0	0	0	544	509	189	207	
10	0	0	0	0	538	512	190	207	
11	0	0	0	0	526	511	190	207	
12	0	0	0	0	511	509	189	206	
13	0	0	0	0	486	508	190	207	
14	0	0	0	0	463	510	190	206	
15	0	0	0	0	449	510	190	206	
0	0	0	0	0	446	504	190	205	
1	0	0	0	0	472	502	190	205	
2	0	0	0	0	498	504	191	205	
3	0	0	0	0	512	505	191	204	
4	0	0	0	0	508	506	191	203	
5	0	0	0	0	522	506	191	203	
6	0	0	0	0	538	509	191	203	
7	0	0	0	0	539	508	191	203	
8	0	0	0	0	540	511	192	203	
9	0	0	0	0	532	509	191	203	
10	0	0	0	0	528	510	191	203	
11	0	0	0	0	522	512	191	203	
12	0	0	0	0	502	507	191	203	
13	0	0	0	0	495	507	191	203	
14	0	0	0	0	496	508	191	203	
15	0	0	0	0	505	509	192	203	
0	0	0	0	0	515	512	192	202	
1	0	0	0	0	517	510	191	201	
2	0	0	0	0	519	508	191	201	
3	0	0	0	0	516	505	191	201	
4	0	0	0	0	505	505	192	200	
5	0	0	0	0	502	505	191	200	
6	0	0	0	0	504	505	191	200	
7	0	0	0	0	511	508	192	199	
8	0	0	0	0	510	507	191	198	
9	0	0	0	0	515	507	191	197	
10	0	0	0	0	519	519	191	196	
11	0	0	0	0	516	512	191	195	
12	0	0	0	0	513	500	191	196	
13	0	0	0	0	513	505	191	194	
14	0	0	0	0	519	506	191	194	
15	0	0	0	0	523	509	190	194	
0	0	0	0	0	525	507	190	193	
1	0	0	0	0	523	510	190	194	
2	0	0	0	0	517	513	189	192	
3	0	0	0	0	512	512	189	191	
4	0	0	0	0	511	502	188	192	
5	0	0	0	0	504	496	188	189	
6	0	0	0	0	486	504	187	190	
7	0	0	0	0	481	515	187	192	
8	0	0	0	0	482	512	187	187	
9	0	0	0	0	476	492	187	186	
10	0	0	0	0	484	495	187	185	
11	0	0	0	0	514	505	187	185	
12	0	0	0	0	530	526	187	188	
13	0	0	0	0	529	514	187	187	
14	0	0	0	0	532	515	186	185	
15	0	0	0	0	528	519	186	186	
0	0	0	0	0	531	520	186	185	
1	0	0	0	0	528	507	187	186	
2	0	0	0	0	519	504	187	186	
3	0	0	0	0	516	510	187	185	
4	0	0	0	0	500	516	187	185	
5	0	0	0	0	493	511	187	186	
6	0	0	0	0	497	503	188	185	
7	0	0	0	0	508	490	187	184	
8	0	0	0	0	512	491	187	184	
9	0	0	0	0	508	496	187	184	
10	0	0	0	0	508	498	187	184	
11	0	0	0	0	512	501	187	185	
12	0	0	0	0	508	511	187	184	
13	0	0	0	0	505	542	187	185	
14	0	0	0	0	511	551	187	185	
15	0	0	0	0	509	533	187	186	
0	0	0	0	0	497	518	187	186	
1	0	0	0	0	499	500	187	187	
2	0	0	0	0	514	492	187	187	
3	0	0	0	0	515	489	187	187	
4	0	0	0	0	514	492	187	187	
5	0	0	0	0	526	497	187	188	
6	0	0	0	0	535	502	187	188	
7	0	0	0	0	529	499	187	188	
8	0	0	0	0	519	510	188	188	
9	0	0	0	0	519	519	188	188	
10	0	0	0	0	514	517	187	188	
11	0	0	0	0	509	519	188	189	
12	0	0	0	0	492	513	189	188	
13	0	0	0	0	481	502	188	190	
14	0	0	0	0	489	502	189	190	
15	0	0	0	0	504	505	189	190	
0	0	0	0	0	525	504	189	190	
1	0	0	0	0	522	505	190	191	
2	0	0	0	0	512	505	191	191	
3	0	0	0	0	509	504	191	191	
4	0	0	0	0	521	506	191	191	
5	0	0	0	0	527	506	191	192	
6	0	0	0	0	524	507	192	191	
7	0	0	0	0	516	508	191	191	
8	0	0	0	0	505	508	191	191	
9	0	0	0	0	500	507	191	191	
10	0	0	0	0	494	505	192	192	
11	0	0	0	0	485	506	191	192	
12	0	0	0	0	484	509	192	193	
13	0	0	0	0	501	515	192	193	
14	0	0	0	0	519	514	192	193	
15	0	0	0	0	524	511	192	193	
0	0	0	0	0	532	510	192	194	
1	0	0	0	0	526	510	193	193	
2	0	0	0	0	518	508	193	193	
3	0	0	0	0	502	507	193	194	
4	0	0	0	0	499	507	193	193	
5	0	0	0	0	496	506	193	194	
6	0	0	0	0	499	505	193	193	
7	0	0	0	0	501	507	193	194	
8	0	0	0	0	502	504	193	194	
9	0	0	0	0	509	508	193	195	
10	0	0	0	0	516	506	193	194	
11	0	0	0	0	530	508	193	194	
12	0	0	0	0	522	506	194	194	
13	0	0	0	0	518	507	194	194	
14	0	0	0	0	514	507	193	194	
15	0	0	0	0	510	509	194	194	
0	0	0	0	0	516	508	194	194	
1	0	0	0	0	525	504	194	194	
2	0	0	0	0	529	508	194	195	
3	0	0	0	0	532	510	194	194	
4	0	0	0	0	533	512	194	195	
5	0	0	0	0	529	508	194	194	
6	0	0	0	0	523	511	194	194	
7	0	0	0	0	502	508	194	195	
8	0	0	0	0	480	509	194	194	
9	0	0	0	0	460	506	194	195	
10	0	0	0	0	457	508	195	195	
11	0	0	0	0	470	510	195	194	
12	0	0	0	0	494	506	195	193	
13	0	0	0	0	516	504	195	195	
14	0	0	0	0	529	504	195	195	
15	0	0	0	0	534	499	195	196	
0	0	0	0	0	530	504	195	195	
1	0	0	0	0	518	515	195	196	
2	0	0	0	0	520	519	196	195	
3	0	0	0	0	526	511	196	195	
4	0	0	0	0	513	501	196	194	
5	0	0	0	0	498	508	196	196	
6	0	0	0	0	484	508	196	194	
7	0	0	0	0	499	507	196	193	
8	0	0	0	0	517	508	196	193	
9	0	0	0	0	516	505	196	193	
10	0	0	0	0	512	507	196	193	
11	0	0	0	0	523	508	196	193	
12	0	0	0	0	530	511	196	194	
13	0	0	0	0	531	508	197	193	
14	0	0	0	0	524	510	197	194	
15	0	0	0	0	503	511	197	194	
0	0	0	0	0	482	507	196	193	
1	0	0	0	0	479	502	197	193	
2	0	0	0	0	472	499	197	193	
3	0	0	0	0	490	502	196	193	
4	0	0	0	0	513	499	197	194	
5	0	0	0	0	525	512	197	195	
6	0	0	0	0	531	528	196	193	
7	0	0	0	0	528	525	196	192	
8	0	0	0	0	526	516	196	193	
9	0	0	0	0	519	499	195	193	
10	0	0	0	0	514	500	195	193	
11	0	0	0	0	515	507	196	193	
12	0	0	0	0	523	509	196	193	
13	0	0	0	0	519	495	195	192	
14	0	0	0	0	521	504	196	192	
15	0	0	0	0	520	521	196	192	
0	0	0	0	0	525	528	196	192	
1	0	0	0	0	520	521	196	193	
2	0	0	0	0	515	507	196	192	
3	0	0	0	0	519	500	197	193	
4	0	0	0	0	515	500	196	192	
5	0	0	0	0	509	509	196	193	
6	0	0	0	0	499	504	196	193	
7	0	0	0	0	501	504	197	193	
8	0	0	0	0	508	503	197	193	
9	0	0	0	0	517	500	197	193	
10	0	0	0	0	515	508	198	193	
11	0	0	0	0	508	510	197	193	
12	0	0	0	0	510	509	199	193	
13	0	0	0	0	516	504	199	193	
14	0	0	0	0	509	504	198	192	
15	0	0	0	0	498	507	198	193	
0	0	0	0	0	495	502	198	192	
1	0	0	0	0	488	506	197	192	
2	0	0	0	0	499	523	197	192	
3	0	0	0	0	512	523	196	192	
4	0	0	0	0	518	510	196	192	
5	0	0	0	0	519	504	196	192	
6	0	0	0	0	518	507	196	193	
7	0	0	0	0	513	506	197	192	
8	0	0	0	0	507	508	196	193	
9	0	0	0	0	512	499	196	192	
10	0	0	0	0	512	509	196	192	
11	0	0	0	0	511	515	196	192	
12	0	0	0	0	513	526	196	191	
13	0	0	0	0	529	534	196	190	
14	0	0	0	0	533	513	196	190	
15	0	0	0	0	535	494	196	190	
0	0	0	0	0	525	496	197	189	
1	0	0	0	0	515	504	197	189	
2	0	0	0	0	507	509	197	188	
3	0	0	0	0	499	507	197	188	
4	0	0	0	0	492	494	196	188	
5	0	0	0	0	489	496	196	188	
6	0	0	0	0	487	508	196	188	
7	0	0	0	0	501	509	195	188	
8	0	0	0	0	523	506	195	188	
9	0	0	0	0	529	507	195	188	
10	0	0	0	0	529	507	195	188	
11	0	0	0	0	526	505	196	188	
12	0	0	0	0	512	500	196	188	
13	0	0	0	0	503	503	196	188	
14	0	0	0	0	496	508	195	188	
15	0	0	0	0	487	508	196	188	
0	0	0	0	0	498	510	196	188	
1	0	0	0	0	504	502	196	188	
2	0	0	0	0	517	510	196	188	
3	0	0	0	0	529	518	196	188	
4	0	0	0	0	526	512	197	188	
5	0	0	0	0	513	508	196	188	
6	0	0	0	0	504	507	196	188	
7	0	0	0	0	503	512	196	188	
8	0	0	0	0	501	510	196	188	
9	0	0	0	0	514	510	196	188	
10	0	0	0	0	528	509	196	187	
11	0	0	0	0	525	508	196	187	
12	0	0	0	0	527	508	196	188	
13	0	0	0	0	523	507	196	187	
14	0	0	0	0	512	505	196	187	
15	0	0	0	0	509	509	195	188	
0	0	0	0	0	491	508	197	188	
1	0	0	0	0	479	509	196	188	
2	0	0	0	0	472	505	196	188	
3	0	0	0	0	483	507	197	188	
4	0	0	0	0	490	504	197	188	
5	0	0	0	0	505	511	197	187	
6	0	0	0	0	532	511	198	188	
7	0	0	0	0	544	511	198	188	
8	0	0	0	0	540	509	198	187	
9	0	0	0	0	533	508	198	188	
10	0	0	0	0	538	510	198	186	
11	0	0	0	0	528	512	199	186	
12	0	0	0	0	523	507	198	187	
13	0	0	0	0	495	502	199	186	
14	0	0	0	0	468	500	198	186	
15	0	0	0	0	474	507	199	186	
0	0	0	0	0	500	512	199	186	
1	0	0	0	0	516	515	199	187	
2	0	0	0	0	521	513	200	186	
3	0	0	0	0	525	511	200	186	
4	0	0	0	0	529	507	200	187	
5	0	0	0	0	526	510	199	185	
6	0	0	0	0	521	507	199	186	
7	0	0	0	0	519	508	199	185	
8	0	0	0	0	512	509	199	186	
9	0	0	0	0	512	504	200	185	
10	0	0	0	0	496	500	199	185	
11	0	0	0	0	496	500	200	185	
12	0	0	0	0	504	506	199	185	
13	0	0	0	0	515	513	199	185	
14	0	0	0	0	519	512	199	184	
15	0	0	0	0	524	512	199	184	
0	0	0	0	0	523	515	199	185	
1	0	0	0	0	517	507	200	184	
2	0	0	0	0	512	503	200	184	
3	0	0	0	0	507	502	199	184	
4	0	0	0	0	496	499	199	184	
5	0	0	0	0	497	499	199	183	
6	0	0	0	0	500	506	199	183	
7	0	0	0	0	516	516	199	182	
8	0	0	0	0	527	519	199	182	
9	0	0	0	0	526	513	199	182	
10	0	0	0	0	512	508	199	183	
11	0	0	0	0	497	505	199	182	
12	0	0	0	0	483	511	199	182	
13	0	0	0	0	469	511	200	182	
14	0	0	0	0	472	510	199	183	
15	0	0	0	0	489	500	200	182	
0	0	0	0	0	512	500	200	182	
1	0	0	0	0	523	507	200	182	
2	0	0	0	0	527	515	200	181	
3	0	0	0	0	525	511	200	181	
4	0	0	0	0	528	501	200	181	
5	0	0	0	0	526	504	199	180	
6	0	0	0	0	524	500	199	179	
7	0	0	0	0	527	510	199	179	
8	0	0	0	0	527	519	200	178	
9	0	0	0	0	530	523	199	177	
10	0	0	0	0	527	515	199	177	
11	0	0	0	0	517	511	199	176	
12	0	0	0	0	505	521	198	176	
13	0	0	0	0	497	511	199	175	
14	0	0	0	0	486	503	199	175	
15	0	0	0	0	480	504	199	175	
0	0	0	0	0	487	502	199	175	
1	0	0	0	0	498	503	199	175	
2	0	0	0	0	513	502	199	173	
3	0	0	0	0	519	498	198	172	
4	0	0	0	0	522	503	198	172	
5	0	0	0	0	518	505	199	172	
6	0	0	0	0	519	505	199	172	
7	0	0	0	0	517	503	199	172	
8	0	0	0	0	523	504	199	171	
9	0	0	0	0	527	514	199	171	
10	0	0	0	0	539	521	198	171	
11	0	0	0	0	546	518	198	171	
12	0	0	0	0	535	509	198	171	
13	0	0	0	0	513	509	198	171	
14	0	0	0	0	502	527	198	170	
15	0	0	0	0	497	522	198	170	
0	0	0	0	0	490	504	198	170	
1	0	0	0	0	481	501	198	171	
2	0	0	0	0	451	504	198	170	
3	0	0	0	0	446	502	198	171	
4	0	0	0	0	480	502	199	170	
5	0	0	0	0	517	504	199	170	
6	0	0	0	0	524	503	199	170	
7	0	0	0	0	532	505	200	170	
8	0	0	0	0	536	506	200	170	
9	0	0	0	0	532	504	200	170	
10	0	0	0	0	531	510	199	171	
11	0	0	0	0	529	513	200	171	
12	0	0	0	0	528	510	200	171	
13	0	0	0	0	519	508	200	171	
14	0	0	0	0	508	508	200	170	
15	0	0	0	0	504	508	199	170	
0	0	0	0	0	511	504	200	171	
1	0	0	0	0	513	502	199	170	
2	0	0	0	0	511	502	200	170	
3	0	0	0	0	508	494	200	170	
4	0	0	0	0	510	500	199	169	
5	0	0	0	0	509	504	199	170	
6	0	0	0	0	514	512	200	169	
7	0	0	0	0	515	517	200	170	
8	0	0	0	0	512	524	201	170	
9	0	0	0	0	508	540	201	170	
10	0	0	0	0	512	534	201	170	
11	0	0	0	0	511	509	201	169	
12	0	0	0	0	501	497	200	169	
13	0	0	0	0	507	494	201	169	
14	0	0	0	0	511	492	201	169	
15	0	0	0	0	511	493	201	169	
0	0	0	0	0	514	493	201	170	
1	0	0	0	0	512	504	200	169	
2	0	0	0	0	507	505	199	170	
3	0	0	0	0	525	511	199	169	
4	0	0	0	0	515	515	198	170	
5	0	0	0	0	499	517	199	169	
6	0	0	0	0	478	512	200	169	
7	0	0	0	0	473	509	199	169	
8	0	0	0	0	494	506	200	169	
9	0	0	0	0	505	502	200	169	
10	0	0	0	0	507	502	200	169	
11	0	0	0	0	509	509	201	169	
12	0	0	0	0	524	509	201	170	
13	0	0	0	0	527	510	202	169	
14	0	0	0	0	524	518	201	169	
15	0	0	0	0	529	518	201	169	
0	0	0	0	0	534	510	201	169	
1	0	0	0	0	536	496	201	169	
2	0	0	0	0	530	496	201	169	
3	0	0	0	0	522	506	200	169	
4	0	0	0	0	520	507	201	168	
5	0	0	0	0	515	508	200	169	
6	0	0	0	0	504	509	201	169	
7	0	0	0	0	505	509	201	169	
8	0	0	0	0	512	513	202	169	
9	0	0	0	0	507	510	201	169	
10	0	0	0	0	497	507	201	168	
