# OpenSignals Text File Format. Version 1
# {"20:18:06:13:21:78": {"position": 0, "device": "bitalino_rev", "device name": "20:18:06:13:21:78", "device connection": "BTH20:18:06:13:21:78", "sampling rate": 1000, "resolution": [4, 1, 1, 1, 1, 10, 10, 10, 10], "firmware version": 1281, "comments": "", "keywords": "", "mode": 0, "sync interval": 2, "date": "2023-6-5", "time": "23:43:4.247", "channels": [1, 2, 3, 4], "sensor": ["EMGBITREV", "EMGBITREV", "RAW", "RAW"], "label": ["A1", "A2", "A3", "A4"], "column": ["nSeq", "I1", "I2", "O1", "O2", "A1", "A2", "A3", "A4"], "special": [{}, {}, {}, {}], "digital IO": [0, 0, 1, 1]}}
# EndOfHeader
0	0	0	0	0	508	508	0	0	
1	0	0	0	0	507	510	0	0	
2	0	0	0	0	504	511	0	0	
3	0	0	0	0	505	512	0	0	
4	0	0	0	0	508	514	0	0	
5	0	0	0	0	511	510	0	0	
6	0	0	0	0	512	510	0	0	
7	0	0	0	0	510	511	0	0	
8	0	0	0	0	509	511	0	0	
9	0	0	0	0	507	512	0	0	
10	0	0	0	0	507	512	0	0	
11	0	0	0	0	508	509	0	0	
12	0	0	0	0	509	510	0	0	
13	0	0	0	0	508	509	0	0	
14	0	0	0	0	508	511	0	0	
15	0	0	0	0	507	511	0	0	
0	0	0	0	0	508	511	0	0	
1	0	0	0	0	505	510	0	0	
2	0	0	0	0	509	511	0	0	
3	0	0	0	0	508	510	0	0	
4	0	0	0	0	508	510	0	0	
5	0	0	0	0	508	513	0	0	
6	0	0	0	0	507	510	0	0	
7	0	0	0	0	509	511	0	0	
8	0	0	0	0	509	511	0	0	
9	0	0	0	0	507	510	0	0	
10	0	0	0	0	512	510	0	0	
11	0	0	0	0	515	510	0	0	
12	0	0	0	0	521	511	0	0	
13	0	0	0	0	510	509	0	0	
14	0	0	0	0	508	510	0	0	
15	0	0	0	0	508	512	0	0	
0	0	0	0	0	505	511	0	0	
1	0	0	0	0	506	509	0	0	
2	0	0	0	0	508	509	0	0	
3	0	0	0	0	509	508	0	0	
4	0	0	0	0	506	510	0	0	
5	0	0	0	0	505	510	0	0	
6	0	0	0	0	504	511	0	0	
7	0	0	0	0	507	510	0	0	
8	0	0	0	0	505	510	0	0	
9	0	0	0	0	510	512	0	0	
10	0	0	0	0	512	513	0	0	
11	0	0	0	0	513	511	0	0	
12	0	0	0	0	510	512	0	0	
13	0	0	0	0	508	511	0	0	
14	0	0	0	0	510	510	0	0	
15	0	0	0	0	509	509	0	0	
0	0	0	0	0	511	511	0	0	
1	0	0	0	0	508	512	0	0	
2	0	0	0	0	504	512	0	0	
3	0	0	0	0	504	510	0	0	
4	0	0	0	0	510	511	0	0	
5	0	0	0	0	518	510	0	0	
6	0	0	0	0	510	511	0	0	
7	0	0	0	0	503	509	0	0	
8	0	0	0	0	503	509	0	0	
9	0	0	0	0	508	510	0	0	
10	0	0	0	0	508	510	0	0	
11	0	0	0	0	504	509	0	0	
12	0	0	0	0	502	509	0	0	
13	0	0	0	0	511	509	0	0	
14	0	0	0	0	513	510	0	0	
15	0	0	0	0	511	509	0	0	
0	0	0	0	0	513	512	0	0	
1	0	0	0	0	511	512	0	0	
2	0	0	0	0	512	511	0	0	
3	0	0	0	0	513	512	0	0	
4	0	0	0	0	510	512	0	0	
5	0	0	0	0	507	512	0	0	
6	0	0	0	0	507	510	0	0	
7	0	0	0	0	508	512	0	0	
8	0	0	0	0	508	511	0	0	
9	0	0	0	0	508	510	0	0	
10	0	0	0	0	505	510	0	0	
11	0	0	0	0	504	510	0	0	
12	0	0	0	0	506	510	0	0	
13	0	0	0	0	504	510	0	0	
14	0	0	0	0	503	511	0	0	
15	0	0	0	0	505	511	0	0	
0	0	0	0	0	510	509	0	0	
1	0	0	0	0	513	507	0	0	
2	0	0	0	0	512	509	0	0	
3	0	0	0	0	512	512	0	0	
4	0	0	0	0	512	512	0	0	
5	0	0	0	0	512	509	0	0	
6	0	0	0	0	512	511	0	0	
7	0	0	0	0	512	511	0	0	
8	0	0	0	0	511	510	0	0	
9	0	0	0	0	507	512	0	0	
10	0	0	0	0	504	511	0	0	
11	0	0	0	0	507	511	0	0	
12	0	0	0	0	506	510	0	0	
13	0	0	0	0	506	510	0	0	
14	0	0	0	0	508	508	0	0	
15	0	0	0	0	509	511	0	0	
0	0	0	0	0	507	509	0	0	
1	0	0	0	0	507	508	0	0	
2	0	0	0	0	505	511	0	0	
3	0	0	0	0	504	511	0	0	
4	0	0	0	0	503	509	0	0	
5	0	0	0	0	505	507	0	0	
6	0	0	0	0	517	511	0	0	
7	0	0	0	0	529	511	0	0	
8	0	0	0	0	517	513	0	0	
9	0	0	0	0	512	510	0	0	
10	0	0	0	0	508	510	0	0	
11	0	0	0	0	506	513	0	0	
12	0	0	0	0	503	511	0	0	
13	0	0	0	0	503	512	0	0	
14	0	0	0	0	505	509	0	0	
15	0	0	0	0	509	510	0	0	
0	0	0	0	0	508	513	0	0	
1	0	0	0	0	502	512	0	0	
2	0	0	0	0	499	512	0	0	
3	0	0	0	0	504	508	0	0	
4	0	0	0	0	508	509	0	0	
5	0	0	0	0	509	508	0	0	
6	0	0	0	0	508	510	0	0	
7	0	0	0	0	508	511	0	0	
8	0	0	0	0	515	510	0	0	
9	0	0	0	0	515	510	0	0	
10	0	0	0	0	510	510	0	0	
11	0	0	0	0	509	509	0	0	
12	0	0	0	0	511	510	0	0	
13	0	0	0	0	511	512	0	0	
14	0	0	0	0	510	510	0	0	
15	0	0	0	0	509	510	0	0	
0	0	0	0	0	510	511	0	0	
1	0	0	0	0	510	510	0	0	
2	0	0	0	0	509	510	0	0	
3	0	0	0	0	508	511	0	0	
4	0	0	0	0	507	510	0	0	
5	0	0	0	0	507	510	0	0	
6	0	0	0	0	505	511	0	0	
7	0	0	0	0	503	512	0	0	
8	0	0	0	0	507	510	0	0	
9	0	0	0	0	506	511	0	0	
10	0	0	0	0	508	511	0	0	
11	0	0	0	0	506	510	0	0	
12	0	0	0	0	509	511	0	0	
13	0	0	0	0	510	511	0	0	
14	0	0	0	0	511	511	0	0	
15	0	0	0	0	511	508	0	0	
0	0	0	0	0	511	510	0	0	
1	0	0	0	0	511	511	0	0	
2	0	0	0	0	510	513	0	0	
3	0	0	0	0	507	512	0	0	
4	0	0	0	0	504	510	0	0	
5	0	0	0	0	504	510	0	0	
6	0	0	0	0	508	513	0	0	
7	0	0	0	0	511	512	0	0	
8	0	0	0	0	516	510	0	0	
9	0	0	0	0	515	510	0	0	
10	0	0	0	0	512	508	0	0	
11	0	0	0	0	506	512	0	0	
12	0	0	0	0	503	509	0	0	
13	0	0	0	0	504	510	0	0	
14	0	0	0	0	506	508	0	0	
15	0	0	0	0	504	511	0	0	
0	0	0	0	0	509	509	0	0	
1	0	0	0	0	511	512	0	0	
2	0	0	0	0	510	509	0	0	
3	0	0	0	0	507	511	0	0	
4	0	0	0	0	508	511	0	0	
5	0	0	0	0	512	511	0	0	
6	0	0	0	0	511	508	0	0	
7	0	0	0	0	511	509	0	0	
8	0	0	0	0	511	510	0	0	
9	0	0	0	0	511	510	0	0	
10	0	0	0	0	508	511	0	0	
11	0	0	0	0	508	510	0	0	
12	0	0	0	0	506	512	0	0	
13	0	0	0	0	503	512	0	0	
14	0	0	0	0	505	513	0	0	
15	0	0	0	0	504	510	0	0	
0	0	0	0	0	507	511	0	0	
1	0	0	0	0	509	508	0	0	
2	0	0	0	0	510	508	0	0	
3	0	0	0	0	509	511	0	0	
4	0	0	0	0	504	508	0	0	
5	0	0	0	0	506	509	0	0	
6	0	0	0	0	504	509	0	0	
7	0	0	0	0	510	512	0	0	
8	0	0	0	0	513	511	0	0	
9	0	0	0	0	518	510	0	0	
10	0	0	0	0	515	511	0	0	
11	0	0	0	0	522	512	0	0	
12	0	0	0	0	508	514	0	0	
13	0	0	0	0	507	511	0	0	
14	0	0	0	0	506	509	0	0	
15	0	0	0	0	506	512	0	0	
0	0	0	0	0	506	510	0	0	
1	0	0	0	0	503	509	0	0	
2	0	0	0	0	504	511	0	0	
3	0	0	0	0	504	509	0	0	
4	0	0	0	0	509	508	0	0	
5	0	0	0	0	508	510	0	0	
6	0	0	0	0	504	511	0	0	
7	0	0	0	0	502	510	0	0	
8	0	0	0	0	502	506	0	0	
9	0	0	0	0	504	511	0	0	
10	0	0	0	0	512	511	0	0	
11	0	0	0	0	518	511	0	0	
12	0	0	0	0	520	512	0	0	
13	0	0	0	0	518	512	0	0	
14	0	0	0	0	511	510	0	0	
15	0	0	0	0	507	512	0	0	
0	0	0	0	0	504	512	0	0	
1	0	0	0	0	509	513	0	0	
2	0	0	0	0	507	514	0	0	
3	0	0	0	0	504	510	0	0	
4	0	0	0	0	508	510	0	0	
5	0	0	0	0	510	511	0	0	
6	0	0	0	0	510	510	0	0	
7	0	0	0	0	508	508	0	0	
8	0	0	0	0	509	512	0	0	
9	0	0	0	0	508	508	0	0	
10	0	0	0	0	507	508	0	0	
11	0	0	0	0	504	508	0	0	
12	0	0	0	0	509	510	0	0	
13	0	0	0	0	509	509	0	0	
14	0	0	0	0	512	510	0	0	
15	0	0	0	0	513	512	0	0	
0	0	0	0	0	512	514	0	0	
1	0	0	0	0	511	512	0	0	
2	0	0	0	0	506	510	0	0	
3	0	0	0	0	504	510	0	0	
4	0	0	0	0	503	512	0	0	
5	0	0	0	0	507	512	0	0	
6	0	0	0	0	521	511	0	0	
7	0	0	0	0	518	511	0	0	
8	0	0	0	0	503	510	0	0	
9	0	0	0	0	506	510	0	0	
10	0	0	0	0	507	507	0	0	
11	0	0	0	0	502	507	0	0	
12	0	0	0	0	502	510	0	0	
13	0	0	0	0	505	509	0	0	
14	0	0	0	0	510	505	0	0	
15	0	0	0	0	519	511	0	0	
0	0	0	0	0	516	510	0	0	
1	0	0	0	0	513	511	0	0	
2	0	0	0	0	508	512	0	0	
3	0	0	0	0	504	511	0	0	
4	0	0	0	0	504	512	0	0	
5	0	0	0	0	507	510	0	0	
6	0	0	0	0	511	512	0	0	
7	0	0	0	0	512	511	0	0	
8	0	0	0	0	511	509	0	0	
9	0	0	0	0	508	510	0	0	
10	0	0	0	0	508	510	0	0	
11	0	0	0	0	503	510	0	0	
12	0	0	0	0	497	510	0	0	
13	0	0	0	0	501	511	0	0	
14	0	0	0	0	505	511	0	0	
15	0	0	0	0	520	512	0	0	
0	0	0	0	0	528	512	0	0	
1	0	0	0	0	512	512	0	0	
2	0	0	0	0	505	512	0	0	
3	0	0	0	0	503	512	0	0	
4	0	0	0	0	500	511	0	0	
5	0	0	0	0	501	511	0	0	
6	0	0	0	0	508	510	0	0	
7	0	0	0	0	508	510	0	0	
8	0	0	0	0	509	509	0	0	
9	0	0	0	0	508	513	0	0	
10	0	0	0	0	509	511	0	0	
11	0	0	0	0	512	510	0	0	
12	0	0	0	0	512	512	0	0	
13	0	0	0	0	511	511	0	0	
14	0	0	0	0	512	510	0	0	
15	0	0	0	0	509	510	0	0	
0	0	0	0	0	506	509	0	0	
1	0	0	0	0	505	510	0	0	
2	0	0	0	0	504	510	0	0	
3	0	0	0	0	504	508	0	0	
4	0	0	0	0	510	508	0	0	
5	0	0	0	0	505	509	0	0	
6	0	0	0	0	504	511	0	0	
7	0	0	0	0	507	511	0	0	
8	0	0	0	0	511	508	0	0	
9	0	0	0	0	520	510	0	0	
10	0	0	0	0	511	512	0	0	
11	0	0	0	0	516	513	0	0	
12	0	0	0	0	521	512	0	0	
13	0	0	0	0	513	515	0	0	
14	0	0	0	0	507	510	0	0	
15	0	0	0	0	508	509	0	0	
0	0	0	0	0	512	508	0	0	
1	0	0	0	0	511	512	0	0	
2	0	0	0	0	507	513	0	0	
3	0	0	0	0	506	511	0	0	
4	0	0	0	0	503	510	0	0	
5	0	0	0	0	502	510	0	0	
6	0	0	0	0	499	510	0	0	
7	0	0	0	0	500	508	0	0	
8	0	0	0	0	504	511	0	0	
9	0	0	0	0	510	509	0	0	
10	0	0	0	0	510	510	0	0	
11	0	0	0	0	511	509	0	0	
12	0	0	0	0	512	511	0	0	
13	0	0	0	0	520	510	0	0	
14	0	0	0	0	511	511	0	0	
15	0	0	0	0	508	510	0	0	
0	0	0	0	0	511	511	0	0	
1	0	0	0	0	512	512	0	0	
2	0	0	0	0	509	512	0	0	
3	0	0	0	0	510	511	0	0	
4	0	0	0	0	509	512	0	0	
5	0	0	0	0	500	511	0	0	
6	0	0	0	0	502	511	0	0	
7	0	0	0	0	506	509	0	0	
8	0	0	0	0	506	508	0	0	
9	0	0	0	0	512	510	0	0	
10	0	0	0	0	513	510	0	0	
11	0	0	0	0	502	509	0	0	
12	0	0	0	0	499	511	0	0	
13	0	0	0	0	499	512	0	0	
14	0	0	0	0	511	511	0	0	
15	0	0	0	0	519	510	0	0	
0	0	0	0	0	512	510	0	0	
1	0	0	0	0	507	510	0	0	
2	0	0	0	0	511	510	0	0	
3	0	0	0	0	511	513	0	0	
4	0	0	0	0	509	513	0	0	
5	0	0	0	0	508	513	0	0	
6	0	0	0	0	511	511	0	0	
7	0	0	0	0	509	511	0	0	
8	0	0	0	0	515	510	0	0	
9	0	0	0	0	512	513	0	0	
10	0	0	0	0	510	508	0	0	
11	0	0	0	0	508	510	0	0	
12	0	0	0	0	504	510	0	0	
13	0	0	0	0	502	510	0	0	
14	0	0	0	0	503	508	0	0	
15	0	0	0	0	511	508	0	0	
0	0	0	0	0	515	509	0	0	
1	0	0	0	0	519	511	0	0	
2	0	0	0	0	505	512	0	0	
3	0	0	0	0	497	511	0	0	
4	0	0	0	0	498	510	0	0	
5	0	0	0	0	504	512	0	0	
6	0	0	0	0	507	510	0	0	
7	0	0	0	0	509	513	0	0	
8	0	0	0	0	523	512	0	0	
9	0	0	0	0	518	511	0	0	
10	0	0	0	0	509	511	0	0	
11	0	0	0	0	511	509	0	0	
12	0	0	0	0	509	511	0	0	
13	0	0	0	0	509	510	0	0	
14	0	0	0	0	511	511	0	0	
15	0	0	0	0	513	510	0	0	
0	0	0	0	0	507	512	0	0	
1	0	0	0	0	502	510	0	0	
2	0	0	0	0	504	509	0	0	
3	0	0	0	0	501	510	0	0	
4	0	0	0	0	502	509	0	0	
5	0	0	0	0	506	509	0	0	
6	0	0	0	0	507	511	0	0	
7	0	0	0	0	508	512	0	0	
8	0	0	0	0	510	510	0	0	
9	0	0	0	0	508	510	0	0	
10	0	0	0	0	508	509	0	0	
11	0	0	0	0	511	509	0	0	
12	0	0	0	0	511	512	0	0	
13	0	0	0	0	510	514	0	0	
14	0	0	0	0	510	511	0	0	
15	0	0	0	0	510	510	0	0	
0	0	0	0	0	509	513	0	0	
1	0	0	0	0	511	510	0	0	
2	0	0	0	0	511	511	0	0	
3	0	0	0	0	508	509	0	0	
4	0	0	0	0	509	510	0	0	
5	0	0	0	0	512	511	0	0	
6	0	0	0	0	508	509	0	0	
7	0	0	0	0	510	511	0	0	
8	0	0	0	0	503	510	0	0	
9	0	0	0	0	502	510	0	0	
10	0	0	0	0	504	510	0	0	
11	0	0	0	0	507	510	0	0	
12	0	0	0	0	505	507	0	0	
13	0	0	0	0	507	510	0	0	
14	0	0	0	0	510	510	0	0	
15	0	0	0	0	515	512	0	0	
0	0	0	0	0	509	511	0	0	
1	0	0	0	0	510	511	0	0	
2	0	0	0	0	509	511	0	0	
3	0	0	0	0	511	511	0	0	
4	0	0	0	0	512	511	0	0	
5	0	0	0	0	505	509	0	0	
6	0	0	0	0	500	511	0	0	
7	0	0	0	0	500	511	0	0	
8	0	0	0	0	505	511	0	0	
9	0	0	0	0	523	511	0	0	
10	0	0	0	0	521	510	0	0	
11	0	0	0	0	516	510	0	0	
12	0	0	0	0	503	511	0	0	
13	0	0	0	0	499	510	0	0	
14	0	0	0	0	501	510	0	0	
15	0	0	0	0	504	510	0	0	
0	0	0	0	0	507	508	0	0	
1	0	0	0	0	508	511	0	0	
2	0	0	0	0	510	507	0	0	
3	0	0	0	0	516	509	0	0	
4	0	0	0	0	510	512	0	0	
5	0	0	0	0	508	513	0	0	
6	0	0	0	0	507	511	0	0	
7	0	0	0	0	508	513	0	0	
8	0	0	0	0	508	511	0	0	
9	0	0	0	0	513	512	0	0	
10	0	0	0	0	514	510	0	0	
11	0	0	0	0	512	510	0	0	
12	0	0	0	0	511	511	0	0	
13	0	0	0	0	511	509	0	0	
14	0	0	0	0	508	510	0	0	
15	0	0	0	0	502	512	0	0	
0	0	0	0	0	501	511	0	0	
1	0	0	0	0	503	510	0	0	
2	0	0	0	0	503	511	0	0	
3	0	0	0	0	507	511	0	0	
4	0	0	0	0	505	510	0	0	
5	0	0	0	0	507	509	0	0	
6	0	0	0	0	508	508	0	0	
7	0	0	0	0	515	509	0	0	
8	0	0	0	0	514	511	0	0	
9	0	0	0	0	515	510	0	0	
10	0	0	0	0	513	513	0	0	
11	0	0	0	0	510	513	0	0	
12	0	0	0	0	509	513	0	0	
13	0	0	0	0	509	512	0	0	
14	0	0	0	0	513	510	0	0	
15	0	0	0	0	513	508	0	0	
0	0	0	0	0	505	510	0	0	
1	0	0	0	0	509	510	0	0	
2	0	0	0	0	511	510	0	0	
3	0	0	0	0	501	510	0	0	
4	0	0	0	0	504	510	0	0	
5	0	0	0	0	499	510	0	0	
6	0	0	0	0	495	510	0	0	
7	0	0	0	0	503	508	0	0	
8	0	0	0	0	512	511	0	0	
9	0	0	0	0	515	510	0	0	
10	0	0	0	0	515	511	0	0	
11	0	0	0	0	513	509	0	0	
12	0	0	0	0	514	512	0	0	
13	0	0	0	0	511	511	0	0	
14	0	0	0	0	512	512	0	0	
15	0	0	0	0	520	507	0	0	
0	0	0	0	0	516	511	0	0	
1	0	0	0	0	509	511	0	0	
2	0	0	0	0	507	509	0	0	
3	0	0	0	0	503	509	0	0	
4	0	0	0	0	499	511	0	0	
5	0	0	0	0	499	511	0	0	
6	0	0	0	0	503	512	0	0	
7	0	0	0	0	506	507	0	0	
8	0	0	0	0	507	508	0	0	
9	0	0	0	0	509	510	0	0	
10	0	0	0	0	511	510	0	0	
11	0	0	0	0	506	512	0	0	
12	0	0	0	0	506	509	0	0	
13	0	0	0	0	508	512	0	0	
14	0	0	0	0	511	510	0	0	
15	0	0	0	0	512	509	0	0	
0	0	0	0	0	514	511	0	0	
1	0	0	0	0	514	511	0	0	
2	0	0	0	0	513	512	0	0	
3	0	0	0	0	513	510	0	0	
4	0	0	0	0	511	511	0	0	
5	0	0	0	0	508	513	0	0	
6	0	0	0	0	504	510	0	0	
7	0	0	0	0	507	510	0	0	
8	0	0	0	0	508	509	0	0	
9	0	0	0	0	508	510	0	0	
10	0	0	0	0	505	509	0	0	
11	0	0	0	0	496	510	0	0	
12	0	0	0	0	496	510	0	0	
13	0	0	0	0	506	511	0	0	
14	0	0	0	0	512	509	0	0	
15	0	0	0	0	529	512	0	0	
0	0	0	0	0	522	512	0	0	
1	0	0	0	0	505	511	0	0	
2	0	0	0	0	505	508	0	0	
3	0	0	0	0	507	513	0	0	
4	0	0	0	0	508	511	0	0	
5	0	0	0	0	512	511	0	0	
6	0	0	0	0	511	513	0	0	
7	0	0	0	0	505	510	0	0	
8	0	0	0	0	508	511	0	0	
9	0	0	0	0	509	511	0	0	
10	0	0	0	0	511	511	0	0	
11	0	0	0	0	523	510	0	0	
12	0	0	0	0	513	509	0	0	
13	0	0	0	0	506	510	0	0	
14	0	0	0	0	502	512	0	0	
15	0	0	0	0	499	511	0	0	
0	0	0	0	0	503	512	0	0	
1	0	0	0	0	503	510	0	0	
2	0	0	0	0	506	510	0	0	
3	0	0	0	0	504	508	0	0	
4	0	0	0	0	508	510	0	0	
5	0	0	0	0	502	512	0	0	
6	0	0	0	0	512	511	0	0	
7	0	0	0	0	518	512	0	0	
8	0	0	0	0	513	511	0	0	
9	0	0	0	0	512	512	0	0	
10	0	0	0	0	512	510	0	0	
11	0	0	0	0	510	510	0	0	
12	0	0	0	0	514	509	0	0	
13	0	0	0	0	510	511	0	0	
14	0	0	0	0	503	511	0	0	
15	0	0	0	0	504	512	0	0	
0	0	0	0	0	505	512	0	0	
1	0	0	0	0	503	511	0	0	
2	0	0	0	0	502	511	0	0	
3	0	0	0	0	503	510	0	0	
4	0	0	0	0	507	510	0	0	
5	0	0	0	0	510	509	0	0	
6	0	0	0	0	508	509	0	0	
7	0	0	0	0	508	509	0	0	
8	0	0	0	0	507	510	0	0	
9	0	0	0	0	512	510	0	0	
10	0	0	0	0	518	512	0	0	
11	0	0	0	0	512	510	0	0	
12	0	0	0	0	511	513	0	0	
13	0	0	0	0	516	512	0	0	
14	0	0	0	0	510	510	0	0	
15	0	0	0	0	508	511	0	0	
0	0	0	0	0	508	512	0	0	
1	0	0	0	0	508	511	0	0	
2	0	0	0	0	508	511	0	0	
3	0	0	0	0	507	510	0	0	
4	0	0	0	0	506	510	0	0	
5	0	0	0	0	508	509	0	0	
6	0	0	0	0	505	509	0	0	
7	0	0	0	0	504	507	0	0	
8	0	0	0	0	501	508	0	0	
9	0	0	0	0	505	508	0	0	
10	0	0	0	0	508	511	0	0	
11	0	0	0	0	510	509	0	0	
12	0	0	0	0	512	508	0	0	
13	0	0	0	0	509	511	0	0	
14	0	0	0	0	513	511	0	0	
15	0	0	0	0	511	511	0	0	
0	0	0	0	0	510	511	0	0	
1	0	0	0	0	511	513	0	0	
2	0	0	0	0	510	511	0	0	
3	0	0	0	0	510	511	0	0	
4	0	0	0	0	509	513	0	0	
5	0	0	0	0	507	511	0	0	
6	0	0	0	0	509	510	0	0	
7	0	0	0	0	508	510	0	0	
8	0	0	0	0	507	510	0	0	
9	0	0	0	0	504	509	0	0	
10	0	0	0	0	504	508	0	0	
11	0	0	0	0	505	511	0	0	
12	0	0	0	0	507	511	0	0	
13	0	0	0	0	513	510	0	0	
14	0	0	0	0	522	510	0	0	
15	0	0	0	0	516	510	0	0	
0	0	0	0	0	504	512	0	0	
1	0	0	0	0	498	511	0	0	
2	0	0	0	0	505	512	0	0	
3	0	0	0	0	507	509	0	0	
4	0	0	0	0	513	510	0	0	
5	0	0	0	0	516	510	0	0	
6	0	0	0	0	509	510	0	0	
7	0	0	0	0	504	510	0	0	
8	0	0	0	0	514	512	0	0	
9	0	0	0	0	509	509	0	0	
10	0	0	0	0	500	510	0	0	
11	0	0	0	0	504	512	0	0	
12	0	0	0	0	506	512	0	0	
13	0	0	0	0	508	512	0	0	
14	0	0	0	0	508	511	0	0	
15	0	0	0	0	508	509	0	0	
0	0	0	0	0	506	511	0	0	
1	0	0	0	0	507	509	0	0	
2	0	0	0	0	505	510	0	0	
3	0	0	0	0	506	511	0	0	
4	0	0	0	0	507	511	0	0	
5	0	0	0	0	512	511	0	0	
6	0	0	0	0	517	510	0	0	
7	0	0	0	0	523	509	0	0	
8	0	0	0	0	521	509	0	0	
9	0	0	0	0	511	511	0	0	
10	0	0	0	0	506	511	0	0	
11	0	0	0	0	507	510	0	0	
12	0	0	0	0	506	509	0	0	
13	0	0	0	0	504	510	0	0	
14	0	0	0	0	508	509	0	0	
15	0	0	0	0	508	512	0	0	
0	0	0	0	0	507	508	0	0	
1	0	0	0	0	506	509	0	0	
2	0	0	0	0	504	511	0	0	
3	0	0	0	0	503	509	0	0	
4	0	0	0	0	502	510	0	0	
5	0	0	0	0	504	511	0	0	
6	0	0	0	0	507	510	0	0	
7	0	0	0	0	511	512	0	0	
8	0	0	0	0	511	511	0	0	
9	0	0	0	0	511	513	0	0	
10	0	0	0	0	519	512	0	0	
11	0	0	0	0	515	512	0	0	
12	0	0	0	0	505	511	0	0	
13	0	0	0	0	508	512	0	0	
14	0	0	0	0	509	508	0	0	
15	0	0	0	0	509	511	0	0	
0	0	0	0	0	510	510	0	0	
1	0	0	0	0	510	509	0	0	
2	0	0	0	0	507	511	0	0	
3	0	0	0	0	511	512	0	0	
4	0	0	0	0	499	511	0	0	
5	0	0	0	0	510	510	0	0	
6	0	0	0	0	515	510	0	0	
7	0	0	0	0	505	512	0	0	
8	0	0	0	0	512	511	0	0	
9	0	0	0	0	507	507	0	0	
10	0	0	0	0	503	511	0	0	
11	0	0	0	0	502	511	0	0	
12	0	0	0	0	508	508	0	0	
13	0	0	0	0	511	511	0	0	
14	0	0	0	0	512	511	0	0	
15	0	0	0	0	511	511	0	0	
0	0	0	0	0	507	512	0	0	
1	0	0	0	0	508	512	0	0	
2	0	0	0	0	508	513	0	0	
3	0	0	0	0	511	511	0	0	
4	0	0	0	0	513	510	0	0	
5	0	0	0	0	512	512	0	0	
6	0	0	0	0	510	510	0	0	
7	0	0	0	0	509	511	0	0	
8	0	0	0	0	505	511	0	0	
9	0	0	0	0	505	511	0	0	
10	0	0	0	0	504	508	0	0	
11	0	0	0	0	505	509	0	0	
12	0	0	0	0	505	510	0	0	
13	0	0	0	0	506	511	0	0	
14	0	0	0	0	512	509	0	0	
15	0	0	0	0	511	509	0	0	
0	0	0	0	0	507	509	0	0	
1	0	0	0	0	507	511	0	0	
2	0	0	0	0	499	509	0	0	
3	0	0	0	0	503	513	0	0	
4	0	0	0	0	504	511	0	0	
5	0	0	0	0	506	511	0	0	
6	0	0	0	0	508	513	0	0	
7	0	0	0	0	519	511	0	0	
8	0	0	0	0	529	511	0	0	
9	0	0	0	0	522	512	0	0	
10	0	0	0	0	507	510	0	0	
11	0	0	0	0	508	511	0	0	
12	0	0	0	0	512	508	0	0	
13	0	0	0	0	512	511	0	0	
14	0	0	0	0	504	509	0	0	
15	0	0	0	0	500	510	0	0	
0	0	0	0	0	503	508	0	0	
1	0	0	0	0	502	508	0	0	
2	0	0	0	0	505	510	0	0	
3	0	0	0	0	505	509	0	0	
4	0	0	0	0	509	513	0	0	
5	0	0	0	0	511	510	0	0	
6	0	0	0	0	511	512	0	0	
7	0	0	0	0	512	511	0	0	
8	0	0	0	0	511	511	0	0	
9	0	0	0	0	511	509	0	0	
10	0	0	0	0	507	511	0	0	
11	0	0	0	0	508	510	0	0	
12	0	0	0	0	510	512	0	0	
13	0	0	0	0	509	511	0	0	
14	0	0	0	0	511	511	0	0	
15	0	0	0	0	510	511	0	0	
0	0	0	0	0	507	512	0	0	
1	0	0	0	0	507	509	0	0	
2	0	0	0	0	505	509	0	0	
3	0	0	0	0	505	509	0	0	
4	0	0	0	0	505	508	0	0	
5	0	0	0	0	505	510	0	0	
6	0	0	0	0	511	510	0	0	
7	0	0	0	0	513	511	0	0	
8	0	0	0	0	511	512	0	0	
9	0	0	0	0	510	513	0	0	
10	0	0	0	0	510	509	0	0	
11	0	0	0	0	502	509	0	0	
12	0	0	0	0	508	511	0	0	
13	0	0	0	0	511	512	0	0	
14	0	0	0	0	515	514	0	0	
15	0	0	0	0	512	511	0	0	
0	0	0	0	0	510	513	0	0	
1	0	0	0	0	508	511	0	0	
2	0	0	0	0	507	510	0	0	
3	0	0	0	0	509	511	0	0	
4	0	0	0	0	507	511	0	0	
5	0	0	0	0	508	508	0	0	
6	0	0	0	0	510	508	0	0	
7	0	0	0	0	504	510	0	0	
8	0	0	0	0	503	511	0	0	
9	0	0	0	0	502	513	0	0	
10	0	0	0	0	504	510	0	0	
11	0	0	0	0	509	510	0	0	
12	0	0	0	0	511	510	0	0	
13	0	0	0	0	527	510	0	0	
14	0	0	0	0	533	511	0	0	
15	0	0	0	0	521	512	0	0	
0	0	0	0	0	503	512	0	0	
1	0	0	0	0	485	510	0	0	
2	0	0	0	0	482	515	0	0	
3	0	0	0	0	488	512	0	0	
4	0	0	0	0	498	510	0	0	
5	0	0	0	0	521	507	0	0	
6	0	0	0	0	535	513	0	0	
7	0	0	0	0	525	513	0	0	
8	0	0	0	0	513	512	0	0	
9	0	0	0	0	511	507	0	0	
10	0	0	0	0	507	508	0	0	
11	0	0	0	0	505	511	0	0	
12	0	0	0	0	503	511	0	0	
13	0	0	0	0	502	510	0	0	
14	0	0	0	0	504	511	0	0	
15	0	0	0	0	506	510	0	0	
0	0	0	0	0	507	512	0	0	
1	0	0	0	0	509	511	0	0	
2	0	0	0	0	512	511	0	0	
3	0	0	0	0	513	511	0	0	
4	0	0	0	0	518	511	0	0	
5	0	0	0	0	511	512	0	0	
6	0	0	0	0	508	511	0	0	
7	0	0	0	0	510	509	0	0	
8	0	0	0	0	509	510	0	0	
9	0	0	0	0	510	513	0	0	
10	0	0	0	0	511	508	0	0	
11	0	0	0	0	506	508	0	0	
12	0	0	0	0	507	510	0	0	
13	0	0	0	0	507	510	0	0	
14	0	0	0	0	502	510	0	0	
15	0	0	0	0	503	508	0	0	
0	0	0	0	0	504	510	0	0	
1	0	0	0	0	507	510	0	0	
2	0	0	0	0	508	508	0	0	
3	0	0	0	0	511	510	0	0	
4	0	0	0	0	514	509	0	0	
5	0	0	0	0	508	510	0	0	
6	0	0	0	0	506	514	0	0	
7	0	0	0	0	507	511	0	0	
8	0	0	0	0	507	513	0	0	
9	0	0	0	0	511	509	0	0	
10	0	0	0	0	512	509	0	0	
11	0	0	0	0	512	508	0	0	
12	0	0	0	0	510	510	0	0	
13	0	0	0	0	510	509	0	0	
14	0	0	0	0	508	513	0	0	
15	0	0	0	0	508	510	0	0	
0	0	0	0	0	508	511	0	0	
1	0	0	0	0	509	510	0	0	
2	0	0	0	0	509	512	0	0	
3	0	0	0	0	506	510	0	0	
4	0	0	0	0	505	511	0	0	
5	0	0	0	0	504	511	0	0	
6	0	0	0	0	508	511	0	0	
7	0	0	0	0	507	512	0	0	
8	0	0	0	0	508	508	0	0	
9	0	0	0	0	512	512	0	0	
10	0	0	0	0	511	510	0	0	
11	0	0	0	0	510	511	0	0	
12	0	0	0	0	511	511	0	0	
13	0	0	0	0	507	511	0	0	
14	0	0	0	0	502	513	0	0	
15	0	0	0	0	501	511	0	0	
0	0	0	0	0	504	513	0	0	
1	0	0	0	0	511	511	0	0	
2	0	0	0	0	511	509	0	0	
3	0	0	0	0	522	509	0	0	
4	0	0	0	0	532	510	0	0	
5	0	0	0	0	510	511	0	0	
6	0	0	0	0	502	510	0	0	
7	0	0	0	0	501	510	0	0	
8	0	0	0	0	498	511	0	0	
9	0	0	0	0	500	510	0	0	
10	0	0	0	0	505	513	0	0	
11	0	0	0	0	505	510	0	0	
12	0	0	0	0	509	510	0	0	
13	0	0	0	0	510	510	0	0	
14	0	0	0	0	510	512	0	0	
15	0	0	0	0	513	509	0	0	
0	0	0	0	0	513	510	0	0	
1	0	0	0	0	513	511	0	0	
2	0	0	0	0	510	510	0	0	
3	0	0	0	0	511	511	0	0	
4	0	0	0	0	512	514	0	0	
5	0	0	0	0	509	512	0	0	
6	0	0	0	0	508	508	0	0	
7	0	0	0	0	508	509	0	0	
8	0	0	0	0	506	509	0	0	
9	0	0	0	0	506	509	0	0	
10	0	0	0	0	506	511	0	0	
11	0	0	0	0	504	510	0	0	
12	0	0	0	0	506	510	0	0	
13	0	0	0	0	508	508	0	0	
14	0	0	0	0	510	510	0	0	
15	0	0	0	0	509	510	0	0	
0	0	0	0	0	507	510	0	0	
1	0	0	0	0	509	509	0	0	
2	0	0	0	0	510	508	0	0	
3	0	0	0	0	509	510	0	0	
4	0	0	0	0	511	513	0	0	
5	0	0	0	0	513	512	0	0	
6	0	0	0	0	511	511	0	0	
7	0	0	0	0	513	511	0	0	
8	0	0	0	0	510	512	0	0	
9	0	0	0	0	508	510	0	0	
10	0	0	0	0	508	511	0	0	
11	0	0	0	0	505	511	0	0	
12	0	0	0	0	502	511	0	0	
13	0	0	0	0	507	510	0	0	
14	0	0	0	0	508	513	0	0	
15	0	0	0	0	508	509	0	0	
0	0	0	0	0	508	511	0	0	
1	0	0	0	0	510	510	0	0	
2	0	0	0	0	506	509	0	0	
3	0	0	0	0	506	511	0	0	
4	0	0	0	0	506	510	0	0	
5	0	0	0	0	508	511	0	0	
6	0	0	0	0	509	511	0	0	
7	0	0	0	0	513	510	0	0	
8	0	0	0	0	513	513	0	0	
9	0	0	0	0	515	510	0	0	
10	0	0	0	0	515	512	0	0	
11	0	0	0	0	513	509	0	0	
12	0	0	0	0	499	511	0	0	
13	0	0	0	0	500	510	0	0	
14	0	0	0	0	503	512	0	0	
15	0	0	0	0	508	511	0	0	
0	0	0	0	0	510	511	0	0	
1	0	0	0	0	510	511	0	0	
2	0	0	0	0	507	510	0	0	
3	0	0	0	0	505	509	0	0	
4	0	0	0	0	506	511	0	0	
5	0	0	0	0	505	507	0	0	
6	0	0	0	0	506	508	0	0	
7	0	0	0	0	506	509	0	0	
8	0	0	0	0	509	508	0	0	
9	0	0	0	0	515	511	0	0	
10	0	0	0	0	519	510	0	0	
11	0	0	0	0	514	512	0	0	
12	0	0	0	0	509	511	0	0	
13	0	0	0	0	511	509	0	0	
14	0	0	0	0	512	510	0	0	
15	0	0	0	0	509	510	0	0	
0	0	0	0	0	509	511	0	0	
1	0	0	0	0	509	511	0	0	
2	0	0	0	0	507	511	0	0	
3	0	0	0	0	506	511	0	0	
4	0	0	0	0	506	512	0	0	
5	0	0	0	0	505	513	0	0	
6	0	0	0	0	507	513	0	0	
7	0	0	0	0	509	509	0	0	
8	0	0	0	0	506	510	0	0	
9	0	0	0	0	505	510	0	0	
10	0	0	0	0	505	510	0	0	
11	0	0	0	0	508	511	0	0	
12	0	0	0	0	506	511	0	0	
13	0	0	0	0	510	509	0	0	
14	0	0	0	0	513	510	0	0	
15	0	0	0	0	514	509	0	0	
0	0	0	0	0	513	512	0	0	
1	0	0	0	0	512	512	0	0	
2	0	0	0	0	509	511	0	0	
3	0	0	0	0	511	512	0	0	
4	0	0	0	0	509	512	0	0	
5	0	0	0	0	508	513	0	0	
6	0	0	0	0	507	510	0	0	
7	0	0	0	0	507	510	0	0	
8	0	0	0	0	505	510	0	0	
9	0	0	0	0	505	511	0	0	
10	0	0	0	0	509	509	0	0	
11	0	0	0	0	510	510	0	0	
12	0	0	0	0	512	511	0	0	
13	0	0	0	0	516	510	0	0	
14	0	0	0	0	508	511	0	0	
15	0	0	0	0	503	511	0	0	
0	0	0	0	0	503	513	0	0	
1	0	0	0	0	504	510	0	0	
2	0	0	0	0	510	510	0	0	
3	0	0	0	0	507	510	0	0	
4	0	0	0	0	507	510	0	0	
5	0	0	0	0	513	508	0	0	
6	0	0	0	0	512	512	0	0	
7	0	0	0	0	514	508	0	0	
8	0	0	0	0	511	512	0	0	
9	0	0	0	0	505	510	0	0	
10	0	0	0	0	505	507	0	0	
11	0	0	0	0	510	510	0	0	
12	0	0	0	0	504	512	0	0	
13	0	0	0	0	510	513	0	0	
14	0	0	0	0	515	511	0	0	
15	0	0	0	0	515	509	0	0	
0	0	0	0	0	510	511	0	0	
1	0	0	0	0	506	509	0	0	
2	0	0	0	0	507	508	0	0	
3	0	0	0	0	504	510	0	0	
4	0	0	0	0	502	512	0	0	
5	0	0	0	0	505	510	0	0	
6	0	0	0	0	510	510	0	0	
7	0	0	0	0	508	511	0	0	
8	0	0	0	0	511	512	0	0	
9	0	0	0	0	512	512	0	0	
10	0	0	0	0	511	511	0	0	
11	0	0	0	0	507	511	0	0	
12	0	0	0	0	508	511	0	0	
13	0	0	0	0	510	510	0	0	
14	0	0	0	0	509	511	0	0	
15	0	0	0	0	508	508	0	0	
0	0	0	0	0	508	510	0	0	
1	0	0	0	0	511	510	0	0	
2	0	0	0	0	510	511	0	0	
3	0	0	0	0	503	511	0	0	
4	0	0	0	0	502	510	0	0	
5	0	0	0	0	505	511	0	0	
6	0	0	0	0	506	509	0	0	
7	0	0	0	0	507	512	0	0	
8	0	0	0	0	507	510	0	0	
9	0	0	0	0	508	510	0	0	
10	0	0	0	0	510	508	0	0	
11	0	0	0	0	512	510	0	0	
12	0	0	0	0	513	511	0	0	
13	0	0	0	0	514	509	0	0	
14	0	0	0	0	512	511	0	0	
15	0	0	0	0	511	513	0	0	
0	0	0	0	0	508	510	0	0	
1	0	0	0	0	509	509	0	0	
2	0	0	0	0	512	511	0	0	
3	0	0	0	0	510	511	0	0	
4	0	0	0	0	505	510	0	0	
5	0	0	0	0	505	510	0	0	
6	0	0	0	0	503	511	0	0	
7	0	0	0	0	504	510	0	0	
8	0	0	0	0	507	511	0	0	
9	0	0	0	0	515	512	0	0	
10	0	0	0	0	512	511	0	0	
11	0	0	0	0	508	510	0	0	
12	0	0	0	0	510	511	0	0	
13	0	0	0	0	507	509	0	0	
14	0	0	0	0	509	510	0	0	
15	0	0	0	0	510	510	0	0	
0	0	0	0	0	508	511	0	0	
1	0	0	0	0	508	511	0	0	
2	0	0	0	0	509	514	0	0	
3	0	0	0	0	508	511	0	0	
4	0	0	0	0	505	512	0	0	
5	0	0	0	0	511	509	0	0	
6	0	0	0	0	514	511	0	0	
7	0	0	0	0	523	511	0	0	
8	0	0	0	0	509	510	0	0	
9	0	0	0	0	505	509	0	0	
10	0	0	0	0	504	510	0	0	
11	0	0	0	0	503	509	0	0	
12	0	0	0	0	504	511	0	0	
13	0	0	0	0	502	512	0	0	
14	0	0	0	0	508	508	0	0	
15	0	0	0	0	509	508	0	0	
0	0	0	0	0	508	510	0	0	
1	0	0	0	0	508	509	0	0	
2	0	0	0	0	510	509	0	0	
3	0	0	0	0	511	511	0	0	
4	0	0	0	0	508	509	0	0	
5	0	0	0	0	508	511	0	0	
6	0	0	0	0	509	510	0	0	
7	0	0	0	0	512	511	0	0	
8	0	0	0	0	512	514	0	0	
9	0	0	0	0	510	511	0	0	
10	0	0	0	0	510	510	0	0	
11	0	0	0	0	509	512	0	0	
12	0	0	0	0	507	510	0	0	
13	0	0	0	0	507	511	0	0	
14	0	0	0	0	505	509	0	0	
15	0	0	0	0	506	509	0	0	
0	0	0	0	0	505	508	0	0	
1	0	0	0	0	508	509	0	0	
2	0	0	0	0	508	509	0	0	
3	0	0	0	0	509	511	0	0	
4	0	0	0	0	507	509	0	0	
5	0	0	0	0	506	512	0	0	
6	0	0	0	0	509	510	0	0	
7	0	0	0	0	509	510	0	0	
8	0	0	0	0	510	511	0	0	
9	0	0	0	0	512	513	0	0	
10	0	0	0	0	511	512	0	0	
11	0	0	0	0	511	513	0	0	
12	0	0	0	0	513	512	0	0	
13	0	0	0	0	511	512	0	0	
14	0	0	0	0	511	512	0	0	
15	0	0	0	0	508	510	0	0	
0	0	0	0	0	509	509	0	0	
1	0	0	0	0	510	510	0	0	
2	0	0	0	0	507	510	0	0	
3	0	0	0	0	505	509	0	0	
4	0	0	0	0	502	512	0	0	
5	0	0	0	0	503	509	0	0	
6	0	0	0	0	509	511	0	0	
7	0	0	0	0	499	511	0	0	
8	0	0	0	0	501	512	0	0	
9	0	0	0	0	503	511	0	0	
10	0	0	0	0	512	512	0	0	
11	0	0	0	0	511	510	0	0	
12	0	0	0	0	511	509	0	0	
13	0	0	0	0	515	509	0	0	
14	0	0	0	0	521	510	0	0	
15	0	0	0	0	514	511	0	0	
0	0	0	0	0	511	511	0	0	
1	0	0	0	0	511	510	0	0	
2	0	0	0	0	518	510	0	0	
3	0	0	0	0	510	510	0	0	
4	0	0	0	0	506	513	0	0	
5	0	0	0	0	504	509	0	0	
6	0	0	0	0	506	510	0	0	
7	0	0	0	0	503	509	0	0	
8	0	0	0	0	501	510	0	0	
9	0	0	0	0	502	512	0	0	
10	0	0	0	0	502	508	0	0	
11	0	0	0	0	504	510	0	0	
12	0	0	0	0	504	510	0	0	
13	0	0	0	0	504	511	0	0	
14	0	0	0	0	508	511	0	0	
15	0	0	0	0	515	511	0	0	
0	0	0	0	0	524	512	0	0	
1	0	0	0	0	526	511	0	0	
2	0	0	0	0	514	511	0	0	
3	0	0	0	0	510	510	0	0	
4	0	0	0	0	507	511	0	0	
5	0	0	0	0	508	511	0	0	
6	0	0	0	0	505	510	0	0	
7	0	0	0	0	505	513	0	0	
8	0	0	0	0	505	508	0	0	
9	0	0	0	0	506	508	0	0	
10	0	0	0	0	504	508	0	0	
11	0	0	0	0	503	512	0	0	
12	0	0	0	0	505	511	0	0	
13	0	0	0	0	507	508	0	0	
14	0	0	0	0	508	508	0	0	
15	0	0	0	0	507	509	0	0	
0	0	0	0	0	508	512	0	0	
1	0	0	0	0	508	511	0	0	
2	0	0	0	0	510	511	0	0	
3	0	0	0	0	514	513	0	0	
4	0	0	0	0	513	512	0	0	
5	0	0	0	0	511	511	0	0	
6	0	0	0	0	512	512	0	0	
7	0	0	0	0	511	511	0	0	
8	0	0	0	0	511	509	0	0	
9	0	0	0	0	510	509	0	0	
10	0	0	0	0	505	511	0	0	
11	0	0	0	0	503	510	0	0	
12	0	0	0	0	504	511	0	0	
13	0	0	0	0	511	513	0	0	
14	0	0	0	0	505	510	0	0	
15	0	0	0	0	507	508	0	0	
0	0	0	0	0	504	512	0	0	
1	0	0	0	0	505	511	0	0	
2	0	0	0	0	505	510	0	0	
3	0	0	0	0	509	512	0	0	
4	0	0	0	0	509	509	0	0	
5	0	0	0	0	510	511	0	0	
6	0	0	0	0	511	509	0	0	
7	0	0	0	0	513	511	0	0	
8	0	0	0	0	513	511	0	0	
9	0	0	0	0	516	509	0	0	
10	0	0	0	0	511	510	0	0	
11	0	0	0	0	509	510	0	0	
12	0	0	0	0	511	511	0	0	
13	0	0	0	0	508	510	0	0	
14	0	0	0	0	508	512	0	0	
15	0	0	0	0	507	511	0	0	
0	0	0	0	0	507	511	0	0	
1	0	0	0	0	507	511	0	0	
2	0	0	0	0	504	511	0	0	
3	0	0	0	0	504	509	0	0	
4	0	0	0	0	506	512	0	0	
5	0	0	0	0	508	509	0	0	
6	0	0	0	0	508	508	0	0	
7	0	0	0	0	506	509	0	0	
8	0	0	0	0	502	510	0	0	
9	0	0	0	0	510	511	0	0	
10	0	0	0	0	521	512	0	0	
11	0	0	0	0	519	512	0	0	
12	0	0	0	0	514	511	0	0	
13	0	0	0	0	507	511	0	0	
14	0	0	0	0	507	511	0	0	
15	0	0	0	0	511	511	0	0	
0	0	0	0	0	511	510	0	0	
1	0	0	0	0	508	514	0	0	
2	0	0	0	0	508	511	0	0	
3	0	0	0	0	506	511	0	0	
4	0	0	0	0	504	510	0	0	
5	0	0	0	0	505	509	0	0	
6	0	0	0	0	503	509	0	0	
7	0	0	0	0	506	509	0	0	
8	0	0	0	0	508	511	0	0	
9	0	0	0	0	506	509	0	0	
10	0	0	0	0	504	510	0	0	
11	0	0	0	0	506	509	0	0	
12	0	0	0	0	506	510	0	0	
13	0	0	0	0	511	509	0	0	
14	0	0	0	0	514	510	0	0	
15	0	0	0	0	514	509	0	0	
0	0	0	0	0	521	510	0	0	
1	0	0	0	0	512	510	0	0	
2	0	0	0	0	505	510	0	0	
3	0	0	0	0	502	511	0	0	
4	0	0	0	0	509	512	0	0	
5	0	0	0	0	512	511	0	0	
6	0	0	0	0	511	510	0	0	
7	0	0	0	0	510	512	0	0	
8	0	0	0	0	509	512	0	0	
9	0	0	0	0	514	508	0	0	
10	0	0	0	0	507	510	0	0	
11	0	0	0	0	504	510	0	0	
12	0	0	0	0	503	510	0	0	
13	0	0	0	0	502	507	0	0	
14	0	0	0	0	506	511	0	0	
15	0	0	0	0	508	510	0	0	
0	0	0	0	0	509	508	0	0	
1	0	0	0	0	509	508	0	0	
2	0	0	0	0	512	510	0	0	
3	0	0	0	0	510	512	0	0	
4	0	0	0	0	513	510	0	0	
5	0	0	0	0	511	511	0	0	
6	0	0	0	0	512	511	0	0	
7	0	0	0	0	509	510	0	0	
8	0	0	0	0	510	512	0	0	
9	0	0	0	0	511	511	0	0	
10	0	0	0	0	512	511	0	0	
11	0	0	0	0	507	509	0	0	
12	0	0	0	0	507	511	0	0	
13	0	0	0	0	500	510	0	0	
14	0	0	0	0	501	510	0	0	
15	0	0	0	0	506	512	0	0	
0	0	0	0	0	515	509	0	0	
1	0	0	0	0	508	510	0	0	
2	0	0	0	0	507	511	0	0	
3	0	0	0	0	506	512	0	0	
4	0	0	0	0	505	508	0	0	
5	0	0	0	0	509	510	0	0	
6	0	0	0	0	509	510	0	0	
7	0	0	0	0	509	512	0	0	
8	0	0	0	0	508	511	0	0	
9	0	0	0	0	512	509	0	0	
10	0	0	0	0	515	512	0	0	
11	0	0	0	0	524	511	0	0	
12	0	0	0	0	514	511	0	0	
13	0	0	0	0	508	509	0	0	
14	0	0	0	0	508	511	0	0	
15	0	0	0	0	502	511	0	0	
0	0	0	0	0	500	509	0	0	
1	0	0	0	0	504	510	0	0	
2	0	0	0	0	506	509	0	0	
3	0	0	0	0	508	507	0	0	
4	0	0	0	0	507	508	0	0	
5	0	0	0	0	507	511	0	0	
6	0	0	0	0	506	511	0	0	
7	0	0	0	0	506	512	0	0	
8	0	0	0	0	506	509	0	0	
9	0	0	0	0	503	512	0	0	
10	0	0	0	0	505	511	0	0	
11	0	0	0	0	510	510	0	0	
12	0	0	0	0	514	510	0	0	
13	0	0	0	0	516	513	0	0	
14	0	0	0	0	513	512	0	0	
15	0	0	0	0	519	513	0	0	
0	0	0	0	0	515	512	0	0	
1	0	0	0	0	509	512	0	0	
2	0	0	0	0	499	511	0	0	
3	0	0	0	0	497	510	0	0	
4	0	0	0	0	502	511	0	0	
5	0	0	0	0	520	510	0	0	
6	0	0	0	0	518	509	0	0	
7	0	0	0	0	505	510	0	0	
8	0	0	0	0	503	511	0	0	
9	0	0	0	0	500	509	0	0	
10	0	0	0	0	506	510	0	0	
11	0	0	0	0	506	508	0	0	
12	0	0	0	0	506	511	0	0	
13	0	0	0	0	510	513	0	0	
14	0	0	0	0	513	513	0	0	
15	0	0	0	0	519	513	0	0	
0	0	0	0	0	520	510	0	0	
1	0	0	0	0	513	510	0	0	
2	0	0	0	0	504	512	0	0	
3	0	0	0	0	505	509	0	0	
4	0	0	0	0	506	512	0	0	
5	0	0	0	0	507	513	0	0	
6	0	0	0	0	510	511	0	0	
7	0	0	0	0	506	510	0	0	
8	0	0	0	0	505	508	0	0	
9	0	0	0	0	504	508	0	0	
10	0	0	0	0	507	508	0	0	
11	0	0	0	0	507	511	0	0	
12	0	0	0	0	507	508	0	0	
13	0	0	0	0	507	508	0	0	
14	0	0	0	0	512	510	0	0	
15	0	0	0	0	508	510	0	0	
0	0	0	0	0	500	511	0	0	
1	0	0	0	0	504	509	0	0	
2	0	0	0	0	512	511	0	0	
3	0	0	0	0	515	512	0	0	
4	0	0	0	0	520	510	0	0	
5	0	0	0	0	521	511	0	0	
6	0	0	0	0	511	512	0	0	
7	0	0	0	0	503	512	0	0	
8	0	0	0	0	501	511	0	0	
9	0	0	0	0	504	512	0	0	
10	0	0	0	0	508	512	0	0	
11	0	0	0	0	506	510	0	0	
12	0	0	0	0	507	509	0	0	
13	0	0	0	0	509	509	0	0	
14	0	0	0	0	505	511	0	0	
15	0	0	0	0	507	512	0	0	
0	0	0	0	0	509	512	0	0	
1	0	0	0	0	506	508	0	0	
2	0	0	0	0	509	509	0	0	
3	0	0	0	0	509	510	0	0	
4	0	0	0	0	508	509	0	0	
5	0	0	0	0	508	511	0	0	
6	0	0	0	0	506	511	0	0	
7	0	0	0	0	508	509	0	0	
8	0	0	0	0	509	512	0	0	
9	0	0	0	0	513	513	0	0	
10	0	0	0	0	516	511	0	0	
11	0	0	0	0	513	512	0	0	
12	0	0	0	0	513	511	0	0	
13	0	0	0	0	511	509	0	0	
14	0	0	0	0	507	508	0	0	
15	0	0	0	0	505	511	0	0	
0	0	0	0	0	507	508	0	0	
1	0	0	0	0	507	509	0	0	
2	0	0	0	0	512	511	0	0	
3	0	0	0	0	513	509	0	0	
4	0	0	0	0	499	509	0	0	
5	0	0	0	0	491	508	0	0	
6	0	0	0	0	480	509	0	0	
7	0	0	0	0	492	512	0	0	
8	0	0	0	0	561	514	0	0	
9	0	0	0	0	540	515	0	0	
10	0	0	0	0	507	511	0	0	
11	0	0	0	0	500	511	0	0	
12	0	0	0	0	509	509	0	0	
13	0	0	0	0	513	511	0	0	
14	0	0	0	0	517	512	0	0	
15	0	0	0	0	509	511	0	0	
0	0	0	0	0	508	511	0	0	
1	0	0	0	0	517	509	0	0	
2	0	0	0	0	512	510	0	0	
3	0	0	0	0	500	512	0	0	
4	0	0	0	0	495	511	0	0	
5	0	0	0	0	494	510	0	0	
6	0	0	0	0	493	510	0	0	
7	0	0	0	0	500	510	0	0	
8	0	0	0	0	517	511	0	0	
9	0	0	0	0	520	510	0	0	
10	0	0	0	0	521	508	0	0	
11	0	0	0	0	517	512	0	0	
12	0	0	0	0	501	512	0	0	
13	0	0	0	0	492	510	0	0	
14	0	0	0	0	497	511	0	0	
15	0	0	0	0	501	511	0	0	
0	0	0	0	0	509	513	0	0	
1	0	0	0	0	511	512	0	0	
2	0	0	0	0	517	511	0	0	
3	0	0	0	0	519	511	0	0	
4	0	0	0	0	515	509	0	0	
5	0	0	0	0	513	510	0	0	
6	0	0	0	0	510	509	0	0	
7	0	0	0	0	502	510	0	0	
8	0	0	0	0	498	508	0	0	
9	0	0	0	0	496	510	0	0	
10	0	0	0	0	496	509	0	0	
11	0	0	0	0	510	510	0	0	
12	0	0	0	0	534	509	0	0	
13	0	0	0	0	517	509	0	0	
14	0	0	0	0	514	511	0	0	
15	0	0	0	0	491	513	0	0	
0	0	0	0	0	513	512	0	0	
1	0	0	0	0	517	513	0	0	
2	0	0	0	0	507	515	0	0	
3	0	0	0	0	521	514	0	0	
4	0	0	0	0	524	512	0	0	
5	0	0	0	0	514	512	0	0	
6	0	0	0	0	506	511	0	0	
7	0	0	0	0	500	510	0	0	
8	0	0	0	0	494	511	0	0	
9	0	0	0	0	494	518	0	0	
10	0	0	0	0	497	515	0	0	
11	0	0	0	0	503	512	0	0	
12	0	0	0	0	506	508	0	0	
13	0	0	0	0	524	507	0	0	
14	0	0	0	0	531	503	0	0	
15	0	0	0	0	518	501	0	0	
0	0	0	0	0	504	499	0	0	
1	0	0	0	0	488	504	0	0	
2	0	0	0	0	479	503	0	0	
3	0	0	0	0	492	504	0	0	
4	0	0	0	0	505	511	0	0	
5	0	0	0	0	532	515	0	0	
6	0	0	0	0	527	509	0	0	
7	0	0	0	0	522	511	0	0	
8	0	0	0	0	533	514	0	0	
9	0	0	0	0	510	516	0	0	
10	0	0	0	0	502	512	0	0	
11	0	0	0	0	503	514	0	0	
12	0	0	0	0	507	512	0	0	
13	0	0	0	0	504	513	0	0	
14	0	0	0	0	508	512	0	0	
15	0	0	0	0	508	510	0	0	
0	0	0	0	0	508	510	0	0	
1	0	0	0	0	504	510	0	0	
2	0	0	0	0	500	511	0	0	
3	0	0	0	0	501	509	0	0	
4	0	0	0	0	505	511	0	0	
5	0	0	0	0	503	510	0	0	
6	0	0	0	0	507	509	0	0	
7	0	0	0	0	511	511	0	0	
8	0	0	0	0	513	511	0	0	
9	0	0	0	0	512	508	0	0	
10	0	0	0	0	512	512	0	0	
11	0	0	0	0	511	512	0	0	
12	0	0	0	0	516	512	0	0	
13	0	0	0	0	514	510	0	0	
14	0	0	0	0	513	510	0	0	
15	0	0	0	0	500	511	0	0	
0	0	0	0	0	503	512	0	0	
1	0	0	0	0	512	512	0	0	
2	0	0	0	0	518	510	0	0	
3	0	0	0	0	527	511	0	0	
4	0	0	0	0	522	510	0	0	
5	0	0	0	0	510	509	0	0	
6	0	0	0	0	496	514	0	0	
7	0	0	0	0	487	509	0	0	
8	0	0	0	0	475	512	0	0	
9	0	0	0	0	488	514	0	0	
10	0	0	0	0	494	513	0	0	
11	0	0	0	0	518	512	0	0	
12	0	0	0	0	537	514	0	0	
13	0	0	0	0	516	519	0	0	
14	0	0	0	0	521	516	0	0	
15	0	0	0	0	515	512	0	0	
0	0	0	0	0	512	508	0	0	
1	0	0	0	0	520	504	0	0	
2	0	0	0	0	510	506	0	0	
3	0	0	0	0	510	507	0	0	
4	0	0	0	0	505	504	0	0	
5	0	0	0	0	507	501	0	0	
6	0	0	0	0	500	503	0	0	
7	0	0	0	0	490	508	0	0	
8	0	0	0	0	495	513	0	0	
9	0	0	0	0	500	512	0	0	
10	0	0	0	0	510	510	0	0	
11	0	0	0	0	515	511	0	0	
12	0	0	0	0	515	512	0	0	
13	0	0	0	0	512	511	0	0	
14	0	0	0	0	512	510	0	0	
15	0	0	0	0	511	511	0	0	
0	0	0	0	0	511	510	0	0	
1	0	0	0	0	516	511	0	0	
2	0	0	0	0	519	512	0	0	
3	0	0	0	0	522	512	0	0	
4	0	0	0	0	522	513	0	0	
5	0	0	0	0	513	513	0	0	
6	0	0	0	0	504	512	0	0	
7	0	0	0	0	499	513	0	0	
8	0	0	0	0	486	510	0	0	
9	0	0	0	0	494	512	0	0	
10	0	0	0	0	503	512	0	0	
11	0	0	0	0	508	512	0	0	
12	0	0	0	0	510	511	0	0	
13	0	0	0	0	512	509	0	0	
14	0	0	0	0	512	512	0	0	
15	0	0	0	0	510	510	0	0	
0	0	0	0	0	509	510	0	0	
1	0	0	0	0	508	511	0	0	
2	0	0	0	0	508	510	0	0	
3	0	0	0	0	508	511	0	0	
4	0	0	0	0	508	510	0	0	
5	0	0	0	0	511	508	0	0	
6	0	0	0	0	512	509	0	0	
7	0	0	0	0	512	511	0	0	
8	0	0	0	0	510	510	0	0	
9	0	0	0	0	512	510	0	0	
10	0	0	0	0	512	509	0	0	
11	0	0	0	0	511	510	0	0	
12	0	0	0	0	510	509	0	0	
13	0	0	0	0	508	511	0	0	
14	0	0	0	0	508	512	0	0	
15	0	0	0	0	507	510	0	0	
0	0	0	0	0	506	514	0	0	
1	0	0	0	0	505	511	0	0	
2	0	0	0	0	506	509	0	0	
3	0	0	0	0	507	510	0	0	
4	0	0	0	0	507	510	0	0	
5	0	0	0	0	504	510	0	0	
6	0	0	0	0	506	510	0	0	
7	0	0	0	0	507	509	0	0	
8	0	0	0	0	509	510	0	0	
9	0	0	0	0	508	509	0	0	
10	0	0	0	0	507	510	0	0	
11	0	0	0	0	507	511	0	0	
12	0	0	0	0	511	513	0	0	
13	0	0	0	0	514	512	0	0	
14	0	0	0	0	515	512	0	0	
15	0	0	0	0	512	513	0	0	
0	0	0	0	0	511	513	0	0	
1	0	0	0	0	507	511	0	0	
2	0	0	0	0	508	510	0	0	
3	0	0	0	0	507	511	0	0	
4	0	0	0	0	507	509	0	0	
5	0	0	0	0	507	510	0	0	
6	0	0	0	0	505	510	0	0	
7	0	0	0	0	506	511	0	0	
8	0	0	0	0	508	510	0	0	
9	0	0	0	0	506	509	0	0	
10	0	0	0	0	507	511	0	0	
11	0	0	0	0	506	511	0	0	
12	0	0	0	0	508	510	0	0	
13	0	0	0	0	510	508	0	0	
14	0	0	0	0	512	510	0	0	
15	0	0	0	0	510	509	0	0	
0	0	0	0	0	510	510	0	0	
1	0	0	0	0	513	511	0	0	
2	0	0	0	0	510	510	0	0	
3	0	0	0	0	512	509	0	0	
4	0	0	0	0	511	510	0	0	
5	0	0	0	0	509	510	0	0	
6	0	0	0	0	508	511	0	0	
7	0	0	0	0	507	511	0	0	
8	0	0	0	0	506	511	0	0	
9	0	0	0	0	504	510	0	0	
10	0	0	0	0	504	508	0	0	
11	0	0	0	0	504	509	0	0	
12	0	0	0	0	508	508	0	0	
13	0	0	0	0	507	510	0	0	
14	0	0	0	0	511	510	0	0	
15	0	0	0	0	509	510	0	0	
0	0	0	0	0	505	511	0	0	
1	0	0	0	0	505	510	0	0	
2	0	0	0	0	508	511	0	0	
3	0	0	0	0	512	512	0	0	
4	0	0	0	0	511	512	0	0	
5	0	0	0	0	513	512	0	0	
6	0	0	0	0	512	512	0	0	
7	0	0	0	0	512	514	0	0	
8	0	0	0	0	512	513	0	0	
9	0	0	0	0	509	512	0	0	
10	0	0	0	0	507	508	0	0	
11	0	0	0	0	507	509	0	0	
12	0	0	0	0	509	511	0	0	
13	0	0	0	0	508	509	0	0	
14	0	0	0	0	507	509	0	0	
15	0	0	0	0	507	510	0	0	
0	0	0	0	0	505	511	0	0	
1	0	0	0	0	505	510	0	0	
2	0	0	0	0	503	510	0	0	
3	0	0	0	0	508	511	0	0	
4	0	0	0	0	510	511	0	0	
5	0	0	0	0	513	510	0	0	
6	0	0	0	0	514	511	0	0	
7	0	0	0	0	511	509	0	0	
8	0	0	0	0	511	511	0	0	
9	0	0	0	0	510	511	0	0	
10	0	0	0	0	508	513	0	0	
11	0	0	0	0	508	509	0	0	
12	0	0	0	0	504	511	0	0	
13	0	0	0	0	508	512	0	0	
14	0	0	0	0	510	509	0	0	
15	0	0	0	0	507	510	0	0	
0	0	0	0	0	508	511	0	0	
1	0	0	0	0	507	510	0	0	
2	0	0	0	0	506	509	0	0	
3	0	0	0	0	505	510	0	0	
4	0	0	0	0	506	510	0	0	
5	0	0	0	0	506	510	0	0	
6	0	0	0	0	507	508	0	0	
7	0	0	0	0	508	512	0	0	
8	0	0	0	0	508	510	0	0	
9	0	0	0	0	512	512	0	0	
10	0	0	0	0	512	510	0	0	
11	0	0	0	0	512	510	0	0	
12	0	0	0	0	513	513	0	0	
13	0	0	0	0	511	511	0	0	
14	0	0	0	0	510	513	0	0	
15	0	0	0	0	511	512	0	0	
0	0	0	0	0	509	512	0	0	
1	0	0	0	0	508	512	0	0	
2	0	0	0	0	505	511	0	0	
3	0	0	0	0	506	510	0	0	
4	0	0	0	0	506	510	0	0	
5	0	0	0	0	504	508	0	0	
6	0	0	0	0	504	508	0	0	
7	0	0	0	0	501	509	0	0	
8	0	0	0	0	504	509	0	0	
9	0	0	0	0	505	510	0	0	
10	0	0	0	0	508	510	0	0	
11	0	0	0	0	513	510	0	0	
12	0	0	0	0	511	511	0	0	
13	0	0	0	0	510	511	0	0	
14	0	0	0	0	509	513	0	0	
15	0	0	0	0	508	511	0	0	
0	0	0	0	0	512	508	0	0	
1	0	0	0	0	516	510	0	0	
2	0	0	0	0	521	512	0	0	
3	0	0	0	0	511	512	0	0	
4	0	0	0	0	508	511	0	0	
5	0	0	0	0	507	512	0	0	
6	0	0	0	0	510	511	0	0	
7	0	0	0	0	509	508	0	0	
8	0	0	0	0	507	510	0	0	
9	0	0	0	0	510	511	0	0	
10	0	0	0	0	500	510	0	0	
11	0	0	0	0	500	510	0	0	
12	0	0	0	0	506	507	0	0	
13	0	0	0	0	509	510	0	0	
14	0	0	0	0	515	510	0	0	
15	0	0	0	0	517	510	0	0	
0	0	0	0	0	506	511	0	0	
1	0	0	0	0	504	511	0	0	
2	0	0	0	0	499	509	0	0	
3	0	0	0	0	495	511	0	0	
4	0	0	0	0	510	511	0	0	
5	0	0	0	0	509	511	0	0	
6	0	0	0	0	512	510	0	0	
7	0	0	0	0	516	510	0	0	
8	0	0	0	0	515	510	0	0	
9	0	0	0	0	509	510	0	0	
10	0	0	0	0	512	509	0	0	
11	0	0	0	0	509	511	0	0	
12	0	0	0	0	508	509	0	0	
13	0	0	0	0	508	508	0	0	
14	0	0	0	0	506	511	0	0	
15	0	0	0	0	502	511	0	0	
0	0	0	0	0	505	511	0	0	
1	0	0	0	0	508	511	0	0	
2	0	0	0	0	505	513	0	0	
3	0	0	0	0	508	511	0	0	
4	0	0	0	0	511	512	0	0	
5	0	0	0	0	510	510	0	0	
6	0	0	0	0	510	511	0	0	
7	0	0	0	0	509	510	0	0	
8	0	0	0	0	508	508	0	0	
9	0	0	0	0	513	508	0	0	
10	0	0	0	0	511	512	0	0	
11	0	0	0	0	514	511	0	0	
12	0	0	0	0	513	513	0	0	
13	0	0	0	0	511	512	0	0	
14	0	0	0	0	509	513	0	0	
15	0	0	0	0	511	509	0	0	
0	0	0	0	0	507	511	0	0	
1	0	0	0	0	504	509	0	0	
2	0	0	0	0	503	511	0	0	
3	0	0	0	0	503	511	0	0	
4	0	0	0	0	506	511	0	0	
5	0	0	0	0	506	510	0	0	
6	0	0	0	0	504	510	0	0	
7	0	0	0	0	508	512	0	0	
8	0	0	0	0	510	511	0	0	
9	0	0	0	0	508	507	0	0	
10	0	0	0	0	510	511	0	0	
11	0	0	0	0	511	509	0	0	
12	0	0	0	0	514	510	0	0	
13	0	0	0	0	511	511	0	0	
14	0	0	0	0	515	512	0	0	
15	0	0	0	0	512	512	0	0	
0	0	0	0	0	510	510	0	0	
1	0	0	0	0	508	513	0	0	
2	0	0	0	0	508	510	0	0	
3	0	0	0	0	507	511	0	0	
4	0	0	0	0	504	510	0	0	
5	0	0	0	0	504	511	0	0	
6	0	0	0	0	503	511	0	0	
7	0	0	0	0	505	510	0	0	
8	0	0	0	0	504	509	0	0	
9	0	0	0	0	506	508	0	0	
10	0	0	0	0	509	511	0	0	
11	0	0	0	0	507	511	0	0	
12	0	0	0	0	508	510	0	0	
13	0	0	0	0	511	511	0	0	
14	0	0	0	0	512	510	0	0	
15	0	0	0	0	513	510	0	0	
0	0	0	0	0	515	512	0	0	
1	0	0	0	0	513	513	0	0	
2	0	0	0	0	509	511	0	0	
3	0	0	0	0	505	512	0	0	
4	0	0	0	0	509	510	0	0	
5	0	0	0	0	508	510	0	0	
6	0	0	0	0	507	509	0	0	
7	0	0	0	0	507	510	0	0	
8	0	0	0	0	508	511	0	0	
9	0	0	0	0	519	512	0	0	
10	0	0	0	0	511	511	0	0	
11	0	0	0	0	505	508	0	0	
12	0	0	0	0	504	511	0	0	
13	0	0	0	0	502	510	0	0	
14	0	0	0	0	507	511	0	0	
15	0	0	0	0	506	514	0	0	
0	0	0	0	0	508	513	0	0	
1	0	0	0	0	510	512	0	0	
2	0	0	0	0	510	511	0	0	
3	0	0	0	0	510	511	0	0	
4	0	0	0	0	511	511	0	0	
5	0	0	0	0	512	510	0	0	
6	0	0	0	0	510	511	0	0	
7	0	0	0	0	508	509	0	0	
8	0	0	0	0	508	510	0	0	
9	0	0	0	0	510	511	0	0	
10	0	0	0	0	508	510	0	0	
11	0	0	0	0	508	510	0	0	
12	0	0	0	0	509	509	0	0	
13	0	0	0	0	508	510	0	0	
14	0	0	0	0	507	511	0	0	
15	0	0	0	0	506	507	0	0	
0	0	0	0	0	505	511	0	0	
1	0	0	0	0	506	510	0	0	
2	0	0	0	0	504	510	0	0	
3	0	0	0	0	507	511	0	0	
4	0	0	0	0	508	509	0	0	
5	0	0	0	0	509	512	0	0	
6	0	0	0	0	511	511	0	0	
7	0	0	0	0	513	510	0	0	
8	0	0	0	0	522	509	0	0	
9	0	0	0	0	515	512	0	0	
10	0	0	0	0	513	510	0	0	
11	0	0	0	0	509	510	0	0	
12	0	0	0	0	509	511	0	0	
13	0	0	0	0	507	511	0	0	
14	0	0	0	0	504	508	0	0	
15	0	0	0	0	504	511	0	0	
0	0	0	0	0	503	514	0	0	
1	0	0	0	0	502	509	0	0	
2	0	0	0	0	504	511	0	0	
3	0	0	0	0	509	510	0	0	
4	0	0	0	0	508	512	0	0	
5	0	0	0	0	505	512	0	0	
6	0	0	0	0	508	510	0	0	
7	0	0	0	0	509	511	0	0	
8	0	0	0	0	508	512	0	0	
9	0	0	0	0	508	510	0	0	
10	0	0	0	0	511	510	0	0	
11	0	0	0	0	509	510	0	0	
12	0	0	0	0	509	510	0	0	
13	0	0	0	0	514	510	0	0	
14	0	0	0	0	514	511	0	0	
15	0	0	0	0	512	509	0	0	
0	0	0	0	0	510	512	0	0	
1	0	0	0	0	511	509	0	0	
2	0	0	0	0	511	510	0	0	
3	0	0	0	0	511	512	0	0	
4	0	0	0	0	506	508	0	0	
5	0	0	0	0	507	511	0	0	
6	0	0	0	0	505	512	0	0	
7	0	0	0	0	507	508	0	0	
8	0	0	0	0	503	511	0	0	
9	0	0	0	0	504	509	0	0	
10	0	0	0	0	504	510	0	0	
11	0	0	0	0	505	510	0	0	
12	0	0	0	0	508	511	0	0	
13	0	0	0	0	510	510	0	0	
14	0	0	0	0	512	510	0	0	
15	0	0	0	0	511	511	0	0	
0	0	0	0	0	513	511	0	0	
1	0	0	0	0	512	513	0	0	
2	0	0	0	0	512	512	0	0	
3	0	0	0	0	511	512	0	0	
4	0	0	0	0	510	512	0	0	
5	0	0	0	0	510	511	0	0	
6	0	0	0	0	511	509	0	0	
7	0	0	0	0	508	510	0	0	
8	0	0	0	0	506	511	0	0	
9	0	0	0	0	507	510	0	0	
10	0	0	0	0	504	511	0	0	
11	0	0	0	0	503	510	0	0	
12	0	0	0	0	503	510	0	0	
13	0	0	0	0	507	510	0	0	
14	0	0	0	0	509	509	0	0	
15	0	0	0	0	508	511	0	0	
0	0	0	0	0	509	512	0	0	
1	0	0	0	0	513	512	0	0	
2	0	0	0	0	510	510	0	0	
3	0	0	0	0	511	510	0	0	
4	0	0	0	0	511	511	0	0	
5	0	0	0	0	511	512	0	0	
6	0	0	0	0	511	511	0	0	
7	0	0	0	0	508	509	0	0	
8	0	0	0	0	507	509	0	0	
9	0	0	0	0	510	511	0	0	
10	0	0	0	0	511	511	0	0	
11	0	0	0	0	508	513	0	0	
12	0	0	0	0	506	511	0	0	
13	0	0	0	0	505	510	0	0	
14	0	0	0	0	506	510	0	0	
15	0	0	0	0	504	510	0	0	
0	0	0	0	0	506	511	0	0	
1	0	0	0	0	507	509	0	0	
2	0	0	0	0	507	507	0	0	
3	0	0	0	0	507	509	0	0	
4	0	0	0	0	508	511	0	0	
5	0	0	0	0	508	512	0	0	
6	0	0	0	0	506	509	0	0	
7	0	0	0	0	504	510	0	0	
8	0	0	0	0	505	513	0	0	
9	0	0	0	0	508	512	0	0	
10	0	0	0	0	517	511	0	0	
11	0	0	0	0	526	512	0	0	
12	0	0	0	0	519	511	0	0	
13	0	0	0	0	519	512	0	0	
14	0	0	0	0	523	511	0	0	
15	0	0	0	0	507	510	0	0	
0	0	0	0	0	499	510	0	0	
1	0	0	0	0	500	510	0	0	
2	0	0	0	0	500	511	0	0	
3	0	0	0	0	504	510	0	0	
4	0	0	0	0	504	509	0	0	
5	0	0	0	0	502	510	0	0	
6	0	0	0	0	504	511	0	0	
7	0	0	0	0	505	511	0	0	
8	0	0	0	0	507	510	0	0	
9	0	0	0	0	506	511	0	0	
10	0	0	0	0	512	509	0	0	
11	0	0	0	0	514	510	0	0	
12	0	0	0	0	514	511	0	0	
13	0	0	0	0	510	511	0	0	
14	0	0	0	0	512	510	0	0	
15	0	0	0	0	511	511	0	0	
0	0	0	0	0	510	510	0	0	
1	0	0	0	0	510	512	0	0	
2	0	0	0	0	509	511	0	0	
3	0	0	0	0	507	510	0	0	
4	0	0	0	0	506	510	0	0	
5	0	0	0	0	506	510	0	0	
6	0	0	0	0	503	511	0	0	
7	0	0	0	0	504	510	0	0	
8	0	0	0	0	503	510	0	0	
9	0	0	0	0	504	509	0	0	
10	0	0	0	0	508	510	0	0	
11	0	0	0	0	509	510	0	0	
12	0	0	0	0	512	511	0	0	
13	0	0	0	0	511	512	0	0	
14	0	0	0	0	508	511	0	0	
15	0	0	0	0	511	511	0	0	
0	0	0	0	0	514	512	0	0	
1	0	0	0	0	515	511	0	0	
2	0	0	0	0	513	510	0	0	
3	0	0	0	0	511	511	0	0	
4	0	0	0	0	509	511	0	0	
5	0	0	0	0	509	509	0	0	
6	0	0	0	0	508	511	0	0	
7	0	0	0	0	506	512	0	0	
8	0	0	0	0	505	512	0	0	
9	0	0	0	0	505	509	0	0	
10	0	0	0	0	503	511	0	0	
11	0	0	0	0	505	510	0	0	
12	0	0	0	0	506	510	0	0	
13	0	0	0	0	504	510	0	0	
14	0	0	0	0	504	508	0	0	
15	0	0	0	0	507	509	0	0	
0	0	0	0	0	510	510	0	0	
1	0	0	0	0	511	513	0	0	
2	0	0	0	0	512	510	0	0	
3	0	0	0	0	512	510	0	0	
4	0	0	0	0	511	510	0	0	
5	0	0	0	0	511	511	0	0	
6	0	0	0	0	512	511	0	0	
7	0	0	0	0	514	511	0	0	
8	0	0	0	0	511	511	0	0	
9	0	0	0	0	509	509	0	0	
10	0	0	0	0	508	509	0	0	
11	0	0	0	0	505	511	0	0	
12	0	0	0	0	506	509	0	0	
13	0	0	0	0	507	509	0	0	
14	0	0	0	0	504	510	0	0	
15	0	0	0	0	505	510	0	0	
0	0	0	0	0	508	510	0	0	
1	0	0	0	0	506	508	0	0	
2	0	0	0	0	507	510	0	0	
3	0	0	0	0	508	512	0	0	
4	0	0	0	0	509	513	0	0	
5	0	0	0	0	512	511	0	0	
6	0	0	0	0	511	512	0	0	
7	0	0	0	0	511	511	0	0	
8	0	0	0	0	512	512	0	0	
9	0	0	0	0	513	513	0	0	
10	0	0	0	0	511	512	0	0	
11	0	0	0	0	511	511	0	0	
12	0	0	0	0	509	512	0	0	
13	0	0	0	0	510	514	0	0	
14	0	0	0	0	507	512	0	0	
15	0	0	0	0	506	511	0	0	
0	0	0	0	0	505	511	0	0	
1	0	0	0	0	503	510	0	0	
2	0	0	0	0	506	509	0	0	
3	0	0	0	0	503	509	0	0	
4	0	0	0	0	507	509	0	0	
5	0	0	0	0	506	510	0	0	
6	0	0	0	0	509	509	0	0	
7	0	0	0	0	508	508	0	0	
8	0	0	0	0	508	509	0	0	
9	0	0	0	0	511	511	0	0	
10	0	0	0	0	513	509	0	0	
11	0	0	0	0	511	510	0	0	
12	0	0	0	0	511	511	0	0	
13	0	0	0	0	515	513	0	0	
14	0	0	0	0	511	510	0	0	
15	0	0	0	0	508	512	0	0	
0	0	0	0	0	508	511	0	0	
1	0	0	0	0	507	512	0	0	
2	0	0	0	0	508	512	0	0	
3	0	0	0	0	507	512	0	0	
4	0	0	0	0	505	509	0	0	
5	0	0	0	0	510	511	0	0	
6	0	0	0	0	508	510	0	0	
7	0	0	0	0	505	509	0	0	
8	0	0	0	0	505	512	0	0	
9	0	0	0	0	507	511	0	0	
10	0	0	0	0	507	509	0	0	
11	0	0	0	0	510	511	0	0	
12	0	0	0	0	506	508	0	0	
13	0	0	0	0	508	511	0	0	
14	0	0	0	0	510	512	0	0	
15	0	0	0	0	511	510	0	0	
0	0	0	0	0	511	510	0	0	
1	0	0	0	0	512	511	0	0	
2	0	0	0	0	515	509	0	0	
3	0	0	0	0	513	511	0	0	
4	0	0	0	0	510	512	0	0	
5	0	0	0	0	509	510	0	0	
6	0	0	0	0	511	510	0	0	
7	0	0	0	0	509	509	0	0	
8	0	0	0	0	504	508	0	0	
9	0	0	0	0	507	508	0	0	
10	0	0	0	0	504	510	0	0	
11	0	0	0	0	505	510	0	0	
12	0	0	0	0	503	511	0	0	
13	0	0	0	0	506	509	0	0	
14	0	0	0	0	507	509	0	0	
15	0	0	0	0	507	510	0	0	
0	0	0	0	0	507	511	0	0	
1	0	0	0	0	510	511	0	0	
2	0	0	0	0	512	513	0	0	
3	0	0	0	0	510	511	0	0	
4	0	0	0	0	510	512	0	0	
5	0	0	0	0	511	510	0	0	
6	0	0	0	0	511	512	0	0	
7	0	0	0	0	512	511	0	0	
8	0	0	0	0	510	510	0	0	
9	0	0	0	0	511	510	0	0	
10	0	0	0	0	508	509	0	0	
11	0	0	0	0	508	512	0	0	
12	0	0	0	0	507	507	0	0	
13	0	0	0	0	506	510	0	0	
14	0	0	0	0	505	511	0	0	
15	0	0	0	0	505	511	0	0	
0	0	0	0	0	506	511	0	0	
1	0	0	0	0	505	510	0	0	
2	0	0	0	0	505	510	0	0	
3	0	0	0	0	507	511	0	0	
4	0	0	0	0	508	510	0	0	
5	0	0	0	0	511	509	0	0	
6	0	0	0	0	512	511	0	0	
7	0	0	0	0	510	512	0	0	
8	0	0	0	0	510	512	0	0	
9	0	0	0	0	509	511	0	0	
10	0	0	0	0	512	509	0	0	
11	0	0	0	0	513	511	0	0	
12	0	0	0	0	514	509	0	0	
13	0	0	0	0	512	511	0	0	
14	0	0	0	0	510	510	0	0	
15	0	0	0	0	505	509	0	0	
0	0	0	0	0	504	510	0	0	
1	0	0	0	0	506	510	0	0	
2	0	0	0	0	502	511	0	0	
3	0	0	0	0	502	508	0	0	
4	0	0	0	0	506	510	0	0	
5	0	0	0	0	506	510	0	0	
6	0	0	0	0	509	508	0	0	
7	0	0	0	0	507	510	0	0	
8	0	0	0	0	508	510	0	0	
9	0	0	0	0	510	511	0	0	
10	0	0	0	0	509	511	0	0	
11	0	0	0	0	512	512	0	0	
12	0	0	0	0	512	510	0	0	
13	0	0	0	0	511	513	0	0	
14	0	0	0	0	512	510	0	0	
15	0	0	0	0	510	510	0	0	
0	0	0	0	0	511	511	0	0	
1	0	0	0	0	510	512	0	0	
2	0	0	0	0	509	511	0	0	
3	0	0	0	0	509	510	0	0	
4	0	0	0	0	507	510	0	0	
5	0	0	0	0	506	510	0	0	
6	0	0	0	0	504	509	0	0	
7	0	0	0	0	503	508	0	0	
8	0	0	0	0	504	512	0	0	
9	0	0	0	0	504	510	0	0	
10	0	0	0	0	505	512	0	0	
11	0	0	0	0	511	510	0	0	
12	0	0	0	0	510	511	0	0	
13	0	0	0	0	512	511	0	0	
14	0	0	0	0	512	509	0	0	
15	0	0	0	0	513	509	0	0	
0	0	0	0	0	511	511	0	0	
1	0	0	0	0	512	512	0	0	
2	0	0	0	0	511	512	0	0	
3	0	0	0	0	511	511	0	0	
4	0	0	0	0	511	511	0	0	
5	0	0	0	0	510	513	0	0	
6	0	0	0	0	508	510	0	0	
7	0	0	0	0	507	511	0	0	
8	0	0	0	0	505	510	0	0	
9	0	0	0	0	504	509	0	0	
10	0	0	0	0	503	511	0	0	
11	0	0	0	0	506	511	0	0	
12	0	0	0	0	505	511	0	0	
13	0	0	0	0	504	510	0	0	
14	0	0	0	0	506	510	0	0	
15	0	0	0	0	508	512	0	0	
0	0	0	0	0	510	512	0	0	
1	0	0	0	0	511	509	0	0	
2	0	0	0	0	513	511	0	0	
3	0	0	0	0	514	513	0	0	
4	0	0	0	0	511	508	0	0	
5	0	0	0	0	511	512	0	0	
6	0	0	0	0	511	511	0	0	
7	0	0	0	0	513	512	0	0	
8	0	0	0	0	510	512	0	0	
9	0	0	0	0	508	509	0	0	
10	0	0	0	0	508	510	0	0	
11	0	0	0	0	506	513	0	0	
12	0	0	0	0	507	510	0	0	
13	0	0	0	0	506	508	0	0	
14	0	0	0	0	507	511	0	0	
15	0	0	0	0	505	510	0	0	
0	0	0	0	0	505	511	0	0	
1	0	0	0	0	505	510	0	0	
2	0	0	0	0	507	510	0	0	
3	0	0	0	0	507	511	0	0	
4	0	0	0	0	511	511	0	0	
5	0	0	0	0	513	510	0	0	
6	0	0	0	0	510	511	0	0	
7	0	0	0	0	511	509	0	0	
8	0	0	0	0	513	512	0	0	
9	0	0	0	0	513	511	0	0	
10	0	0	0	0	509	510	0	0	
11	0	0	0	0	510	511	0	0	
12	0	0	0	0	509	513	0	0	
13	0	0	0	0	509	512	0	0	
14	0	0	0	0	510	512	0	0	
15	0	0	0	0	507	508	0	0	
0	0	0	0	0	507	511	0	0	
1	0	0	0	0	504	509	0	0	
2	0	0	0	0	503	508	0	0	
3	0	0	0	0	505	508	0	0	
4	0	0	0	0	505	510	0	0	
5	0	0	0	0	506	512	0	0	
6	0	0	0	0	509	513	0	0	
7	0	0	0	0	509	511	0	0	
8	0	0	0	0	508	508	0	0	
9	0	0	0	0	508	509	0	0	
10	0	0	0	0	510	509	0	0	
11	0	0	0	0	512	510	0	0	
12	0	0	0	0	512	509	0	0	
13	0	0	0	0	512	510	0	0	
14	0	0	0	0	513	511	0	0	
15	0	0	0	0	511	512	0	0	
0	0	0	0	0	510	510	0	0	
1	0	0	0	0	510	510	0	0	
2	0	0	0	0	509	513	0	0	
3	0	0	0	0	509	512	0	0	
4	0	0	0	0	508	509	0	0	
5	0	0	0	0	506	512	0	0	
6	0	0	0	0	504	509	0	0	
7	0	0	0	0	504	510	0	0	
8	0	0	0	0	504	510	0	0	
9	0	0	0	0	505	508	0	0	
10	0	0	0	0	508	509	0	0	
11	0	0	0	0	507	510	0	0	
12	0	0	0	0	507	510	0	0	
13	0	0	0	0	508	511	0	0	
14	0	0	0	0	512	512	0	0	
15	0	0	0	0	512	512	0	0	
0	0	0	0	0	514	512	0	0	
1	0	0	0	0	517	512	0	0	
2	0	0	0	0	513	512	0	0	
3	0	0	0	0	511	512	0	0	
4	0	0	0	0	510	511	0	0	
5	0	0	0	0	508	511	0	0	
6	0	0	0	0	507	509	0	0	
7	0	0	0	0	507	509	0	0	
8	0	0	0	0	506	507	0	0	
9	0	0	0	0	503	511	0	0	
10	0	0	0	0	504	510	0	0	
11	0	0	0	0	504	510	0	0	
12	0	0	0	0	506	512	0	0	
13	0	0	0	0	506	510	0	0	
14	0	0	0	0	508	511	0	0	
15	0	0	0	0	505	508	0	0	
0	0	0	0	0	508	513	0	0	
1	0	0	0	0	509	510	0	0	
2	0	0	0	0	513	510	0	0	
3	0	0	0	0	511	513	0	0	
4	0	0	0	0	515	511	0	0	
5	0	0	0	0	512	511	0	0	
6	0	0	0	0	511	512	0	0	
7	0	0	0	0	511	511	0	0	
8	0	0	0	0	511	511	0	0	
9	0	0	0	0	510	510	0	0	
10	0	0	0	0	510	509	0	0	
11	0	0	0	0	506	509	0	0	
12	0	0	0	0	505	510	0	0	
13	0	0	0	0	506	510	0	0	
14	0	0	0	0	504	511	0	0	
15	0	0	0	0	501	510	0	0	
0	0	0	0	0	501	511	0	0	
1	0	0	0	0	502	511	0	0	
2	0	0	0	0	508	511	0	0	
3	0	0	0	0	514	512	0	0	
4	0	0	0	0	511	510	0	0	
5	0	0	0	0	512	511	0	0	
6	0	0	0	0	512	511	0	0	
7	0	0	0	0	511	512	0	0	
8	0	0	0	0	513	514	0	0	
9	0	0	0	0	513	511	0	0	
10	0	0	0	0	512	511	0	0	
11	0	0	0	0	511	512	0	0	
12	0	0	0	0	508	510	0	0	
13	0	0	0	0	508	509	0	0	
14	0	0	0	0	506	510	0	0	
15	0	0	0	0	505	510	0	0	
0	0	0	0	0	508	510	0	0	
1	0	0	0	0	505	508	0	0	
2	0	0	0	0	505	512	0	0	
3	0	0	0	0	507	510	0	0	
4	0	0	0	0	505	509	0	0	
5	0	0	0	0	505	511	0	0	
6	0	0	0	0	507	510	0	0	
7	0	0	0	0	507	510	0	0	
8	0	0	0	0	510	510	0	0	
9	0	0	0	0	510	510	0	0	
10	0	0	0	0	511	508	0	0	
11	0	0	0	0	514	509	0	0	
12	0	0	0	0	512	510	0	0	
13	0	0	0	0	513	507	0	0	
14	0	0	0	0	513	510	0	0	
15	0	0	0	0	510	510	0	0	
0	0	0	0	0	511	511	0	0	
1	0	0	0	0	510	512	0	0	
2	0	0	0	0	508	511	0	0	
3	0	0	0	0	507	513	0	0	
4	0	0	0	0	504	511	0	0	
5	0	0	0	0	504	508	0	0	
6	0	0	0	0	506	508	0	0	
7	0	0	0	0	508	512	0	0	
8	0	0	0	0	505	512	0	0	
9	0	0	0	0	505	511	0	0	
10	0	0	0	0	505	509	0	0	
11	0	0	0	0	507	512	0	0	
12	0	0	0	0	508	511	0	0	
13	0	0	0	0	510	511	0	0	
14	0	0	0	0	513	510	0	0	
15	0	0	0	0	513	512	0	0	
0	0	0	0	0	513	510	0	0	
1	0	0	0	0	513	511	0	0	
2	0	0	0	0	514	510	0	0	
3	0	0	0	0	513	510	0	0	
4	0	0	0	0	510	511	0	0	
5	0	0	0	0	511	512	0	0	
6	0	0	0	0	509	512	0	0	
7	0	0	0	0	506	512	0	0	
8	0	0	0	0	501	510	0	0	
9	0	0	0	0	503	511	0	0	
10	0	0	0	0	505	508	0	0	
11	0	0	0	0	505	511	0	0	
12	0	0	0	0	506	509	0	0	
13	0	0	0	0	504	510	0	0	
14	0	0	0	0	506	508	0	0	
15	0	0	0	0	509	510	0	0	
0	0	0	0	0	510	510	0	0	
1	0	0	0	0	511	511	0	0	
2	0	0	0	0	513	513	0	0	
3	0	0	0	0	511	511	0	0	
4	0	0	0	0	513	512	0	0	
5	0	0	0	0	516	512	0	0	
6	0	0	0	0	512	510	0	0	
7	0	0	0	0	512	512	0	0	
8	0	0	0	0	509	512	0	0	
9	0	0	0	0	508	510	0	0	
10	0	0	0	0	505	510	0	0	
11	0	0	0	0	504	509	0	0	
12	0	0	0	0	506	511	0	0	
13	0	0	0	0	504	510	0	0	
14	0	0	0	0	503	510	0	0	
15	0	0	0	0	504	508	0	0	
0	0	0	0	0	506	509	0	0	
1	0	0	0	0	506	510	0	0	
2	0	0	0	0	508	510	0	0	
3	0	0	0	0	504	510	0	0	
4	0	0	0	0	509	508	0	0	
5	0	0	0	0	511	511	0	0	
6	0	0	0	0	512	511	0	0	
7	0	0	0	0	512	510	0	0	
8	0	0	0	0	513	511	0	0	
9	0	0	0	0	513	511	0	0	
10	0	0	0	0	512	511	0	0	
11	0	0	0	0	510	512	0	0	
12	0	0	0	0	509	512	0	0	
13	0	0	0	0	508	512	0	0	
14	0	0	0	0	508	510	0	0	
15	0	0	0	0	510	509	0	0	
0	0	0	0	0	509	513	0	0	
1	0	0	0	0	504	512	0	0	
2	0	0	0	0	503	509	0	0	
3	0	0	0	0	503	510	0	0	
4	0	0	0	0	506	508	0	0	
5	0	0	0	0	507	510	0	0	
6	0	0	0	0	505	510	0	0	
7	0	0	0	0	506	512	0	0	
8	0	0	0	0	507	512	0	0	
9	0	0	0	0	511	512	0	0	
10	0	0	0	0	513	512	0	0	
11	0	0	0	0	513	511	0	0	
12	0	0	0	0	512	512	0	0	
13	0	0	0	0	511	511	0	0	
14	0	0	0	0	511	513	0	0	
15	0	0	0	0	510	510	0	0	
0	0	0	0	0	511	511	0	0	
1	0	0	0	0	511	510	0	0	
2	0	0	0	0	509	512	0	0	
3	0	0	0	0	503	509	0	0	
4	0	0	0	0	506	509	0	0	
5	0	0	0	0	505	510	0	0	
6	0	0	0	0	504	509	0	0	
7	0	0	0	0	504	510	0	0	
8	0	0	0	0	502	510	0	0	
9	0	0	0	0	504	510	0	0	
10	0	0	0	0	509	510	0	0	
11	0	0	0	0	509	510	0	0	
12	0	0	0	0	508	511	0	0	
13	0	0	0	0	512	509	0	0	
14	0	0	0	0	512	511	0	0	
15	0	0	0	0	512	510	0	0	
0	0	0	0	0	513	512	0	0	
1	0	0	0	0	513	510	0	0	
2	0	0	0	0	513	511	0	0	
3	0	0	0	0	512	510	0	0	
4	0	0	0	0	510	512	0	0	
5	0	0	0	0	510	510	0	0	
6	0	0	0	0	509	510	0	0	
7	0	0	0	0	504	509	0	0	
8	0	0	0	0	506	510	0	0	
9	0	0	0	0	506	510	0	0	
10	0	0	0	0	504	511	0	0	
11	0	0	0	0	504	509	0	0	
12	0	0	0	0	503	510	0	0	
13	0	0	0	0	507	512	0	0	
14	0	0	0	0	507	512	0	0	
15	0	0	0	0	511	511	0	0	
0	0	0	0	0	508	511	0	0	
1	0	0	0	0	511	511	0	0	
2	0	0	0	0	512	508	0	0	
3	0	0	0	0	512	510	0	0	
4	0	0	0	0	511	509	0	0	
5	0	0	0	0	512	512	0	0	
6	0	0	0	0	512	512	0	0	
7	0	0	0	0	511	513	0	0	
8	0	0	0	0	513	512	0	0	
9	0	0	0	0	508	511	0	0	
10	0	0	0	0	507	510	0	0	
11	0	0	0	0	509	508	0	0	
12	0	0	0	0	507	510	0	0	
13	0	0	0	0	505	511	0	0	
14	0	0	0	0	505	512	0	0	
15	0	0	0	0	504	509	0	0	
0	0	0	0	0	504	511	0	0	
1	0	0	0	0	507	511	0	0	
2	0	0	0	0	509	510	0	0	
3	0	0	0	0	507	510	0	0	
4	0	0	0	0	507	509	0	0	
5	0	0	0	0	511	510	0	0	
6	0	0	0	0	510	512	0	0	
7	0	0	0	0	513	512	0	0	
8	0	0	0	0	513	512	0	0	
9	0	0	0	0	515	510	0	0	
10	0	0	0	0	513	509	0	0	
11	0	0	0	0	510	512	0	0	
12	0	0	0	0	511	509	0	0	
13	0	0	0	0	513	511	0	0	
14	0	0	0	0	507	507	0	0	
15	0	0	0	0	502	511	0	0	
0	0	0	0	0	506	510	0	0	
1	0	0	0	0	507	511	0	0	
2	0	0	0	0	504	511	0	0	
3	0	0	0	0	504	509	0	0	
4	0	0	0	0	504	509	0	0	
5	0	0	0	0	504	511	0	0	
6	0	0	0	0	509	512	0	0	
7	0	0	0	0	508	511	0	0	
8	0	0	0	0	508	510	0	0	
9	0	0	0	0	508	510	0	0	
10	0	0	0	0	512	511	0	0	
11	0	0	0	0	513	512	0	0	
12	0	0	0	0	515	513	0	0	
13	0	0	0	0	514	511	0	0	
14	0	0	0	0	512	510	0	0	
15	0	0	0	0	512	512	0	0	
0	0	0	0	0	510	512	0	0	
1	0	0	0	0	511	511	0	0	
2	0	0	0	0	508	510	0	0	
3	0	0	0	0	505	512	0	0	
4	0	0	0	0	505	509	0	0	
5	0	0	0	0	506	509	0	0	
6	0	0	0	0	504	507	0	0	
7	0	0	0	0	505	510	0	0	
8	0	0	0	0	505	510	0	0	
9	0	0	0	0	503	510	0	0	
10	0	0	0	0	504	509	0	0	
11	0	0	0	0	508	510	0	0	
12	0	0	0	0	511	508	0	0	
13	0	0	0	0	513	511	0	0	
14	0	0	0	0	511	509	0	0	
15	0	0	0	0	512	512	0	0	
0	0	0	0	0	513	512	0	0	
1	0	0	0	0	513	511	0	0	
2	0	0	0	0	512	510	0	0	
3	0	0	0	0	513	513	0	0	
4	0	0	0	0	511	512	0	0	
5	0	0	0	0	509	513	0	0	
6	0	0	0	0	508	511	0	0	
7	0	0	0	0	505	511	0	0	
8	0	0	0	0	504	508	0	0	
9	0	0	0	0	505	510	0	0	
10	0	0	0	0	505	509	0	0	
11	0	0	0	0	506	510	0	0	
12	0	0	0	0	505	509	0	0	
13	0	0	0	0	505	511	0	0	
14	0	0	0	0	509	512	0	0	
15	0	0	0	0	509	513	0	0	
0	0	0	0	0	508	511	0	0	
1	0	0	0	0	509	508	0	0	
2	0	0	0	0	513	510	0	0	
3	0	0	0	0	512	509	0	0	
4	0	0	0	0	512	511	0	0	
5	0	0	0	0	514	510	0	0	
6	0	0	0	0	514	510	0	0	
7	0	0	0	0	512	510	0	0	
8	0	0	0	0	510	511	0	0	
9	0	0	0	0	509	512	0	0	
10	0	0	0	0	504	510	0	0	
11	0	0	0	0	504	512	0	0	
12	0	0	0	0	507	512	0	0	
13	0	0	0	0	503	511	0	0	
14	0	0	0	0	504	510	0	0	
15	0	0	0	0	505	510	0	0	
0	0	0	0	0	506	507	0	0	
1	0	0	0	0	507	509	0	0	
2	0	0	0	0	508	510	0	0	
3	0	0	0	0	511	509	0	0	
4	0	0	0	0	509	510	0	0	
5	0	0	0	0	512	513	0	0	
6	0	0	0	0	512	512	0	0	
7	0	0	0	0	512	512	0	0	
8	0	0	0	0	513	511	0	0	
9	0	0	0	0	515	510	0	0	
10	0	0	0	0	512	511	0	0	
11	0	0	0	0	513	508	0	0	
12	0	0	0	0	508	509	0	0	
13	0	0	0	0	508	512	0	0	
14	0	0	0	0	507	511	0	0	
15	0	0	0	0	504	511	0	0	
0	0	0	0	0	505	509	0	0	
1	0	0	0	0	506	514	0	0	
2	0	0	0	0	504	513	0	0	
3	0	0	0	0	504	511	0	0	
4	0	0	0	0	505	511	0	0	
5	0	0	0	0	507	510	0	0	
6	0	0	0	0	508	511	0	0	
7	0	0	0	0	508	512	0	0	
8	0	0	0	0	508	510	0	0	
9	0	0	0	0	513	510	0	0	
10	0	0	0	0	514	510	0	0	
11	0	0	0	0	513	510	0	0	
12	0	0	0	0	512	510	0	0	
13	0	0	0	0	511	511	0	0	
14	0	0	0	0	514	513	0	0	
15	0	0	0	0	511	510	0	0	
0	0	0	0	0	510	511	0	0	
1	0	0	0	0	510	511	0	0	
2	0	0	0	0	508	512	0	0	
3	0	0	0	0	505	510	0	0	
4	0	0	0	0	508	511	0	0	
5	0	0	0	0	504	510	0	0	
6	0	0	0	0	501	508	0	0	
7	0	0	0	0	504	509	0	0	
8	0	0	0	0	505	512	0	0	
9	0	0	0	0	507	508	0	0	
10	0	0	0	0	506	509	0	0	
11	0	0	0	0	510	510	0	0	
12	0	0	0	0	511	510	0	0	
13	0	0	0	0	512	511	0	0	
14	0	0	0	0	511	513	0	0	
15	0	0	0	0	512	511	0	0	
0	0	0	0	0	517	510	0	0	
1	0	0	0	0	512	511	0	0	
2	0	0	0	0	511	510	0	0	
3	0	0	0	0	511	512	0	0	
4	0	0	0	0	508	511	0	0	
5	0	0	0	0	509	512	0	0	
6	0	0	0	0	509	511	0	0	
7	0	0	0	0	504	510	0	0	
8	0	0	0	0	506	510	0	0	
9	0	0	0	0	505	508	0	0	
10	0	0	0	0	504	508	0	0	
11	0	0	0	0	505	510	0	0	
12	0	0	0	0	504	511	0	0	
13	0	0	0	0	507	509	0	0	
14	0	0	0	0	509	508	0	0	
15	0	0	0	0	507	511	0	0	
0	0	0	0	0	508	512	0	0	
1	0	0	0	0	511	513	0	0	
2	0	0	0	0	514	511	0	0	
3	0	0	0	0	512	511	0	0	
4	0	0	0	0	513	513	0	0	
5	0	0	0	0	513	509	0	0	
6	0	0	0	0	511	510	0	0	
7	0	0	0	0	511	511	0	0	
8	0	0	0	0	510	510	0	0	
9	0	0	0	0	507	513	0	0	
10	0	0	0	0	507	510	0	0	
11	0	0	0	0	505	510	0	0	
12	0	0	0	0	505	511	0	0	
13	0	0	0	0	507	508	0	0	
14	0	0	0	0	507	510	0	0	
15	0	0	0	0	504	510	0	0	
0	0	0	0	0	504	510	0	0	
1	0	0	0	0	504	512	0	0	
2	0	0	0	0	508	511	0	0	
3	0	0	0	0	510	510	0	0	
4	0	0	0	0	511	510	0	0	
5	0	0	0	0	510	509	0	0	
6	0	0	0	0	511	511	0	0	
7	0	0	0	0	512	513	0	0	
8	0	0	0	0	514	511	0	0	
9	0	0	0	0	512	511	0	0	
10	0	0	0	0	511	509	0	0	
11	0	0	0	0	511	511	0	0	
12	0	0	0	0	510	511	0	0	
13	0	0	0	0	509	512	0	0	
14	0	0	0	0	507	511	0	0	
15	0	0	0	0	507	512	0	0	
0	0	0	0	0	508	512	0	0	
1	0	0	0	0	504	511	0	0	
2	0	0	0	0	505	510	0	0	
3	0	0	0	0	504	510	0	0	
4	0	0	0	0	507	509	0	0	
5	0	0	0	0	505	511	0	0	
6	0	0	0	0	506	511	0	0	
7	0	0	0	0	505	509	0	0	
8	0	0	0	0	511	510	0	0	
9	0	0	0	0	510	509	0	0	
10	0	0	0	0	510	511	0	0	
11	0	0	0	0	512	511	0	0	
12	0	0	0	0	512	511	0	0	
13	0	0	0	0	515	513	0	0	
14	0	0	0	0	515	514	0	0	
15	0	0	0	0	511	508	0	0	
0	0	0	0	0	508	509	0	0	
1	0	0	0	0	509	510	0	0	
2	0	0	0	0	508	507	0	0	
3	0	0	0	0	507	509	0	0	
4	0	0	0	0	505	508	0	0	
5	0	0	0	0	505	509	0	0	
6	0	0	0	0	505	513	0	0	
7	0	0	0	0	503	512	0	0	
8	0	0	0	0	507	511	0	0	
9	0	0	0	0	505	510	0	0	
10	0	0	0	0	507	508	0	0	
11	0	0	0	0	506	509	0	0	
12	0	0	0	0	508	510	0	0	
13	0	0	0	0	511	511	0	0	
14	0	0	0	0	512	512	0	0	
15	0	0	0	0	511	511	0	0	
0	0	0	0	0	511	511	0	0	
1	0	0	0	0	513	512	0	0	
2	0	0	0	0	513	512	0	0	
3	0	0	0	0	511	508	0	0	
4	0	0	0	0	511	512	0	0	
5	0	0	0	0	509	511	0	0	
6	0	0	0	0	507	511	0	0	
7	0	0	0	0	505	511	0	0	
8	0	0	0	0	505	512	0	0	
9	0	0	0	0	506	507	0	0	
10	0	0	0	0	505	511	0	0	
11	0	0	0	0	503	509	0	0	
12	0	0	0	0	503	511	0	0	
13	0	0	0	0	504	508	0	0	
14	0	0	0	0	505	508	0	0	
15	0	0	0	0	508	510	0	0	
0	0	0	0	0	509	510	0	0	
1	0	0	0	0	511	510	0	0	
2	0	0	0	0	515	510	0	0	
3	0	0	0	0	515	511	0	0	
4	0	0	0	0	514	510	0	0	
5	0	0	0	0	513	513	0	0	
6	0	0	0	0	510	511	0	0	
7	0	0	0	0	508	512	0	0	
8	0	0	0	0	508	509	0	0	
9	0	0	0	0	508	510	0	0	
10	0	0	0	0	508	511	0	0	
11	0	0	0	0	507	511	0	0	
12	0	0	0	0	508	511	0	0	
13	0	0	0	0	508	509	0	0	
14	0	0	0	0	505	510	0	0	
15	0	0	0	0	508	512	0	0	
0	0	0	0	0	504	510	0	0	
1	0	0	0	0	506	510	0	0	
2	0	0	0	0	505	510	0	0	
3	0	0	0	0	509	512	0	0	
4	0	0	0	0	509	511	0	0	
5	0	0	0	0	509	512	0	0	
6	0	0	0	0	510	511	0	0	
7	0	0	0	0	512	512	0	0	
8	0	0	0	0	514	510	0	0	
9	0	0	0	0	514	509	0	0	
10	0	0	0	0	511	510	0	0	
11	0	0	0	0	510	511	0	0	
12	0	0	0	0	509	510	0	0	
13	0	0	0	0	509	512	0	0	
14	0	0	0	0	507	510	0	0	
15	0	0	0	0	507	508	0	0	
0	0	0	0	0	505	510	0	0	
1	0	0	0	0	505	509	0	0	
2	0	0	0	0	504	508	0	0	
3	0	0	0	0	507	510	0	0	
4	0	0	0	0	507	510	0	0	
5	0	0	0	0	505	512	0	0	
6	0	0	0	0	506	511	0	0	
7	0	0	0	0	507	511	0	0	
8	0	0	0	0	510	509	0	0	
9	0	0	0	0	511	509	0	0	
10	0	0	0	0	513	511	0	0	
11	0	0	0	0	511	512	0	0	
12	0	0	0	0	511	509	0	0	
13	0	0	0	0	514	509	0	0	
14	0	0	0	0	513	511	0	0	
15	0	0	0	0	511	510	0	0	
0	0	0	0	0	510	511	0	0	
1	0	0	0	0	508	510	0	0	
2	0	0	0	0	506	510	0	0	
3	0	0	0	0	505	508	0	0	
4	0	0	0	0	507	511	0	0	
5	0	0	0	0	505	511	0	0	
6	0	0	0	0	504	511	0	0	
7	0	0	0	0	505	510	0	0	
8	0	0	0	0	504	509	0	0	
9	0	0	0	0	505	508	0	0	
10	0	0	0	0	508	511	0	0	
11	0	0	0	0	510	511	0	0	
12	0	0	0	0	511	512	0	0	
13	0	0	0	0	510	511	0	0	
14	0	0	0	0	511	511	0	0	
15	0	0	0	0	514	509	0	0	
0	0	0	0	0	515	512	0	0	
1	0	0	0	0	511	511	0	0	
2	0	0	0	0	509	511	0	0	
3	0	0	0	0	510	509	0	0	
4	0	0	0	0	511	510	0	0	
5	0	0	0	0	511	512	0	0	
6	0	0	0	0	508	510	0	0	
7	0	0	0	0	506	511	0	0	
8	0	0	0	0	505	511	0	0	
9	0	0	0	0	504	508	0	0	
10	0	0	0	0	505	510	0	0	
11	0	0	0	0	503	508	0	0	
12	0	0	0	0	506	512	0	0	
13	0	0	0	0	506	510	0	0	
14	0	0	0	0	507	510	0	0	
15	0	0	0	0	509	508	0	0	
0	0	0	0	0	509	511	0	0	
1	0	0	0	0	512	510	0	0	
2	0	0	0	0	512	513	0	0	
3	0	0	0	0	513	512	0	0	
4	0	0	0	0	511	512	0	0	
5	0	0	0	0	511	512	0	0	
6	0	0	0	0	512	512	0	0	
7	0	0	0	0	513	508	0	0	
8	0	0	0	0	509	510	0	0	
9	0	0	0	0	508	510	0	0	
10	0	0	0	0	507	511	0	0	
11	0	0	0	0	506	509	0	0	
12	0	0	0	0	506	511	0	0	
13	0	0	0	0	507	510	0	0	
14	0	0	0	0	505	512	0	0	
15	0	0	0	0	504	509	0	0	
0	0	0	0	0	505	509	0	0	
1	0	0	0	0	505	512	0	0	
2	0	0	0	0	506	510	0	0	
3	0	0	0	0	507	509	0	0	
4	0	0	0	0	508	510	0	0	
5	0	0	0	0	510	508	0	0	
6	0	0	0	0	513	513	0	0	
7	0	0	0	0	511	512	0	0	
8	0	0	0	0	513	511	0	0	
9	0	0	0	0	513	511	0	0	
10	0	0	0	0	512	511	0	0	
11	0	0	0	0	513	513	0	0	
12	0	0	0	0	511	510	0	0	
13	0	0	0	0	508	511	0	0	
14	0	0	0	0	508	510	0	0	
15	0	0	0	0	505	511	0	0	
0	0	0	0	0	502	510	0	0	
1	0	0	0	0	506	509	0	0	
2	0	0	0	0	507	510	0	0	
3	0	0	0	0	504	513	0	0	
4	0	0	0	0	505	512	0	0	
5	0	0	0	0	504	509	0	0	
6	0	0	0	0	504	509	0	0	
7	0	0	0	0	507	510	0	0	
8	0	0	0	0	512	511	0	0	
9	0	0	0	0	518	509	0	0	
10	0	0	0	0	513	509	0	0	
11	0	0	0	0	512	510	0	0	
12	0	0	0	0	511	509	0	0	
13	0	0	0	0	512	511	0	0	
14	0	0	0	0	512	513	0	0	
15	0	0	0	0	511	510	0	0	
0	0	0	0	0	507	512	0	0	
1	0	0	0	0	504	509	0	0	
2	0	0	0	0	508	512	0	0	
3	0	0	0	0	508	511	0	0	
4	0	0	0	0	505	510	0	0	
5	0	0	0	0	507	510	0	0	
6	0	0	0	0	507	510	0	0	
7	0	0	0	0	508	509	0	0	
8	0	0	0	0	506	509	0	0	
9	0	0	0	0	504	510	0	0	
10	0	0	0	0	508	510	0	0	
11	0	0	0	0	507	509	0	0	
12	0	0	0	0	507	511	0	0	
13	0	0	0	0	512	511	0	0	
14	0	0	0	0	513	512	0	0	
15	0	0	0	0	511	510	0	0	
0	0	0	0	0	512	512	0	0	
1	0	0	0	0	513	511	0	0	
2	0	0	0	0	512	511	0	0	
3	0	0	0	0	512	513	0	0	
4	0	0	0	0	511	509	0	0	
5	0	0	0	0	508	511	0	0	
6	0	0	0	0	507	510	0	0	
7	0	0	0	0	507	510	0	0	
8	0	0	0	0	506	510	0	0	
9	0	0	0	0	506	510	0	0	
10	0	0	0	0	504	508	0	0	
11	0	0	0	0	506	509	0	0	
12	0	0	0	0	506	510	0	0	
13	0	0	0	0	503	510	0	0	
14	0	0	0	0	505	510	0	0	
15	0	0	0	0	508	513	0	0	
0	0	0	0	0	511	509	0	0	
1	0	0	0	0	513	511	0	0	
2	0	0	0	0	512	512	0	0	
3	0	0	0	0	513	512	0	0	
4	0	0	0	0	511	512	0	0	
5	0	0	0	0	513	510	0	0	
6	0	0	0	0	511	508	0	0	
7	0	0	0	0	512	511	0	0	
8	0	0	0	0	508	511	0	0	
9	0	0	0	0	508	512	0	0	
10	0	0	0	0	508	510	0	0	
11	0	0	0	0	507	510	0	0	
12	0	0	0	0	506	511	0	0	
13	0	0	0	0	504	510	0	0	
14	0	0	0	0	505	507	0	0	
15	0	0	0	0	504	509	0	0	
0	0	0	0	0	504	512	0	0	
1	0	0	0	0	505	509	0	0	
2	0	0	0	0	508	511	0	0	
3	0	0	0	0	508	512	0	0	
4	0	0	0	0	507	508	0	0	
5	0	0	0	0	510	510	0	0	
6	0	0	0	0	513	510	0	0	
7	0	0	0	0	513	511	0	0	
8	0	0	0	0	513	513	0	0	
9	0	0	0	0	513	510	0	0	
10	0	0	0	0	511	512	0	0	
11	0	0	0	0	511	510	0	0	
12	0	0	0	0	507	509	0	0	
13	0	0	0	0	505	510	0	0	
14	0	0	0	0	507	512	0	0	
15	0	0	0	0	508	512	0	0	
0	0	0	0	0	509	511	0	0	
1	0	0	0	0	508	510	0	0	
2	0	0	0	0	505	511	0	0	
3	0	0	0	0	504	511	0	0	
4	0	0	0	0	504	512	0	0	
5	0	0	0	0	507	508	0	0	
6	0	0	0	0	508	511	0	0	
7	0	0	0	0	508	512	0	0	
8	0	0	0	0	508	509	0	0	
9	0	0	0	0	511	511	0	0	
10	0	0	0	0	512	512	0	0	
11	0	0	0	0	513	512	0	0	
12	0	0	0	0	513	512	0	0	
13	0	0	0	0	513	511	0	0	
14	0	0	0	0	512	509	0	0	
15	0	0	0	0	510	509	0	0	
0	0	0	0	0	510	510	0	0	
1	0	0	0	0	508	512	0	0	
2	0	0	0	0	508	508	0	0	
3	0	0	0	0	505	510	0	0	
4	0	0	0	0	504	511	0	0	
5	0	0	0	0	504	510	0	0	
6	0	0	0	0	504	509	0	0	
7	0	0	0	0	505	511	0	0	
8	0	0	0	0	506	511	0	0	
9	0	0	0	0	508	510	0	0	
10	0	0	0	0	506	508	0	0	
11	0	0	0	0	506	509	0	0	
12	0	0	0	0	508	510	0	0	
13	0	0	0	0	512	511	0	0	
14	0	0	0	0	512	510	0	0	
15	0	0	0	0	514	510	0	0	
0	0	0	0	0	511	512	0	0	
1	0	0	0	0	513	514	0	0	
2	0	0	0	0	512	510	0	0	
3	0	0	0	0	510	512	0	0	
4	0	0	0	0	511	512	0	0	
5	0	0	0	0	510	513	0	0	
6	0	0	0	0	509	511	0	0	
7	0	0	0	0	505	510	0	0	
8	0	0	0	0	505	509	0	0	
9	0	0	0	0	507	509	0	0	
10	0	0	0	0	506	509	0	0	
11	0	0	0	0	507	508	0	0	
12	0	0	0	0	508	510	0	0	
13	0	0	0	0	506	509	0	0	
14	0	0	0	0	506	511	0	0	
15	0	0	0	0	507	512	0	0	
0	0	0	0	0	510	511	0	0	
1	0	0	0	0	511	511	0	0	
2	0	0	0	0	509	511	0	0	
3	0	0	0	0	511	511	0	0	
4	0	0	0	0	513	513	0	0	
5	0	0	0	0	515	512	0	0	
6	0	0	0	0	509	510	0	0	
7	0	0	0	0	508	508	0	0	
8	0	0	0	0	511	510	0	0	
9	0	0	0	0	510	509	0	0	
10	0	0	0	0	507	512	0	0	
11	0	0	0	0	505	512	0	0	
12	0	0	0	0	505	512	0	0	
13	0	0	0	0	509	508	0	0	
14	0	0	0	0	503	511	0	0	
15	0	0	0	0	505	510	0	0	
0	0	0	0	0	505	510	0	0	
1	0	0	0	0	506	511	0	0	
2	0	0	0	0	507	511	0	0	
3	0	0	0	0	507	510	0	0	
4	0	0	0	0	508	511	0	0	
5	0	0	0	0	513	509	0	0	
6	0	0	0	0	510	511	0	0	
7	0	0	0	0	510	509	0	0	
8	0	0	0	0	513	512	0	0	
9	0	0	0	0	512	512	0	0	
10	0	0	0	0	512	509	0	0	
11	0	0	0	0	511	511	0	0	
12	0	0	0	0	508	509	0	0	
13	0	0	0	0	508	509	0	0	
14	0	0	0	0	508	508	0	0	
15	0	0	0	0	506	509	0	0	
0	0	0	0	0	506	509	0	0	
1	0	0	0	0	504	511	0	0	
2	0	0	0	0	503	511	0	0	
3	0	0	0	0	504	511	0	0	
4	0	0	0	0	504	509	0	0	
5	0	0	0	0	504	511	0	0	
6	0	0	0	0	507	510	0	0	
7	0	0	0	0	510	510	0	0	
8	0	0	0	0	511	510	0	0	
9	0	0	0	0	514	510	0	0	
10	0	0	0	0	512	514	0	0	
11	0	0	0	0	511	511	0	0	
12	0	0	0	0	515	512	0	0	
13	0	0	0	0	513	511	0	0	
14	0	0	0	0	512	513	0	0	
15	0	0	0	0	508	511	0	0	
0	0	0	0	0	507	510	0	0	
1	0	0	0	0	508	511	0	0	
2	0	0	0	0	509	511	0	0	
3	0	0	0	0	505	511	0	0	
4	0	0	0	0	504	510	0	0	
5	0	0	0	0	508	510	0	0	
6	0	0	0	0	508	513	0	0	
7	0	0	0	0	505	511	0	0	
8	0	0	0	0	507	510	0	0	
9	0	0	0	0	505	510	0	0	
10	0	0	0	0	503	510	0	0	
11	0	0	0	0	509	511	0	0	
12	0	0	0	0	507	508	0	0	
13	0	0	0	0	511	509	0	0	
14	0	0	0	0	514	509	0	0	
15	0	0	0	0	512	510	0	0	
0	0	0	0	0	515	511	0	0	
1	0	0	0	0	512	512	0	0	
2	0	0	0	0	513	510	0	0	
3	0	0	0	0	508	512	0	0	
4	0	0	0	0	508	511	0	0	
5	0	0	0	0	509	511	0	0	
6	0	0	0	0	510	511	0	0	
7	0	0	0	0	507	510	0	0	
8	0	0	0	0	508	511	0	0	
9	0	0	0	0	506	511	0	0	
10	0	0	0	0	504	511	0	0	
11	0	0	0	0	504	510	0	0	
12	0	0	0	0	504	512	0	0	
13	0	0	0	0	506	509	0	0	
14	0	0	0	0	504	509	0	0	
15	0	0	0	0	507	510	0	0	
0	0	0	0	0	509	511	0	0	
1	0	0	0	0	510	511	0	0	
2	0	0	0	0	513	509	0	0	
3	0	0	0	0	514	509	0	0	
4	0	0	0	0	511	510	0	0	
5	0	0	0	0	511	511	0	0	
6	0	0	0	0	512	512	0	0	
7	0	0	0	0	512	511	0	0	
8	0	0	0	0	512	513	0	0	
9	0	0	0	0	509	511	0	0	
10	0	0	0	0	507	510	0	0	
11	0	0	0	0	505	512	0	0	
12	0	0	0	0	504	509	0	0	
13	0	0	0	0	505	512	0	0	
14	0	0	0	0	505	511	0	0	
15	0	0	0	0	505	510	0	0	
0	0	0	0	0	508	511	0	0	
1	0	0	0	0	506	512	0	0	
2	0	0	0	0	509	509	0	0	
3	0	0	0	0	508	511	0	0	
4	0	0	0	0	509	510	0	0	
5	0	0	0	0	510	511	0	0	
6	0	0	0	0	511	512	0	0	
7	0	0	0	0	511	512	0	0	
8	0	0	0	0	511	511	0	0	
9	0	0	0	0	513	510	0	0	
10	0	0	0	0	514	512	0	0	
11	0	0	0	0	510	509	0	0	
12	0	0	0	0	509	511	0	0	
13	0	0	0	0	512	509	0	0	
14	0	0	0	0	512	510	0	0	
15	0	0	0	0	506	511	0	0	
0	0	0	0	0	504	510	0	0	
1	0	0	0	0	505	512	0	0	
2	0	0	0	0	505	511	0	0	
3	0	0	0	0	503	513	0	0	
4	0	0	0	0	504	510	0	0	
5	0	0	0	0	502	510	0	0	
6	0	0	0	0	507	509	0	0	
7	0	0	0	0	510	512	0	0	
8	0	0	0	0	511	511	0	0	
9	0	0	0	0	510	511	0	0	
10	0	0	0	0	514	510	0	0	
11	0	0	0	0	512	511	0	0	
12	0	0	0	0	515	512	0	0	
13	0	0	0	0	513	508	0	0	
14	0	0	0	0	513	512	0	0	
15	0	0	0	0	510	511	0	0	
0	0	0	0	0	509	510	0	0	
1	0	0	0	0	509	510	0	0	
2	0	0	0	0	508	508	0	0	
3	0	0	0	0	506	511	0	0	
4	0	0	0	0	504	512	0	0	
5	0	0	0	0	506	508	0	0	
6	0	0	0	0	504	508	0	0	
7	0	0	0	0	503	511	0	0	
8	0	0	0	0	502	510	0	0	
9	0	0	0	0	508	512	0	0	
10	0	0	0	0	512	510	0	0	
11	0	0	0	0	512	510	0	0	
12	0	0	0	0	508	511	0	0	
13	0	0	0	0	510	512	0	0	
14	0	0	0	0	511	511	0	0	
15	0	0	0	0	511	511	0	0	
0	0	0	0	0	514	510	0	0	
1	0	0	0	0	512	508	0	0	
2	0	0	0	0	511	511	0	0	
3	0	0	0	0	510	511	0	0	
4	0	0	0	0	510	513	0	0	
5	0	0	0	0	509	510	0	0	
6	0	0	0	0	507	511	0	0	
7	0	0	0	0	506	510	0	0	
8	0	0	0	0	506	511	0	0	
9	0	0	0	0	506	511	0	0	
10	0	0	0	0	504	510	0	0	
11	0	0	0	0	504	510	0	0	
12	0	0	0	0	505	510	0	0	
13	0	0	0	0	507	511	0	0	
14	0	0	0	0	505	510	0	0	
15	0	0	0	0	506	511	0	0	
0	0	0	0	0	508	511	0	0	
1	0	0	0	0	514	510	0	0	
2	0	0	0	0	514	511	0	0	
3	0	0	0	0	513	510	0	0	
4	0	0	0	0	512	511	0	0	
5	0	0	0	0	512	510	0	0	
6	0	0	0	0	513	511	0	0	
7	0	0	0	0	511	509	0	0	
8	0	0	0	0	511	511	0	0	
9	0	0	0	0	509	513	0	0	
10	0	0	0	0	508	513	0	0	
11	0	0	0	0	504	510	0	0	
12	0	0	0	0	505	510	0	0	
13	0	0	0	0	503	508	0	0	
14	0	0	0	0	506	510	0	0	
15	0	0	0	0	506	510	0	0	
0	0	0	0	0	507	510	0	0	
1	0	0	0	0	507	511	0	0	
2	0	0	0	0	506	511	0	0	
3	0	0	0	0	507	512	0	0	
4	0	0	0	0	508	509	0	0	
5	0	0	0	0	506	511	0	0	
6	0	0	0	0	509	511	0	0	
7	0	0	0	0	512	512	0	0	
8	0	0	0	0	515	510	0	0	
9	0	0	0	0	514	512	0	0	
10	0	0	0	0	513	510	0	0	
11	0	0	0	0	511	510	0	0	
12	0	0	0	0	510	512	0	0	
13	0	0	0	0	509	510	0	0	
14	0	0	0	0	507	510	0	0	
15	0	0	0	0	507	510	0	0	
0	0	0	0	0	506	511	0	0	
1	0	0	0	0	503	508	0	0	
2	0	0	0	0	504	511	0	0	
3	0	0	0	0	507	510	0	0	
4	0	0	0	0	507	510	0	0	
5	0	0	0	0	507	510	0	0	
6	0	0	0	0	507	511	0	0	
7	0	0	0	0	508	511	0	0	
8	0	0	0	0	508	511	0	0	
9	0	0	0	0	508	510	0	0	
10	0	0	0	0	510	512	0	0	
11	0	0	0	0	514	511	0	0	
12	0	0	0	0	515	512	0	0	
13	0	0	0	0	512	511	0	0	
14	0	0	0	0	512	512	0	0	
15	0	0	0	0	513	509	0	0	
0	0	0	0	0	509	510	0	0	
1	0	0	0	0	506	508	0	0	
2	0	0	0	0	507	512	0	0	
3	0	0	0	0	507	511	0	0	
4	0	0	0	0	505	510	0	0	
5	0	0	0	0	505	510	0	0	
6	0	0	0	0	505	512	0	0	
7	0	0	0	0	507	510	0	0	
8	0	0	0	0	505	510	0	0	
9	0	0	0	0	505	511	0	0	
10	0	0	0	0	506	510	0	0	
11	0	0	0	0	506	511	0	0	
12	0	0	0	0	510	509	0	0	
13	0	0	0	0	510	510	0	0	
14	0	0	0	0	510	509	0	0	
15	0	0	0	0	512	508	0	0	
0	0	0	0	0	512	511	0	0	
1	0	0	0	0	513	513	0	0	
2	0	0	0	0	514	511	0	0	
3	0	0	0	0	511	512	0	0	
4	0	0	0	0	511	510	0	0	
5	0	0	0	0	509	510	0	0	
6	0	0	0	0	509	512	0	0	
7	0	0	0	0	504	511	0	0	
8	0	0	0	0	504	509	0	0	
9	0	0	0	0	504	510	0	0	
10	0	0	0	0	505	509	0	0	
11	0	0	0	0	507	512	0	0	
12	0	0	0	0	506	509	0	0	
13	0	0	0	0	507	510	0	0	
14	0	0	0	0	509	510	0	0	
15	0	0	0	0	506	511	0	0	
0	0	0	0	0	510	509	0	0	
1	0	0	0	0	509	511	0	0	
2	0	0	0	0	513	512	0	0	
3	0	0	0	0	511	513	0	0	
4	0	0	0	0	513	510	0	0	
5	0	0	0	0	512	510	0	0	
6	0	0	0	0	512	511	0	0	
7	0	0	0	0	512	510	0	0	
8	0	0	0	0	510	512	0	0	
9	0	0	0	0	509	513	0	0	
10	0	0	0	0	506	510	0	0	
11	0	0	0	0	503	510	0	0	
12	0	0	0	0	504	509	0	0	
13	0	0	0	0	508	509	0	0	
14	0	0	0	0	508	510	0	0	
15	0	0	0	0	506	510	0	0	
0	0	0	0	0	506	510	0	0	
1	0	0	0	0	505	509	0	0	
2	0	0	0	0	507	508	0	0	
3	0	0	0	0	507	512	0	0	
4	0	0	0	0	509	510	0	0	
5	0	0	0	0	512	512	0	0	
6	0	0	0	0	511	511	0	0	
7	0	0	0	0	511	512	0	0	
8	0	0	0	0	515	511	0	0	
9	0	0	0	0	516	511	0	0	
10	0	0	0	0	511	509	0	0	
11	0	0	0	0	511	512	0	0	
12	0	0	0	0	508	510	0	0	
13	0	0	0	0	506	512	0	0	
14	0	0	0	0	507	510	0	0	
15	0	0	0	0	505	510	0	0	
0	0	0	0	0	507	511	0	0	
1	0	0	0	0	504	509	0	0	
2	0	0	0	0	504	510	0	0	
3	0	0	0	0	503	509	0	0	
4	0	0	0	0	504	510	0	0	
5	0	0	0	0	506	509	0	0	
6	0	0	0	0	508	511	0	0	
7	0	0	0	0	510	512	0	0	
8	0	0	0	0	511	513	0	0	
9	0	0	0	0	510	512	0	0	
10	0	0	0	0	512	511	0	0	
11	0	0	0	0	513	511	0	0	
12	0	0	0	0	513	512	0	0	
13	0	0	0	0	514	513	0	0	
14	0	0	0	0	513	510	0	0	
15	0	0	0	0	511	510	0	0	
0	0	0	0	0	510	508	0	0	
1	0	0	0	0	507	511	0	0	
2	0	0	0	0	507	510	0	0	
3	0	0	0	0	503	510	0	0	
4	0	0	0	0	510	510	0	0	
5	0	0	0	0	507	511	0	0	
6	0	0	0	0	503	508	0	0	
7	0	0	0	0	502	511	0	0	
8	0	0	0	0	504	509	0	0	
9	0	0	0	0	506	510	0	0	
10	0	0	0	0	506	512	0	0	
11	0	0	0	0	508	512	0	0	
12	0	0	0	0	510	513	0	0	
13	0	0	0	0	511	512	0	0	
14	0	0	0	0	513	512	0	0	
15	0	0	0	0	512	513	0	0	
0	0	0	0	0	513	512	0	0	
1	0	0	0	0	511	509	0	0	
2	0	0	0	0	512	509	0	0	
3	0	0	0	0	509	508	0	0	
4	0	0	0	0	509	510	0	0	
5	0	0	0	0	509	511	0	0	
6	0	0	0	0	507	512	0	0	
7	0	0	0	0	506	510	0	0	
8	0	0	0	0	507	509	0	0	
9	0	0	0	0	504	512	0	0	
10	0	0	0	0	503	509	0	0	
11	0	0	0	0	505	510	0	0	
12	0	0	0	0	507	511	0	0	
13	0	0	0	0	507	511	0	0	
14	0	0	0	0	510	511	0	0	
15	0	0	0	0	509	510	0	0	
0	0	0	0	0	508	507	0	0	
1	0	0	0	0	510	511	0	0	
2	0	0	0	0	510	510	0	0	
3	0	0	0	0	512	512	0	0	
4	0	0	0	0	512	510	0	0	
5	0	0	0	0	511	510	0	0	
6	0	0	0	0	510	510	0	0	
7	0	0	0	0	511	512	0	0	
8	0	0	0	0	511	512	0	0	
9	0	0	0	0	511	512	0	0	
10	0	0	0	0	509	511	0	0	
11	0	0	0	0	504	510	0	0	
12	0	0	0	0	506	510	0	0	
13	0	0	0	0	504	510	0	0	
14	0	0	0	0	503	511	0	0	
15	0	0	0	0	504	511	0	0	
0	0	0	0	0	503	512	0	0	
1	0	0	0	0	506	508	0	0	
2	0	0	0	0	509	508	0	0	
3	0	0	0	0	510	511	0	0	
4	0	0	0	0	511	511	0	0	
5	0	0	0	0	510	511	0	0	
6	0	0	0	0	509	511	0	0	
7	0	0	0	0	515	511	0	0	
8	0	0	0	0	513	511	0	0	
9	0	0	0	0	513	509	0	0	
10	0	0	0	0	511	509	0	0	
11	0	0	0	0	511	512	0	0	
12	0	0	0	0	509	510	0	0	
13	0	0	0	0	508	513	0	0	
14	0	0	0	0	507	510	0	0	
15	0	0	0	0	507	512	0	0	
0	0	0	0	0	505	508	0	0	
1	0	0	0	0	504	509	0	0	
2	0	0	0	0	504	509	0	0	
3	0	0	0	0	506	510	0	0	
4	0	0	0	0	507	512	0	0	
5	0	0	0	0	506	511	0	0	
6	0	0	0	0	508	511	0	0	
7	0	0	0	0	508	511	0	0	
8	0	0	0	0	510	511	0	0	
9	0	0	0	0	509	511	0	0	
10	0	0	0	0	511	511	0	0	
11	0	0	0	0	514	512	0	0	
12	0	0	0	0	514	512	0	0	
13	0	0	0	0	512	511	0	0	
14	0	0	0	0	513	508	0	0	
15	0	0	0	0	512	509	0	0	
0	0	0	0	0	512	509	0	0	
1	0	0	0	0	508	509	0	0	
2	0	0	0	0	508	510	0	0	
3	0	0	0	0	504	510	0	0	
4	0	0	0	0	504	511	0	0	
5	0	0	0	0	505	511	0	0	
6	0	0	0	0	505	511	0	0	
7	0	0	0	0	503	509	0	0	
8	0	0	0	0	503	509	0	0	
9	0	0	0	0	507	512	0	0	
10	0	0	0	0	508	509	0	0	
11	0	0	0	0	506	510	0	0	
12	0	0	0	0	510	512	0	0	
13	0	0	0	0	512	511	0	0	
14	0	0	0	0	512	510	0	0	
15	0	0	0	0	512	510	0	0	
0	0	0	0	0	512	512	0	0	
1	0	0	0	0	515	508	0	0	
2	0	0	0	0	512	509	0	0	
3	0	0	0	0	511	511	0	0	
4	0	0	0	0	510	511	0	0	
5	0	0	0	0	509	509	0	0	
6	0	0	0	0	505	510	0	0	
7	0	0	0	0	507	510	0	0	
8	0	0	0	0	508	512	0	0	
9	0	0	0	0	505	511	0	0	
10	0	0	0	0	504	511	0	0	
11	0	0	0	0	504	511	0	0	
12	0	0	0	0	504	511	0	0	
13	0	0	0	0	505	510	0	0	
14	0	0	0	0	508	512	0	0	
15	0	0	0	0	507	512	0	0	
0	0	0	0	0	510	511	0	0	
1	0	0	0	0	510	510	0	0	
2	0	0	0	0	511	511	0	0	
3	0	0	0	0	512	510	0	0	
4	0	0	0	0	514	511	0	0	
5	0	0	0	0	513	512	0	0	
6	0	0	0	0	515	512	0	0	
7	0	0	0	0	512	510	0	0	
8	0	0	0	0	511	511	0	0	
9	0	0	0	0	511	512	0	0	
10	0	0	0	0	507	509	0	0	
11	0	0	0	0	504	512	0	0	
12	0	0	0	0	505	511	0	0	
13	0	0	0	0	502	508	0	0	
14	0	0	0	0	500	509	0	0	
15	0	0	0	0	504	510	0	0	
0	0	0	0	0	510	508	0	0	
1	0	0	0	0	505	509	0	0	
2	0	0	0	0	508	512	0	0	
3	0	0	0	0	507	511	0	0	
4	0	0	0	0	511	511	0	0	
5	0	0	0	0	512	509	0	0	
6	0	0	0	0	513	509	0	0	
7	0	0	0	0	512	510	0	0	
8	0	0	0	0	512	512	0	0	
9	0	0	0	0	512	510	0	0	
10	0	0	0	0	511	510	0	0	
11	0	0	0	0	510	511	0	0	
12	0	0	0	0	508	512	0	0	
13	0	0	0	0	509	512	0	0	
14	0	0	0	0	507	511	0	0	
15	0	0	0	0	506	511	0	0	
0	0	0	0	0	507	512	0	0	
1	0	0	0	0	508	509	0	0	
2	0	0	0	0	504	510	0	0	
3	0	0	0	0	503	510	0	0	
4	0	0	0	0	506	509	0	0	
5	0	0	0	0	503	510	0	0	
6	0	0	0	0	506	511	0	0	
7	0	0	0	0	508	513	0	0	
8	0	0	0	0	512	510	0	0	
9	0	0	0	0	510	509	0	0	
10	0	0	0	0	512	510	0	0	
11	0	0	0	0	512	510	0	0	
12	0	0	0	0	513	510	0	0	
13	0	0	0	0	512	511	0	0	
14	0	0	0	0	510	511	0	0	
15	0	0	0	0	513	511	0	0	
0	0	0	0	0	511	514	0	0	
1	0	0	0	0	512	511	0	0	
2	0	0	0	0	509	511	0	0	
3	0	0	0	0	504	510	0	0	
4	0	0	0	0	504	510	0	0	
5	0	0	0	0	508	511	0	0	
6	0	0	0	0	504	508	0	0	
7	0	0	0	0	504	510	0	0	
8	0	0	0	0	507	511	0	0	
9	0	0	0	0	506	510	0	0	
10	0	0	0	0	510	510	0	0	
11	0	0	0	0	510	512	0	0	
12	0	0	0	0	507	510	0	0	
13	0	0	0	0	510	510	0	0	
14	0	0	0	0	511	508	0	0	
15	0	0	0	0	512	511	0	0	
0	0	0	0	0	513	509	0	0	
1	0	0	0	0	511	511	0	0	
2	0	0	0	0	510	510	0	0	
3	0	0	0	0	510	509	0	0	
4	0	0	0	0	509	511	0	0	
5	0	0	0	0	510	512	0	0	
6	0	0	0	0	509	510	0	0	
7	0	0	0	0	508	512	0	0	
8	0	0	0	0	504	510	0	0	
9	0	0	0	0	503	511	0	0	
10	0	0	0	0	504	511	0	0	
11	0	0	0	0	505	509	0	0	
12	0	0	0	0	505	508	0	0	
13	0	0	0	0	507	509	0	0	
14	0	0	0	0	506	510	0	0	
15	0	0	0	0	508	511	0	0	
0	0	0	0	0	507	511	0	0	
1	0	0	0	0	510	511	0	0	
2	0	0	0	0	512	512	0	0	
3	0	0	0	0	512	512	0	0	
4	0	0	0	0	513	511	0	0	
5	0	0	0	0	514	512	0	0	
6	0	0	0	0	513	511	0	0	
7	0	0	0	0	511	511	0	0	
8	0	0	0	0	508	511	0	0	
9	0	0	0	0	508	509	0	0	
10	0	0	0	0	511	508	0	0	
11	0	0	0	0	507	510	0	0	
12	0	0	0	0	506	511	0	0	
13	0	0	0	0	506	511	0	0	
14	0	0	0	0	505	509	0	0	
15	0	0	0	0	503	511	0	0	
0	0	0	0	0	504	510	0	0	
1	0	0	0	0	507	510	0	0	
2	0	0	0	0	506	512	0	0	
3	0	0	0	0	507	513	0	0	
4	0	0	0	0	511	511	0	0	
5	0	0	0	0	512	511	0	0	
6	0	0	0	0	509	508	0	0	
7	0	0	0	0	511	509	0	0	
8	0	0	0	0	515	509	0	0	
9	0	0	0	0	513	511	0	0	
10	0	0	0	0	513	510	0	0	
11	0	0	0	0	511	511	0	0	
12	0	0	0	0	507	514	0	0	
13	0	0	0	0	510	512	0	0	
14	0	0	0	0	508	512	0	0	
15	0	0	0	0	508	511	0	0	
0	0	0	0	0	505	511	0	0	
1	0	0	0	0	506	512	0	0	
2	0	0	0	0	504	511	0	0	
3	0	0	0	0	505	511	0	0	
4	0	0	0	0	507	508	0	0	
5	0	0	0	0	507	508	0	0	
6	0	0	0	0	507	510	0	0	
7	0	0	0	0	507	509	0	0	
8	0	0	0	0	509	510	0	0	
9	0	0	0	0	511	511	0	0	
10	0	0	0	0	515	509	0	0	
11	0	0	0	0	512	511	0	0	
12	0	0	0	0	511	511	0	0	
13	0	0	0	0	508	510	0	0	
14	0	0	0	0	510	511	0	0	
15	0	0	0	0	512	508	0	0	
0	0	0	0	0	512	511	0	0	
1	0	0	0	0	509	512	0	0	
2	0	0	0	0	507	511	0	0	
3	0	0	0	0	507	509	0	0	
4	0	0	0	0	506	512	0	0	
5	0	0	0	0	507	507	0	0	
6	0	0	0	0	504	509	0	0	
7	0	0	0	0	506	510	0	0	
8	0	0	0	0	507	512	0	0	
9	0	0	0	0	508	511	0	0	
10	0	0	0	0	508	510	0	0	
11	0	0	0	0	507	511	0	0	
12	0	0	0	0	504	510	0	0	
13	0	0	0	0	511	510	0	0	
14	0	0	0	0	511	512	0	0	
15	0	0	0	0	514	510	0	0	
0	0	0	0	0	513	512	0	0	
1	0	0	0	0	512	511	0	0	
2	0	0	0	0	514	511	0	0	
3	0	0	0	0	512	510	0	0	
4	0	0	0	0	509	514	0	0	
5	0	0	0	0	509	510	0	0	
6	0	0	0	0	506	511	0	0	
7	0	0	0	0	504	509	0	0	
8	0	0	0	0	506	511	0	0	
9	0	0	0	0	506	509	0	0	
10	0	0	0	0	504	513	0	0	
11	0	0	0	0	504	508	0	0	
12	0	0	0	0	505	512	0	0	
13	0	0	0	0	506	511	0	0	
14	0	0	0	0	508	511	0	0	
15	0	0	0	0	508	511	0	0	
0	0	0	0	0	510	510	0	0	
1	0	0	0	0	511	508	0	0	
2	0	0	0	0	512	511	0	0	
3	0	0	0	0	512	510	0	0	
4	0	0	0	0	512	511	0	0	
5	0	0	0	0	514	511	0	0	
6	0	0	0	0	513	510	0	0	
7	0	0	0	0	511	512	0	0	
8	0	0	0	0	509	511	0	0	
9	0	0	0	0	505	510	0	0	
10	0	0	0	0	507	509	0	0	
11	0	0	0	0	504	511	0	0	
12	0	0	0	0	503	510	0	0	
13	0	0	0	0	508	511	0	0	
14	0	0	0	0	508	511	0	0	
15	0	0	0	0	506	510	0	0	
0	0	0	0	0	507	509	0	0	
1	0	0	0	0	506	509	0	0	
2	0	0	0	0	507	508	0	0	
3	0	0	0	0	509	511	0	0	
4	0	0	0	0	510	510	0	0	
5	0	0	0	0	510	511	0	0	
6	0	0	0	0	511	510	0	0	
7	0	0	0	0	511	513	0	0	
8	0	0	0	0	513	512	0	0	
9	0	0	0	0	511	510	0	0	
10	0	0	0	0	511	510	0	0	
11	0	0	0	0	513	508	0	0	
12	0	0	0	0	511	512	0	0	
13	0	0	0	0	508	512	0	0	
14	0	0	0	0	508	510	0	0	
15	0	0	0	0	505	511	0	0	
0	0	0	0	0	504	509	0	0	
1	0	0	0	0	504	510	0	0	
2	0	0	0	0	504	509	0	0	
3	0	0	0	0	506	509	0	0	
4	0	0	0	0	508	511	0	0	
5	0	0	0	0	508	511	0	0	
6	0	0	0	0	506	513	0	0	
7	0	0	0	0	507	511	0	0	
8	0	0	0	0	511	512	0	0	
9	0	0	0	0	510	511	0	0	
10	0	0	0	0	510	509	0	0	
11	0	0	0	0	512	510	0	0	
12	0	0	0	0	513	511	0	0	
13	0	0	0	0	512	508	0	0	
14	0	0	0	0	511	513	0	0	
15	0	0	0	0	510	507	0	0	
0	0	0	0	0	507	512	0	0	
1	0	0	0	0	509	512	0	0	
2	0	0	0	0	511	511	0	0	
3	0	0	0	0	508	510	0	0	
4	0	0	0	0	505	511	0	0	
5	0	0	0	0	506	512	0	0	
6	0	0	0	0	504	508	0	0	
7	0	0	0	0	503	509	0	0	
8	0	0	0	0	505	509	0	0	
9	0	0	0	0	505	511	0	0	
10	0	0	0	0	505	510	0	0	
11	0	0	0	0	510	511	0	0	
12	0	0	0	0	509	512	0	0	
13	0	0	0	0	510	511	0	0	
14	0	0	0	0	512	510	0	0	
15	0	0	0	0	513	511	0	0	
0	0	0	0	0	514	510	0	0	
1	0	0	0	0	511	512	0	0	
2	0	0	0	0	512	513	0	0	
3	0	0	0	0	511	511	0	0	
4	0	0	0	0	512	511	0	0	
5	0	0	0	0	511	509	0	0	
6	0	0	0	0	508	510	0	0	
7	0	0	0	0	503	510	0	0	
8	0	0	0	0	507	510	0	0	
9	0	0	0	0	507	511	0	0	
10	0	0	0	0	505	509	0	0	
11	0	0	0	0	503	511	0	0	
12	0	0	0	0	505	511	0	0	
13	0	0	0	0	502	508	0	0	
14	0	0	0	0	508	509	0	0	
15	0	0	0	0	509	511	0	0	
0	0	0	0	0	507	512	0	0	
1	0	0	0	0	511	510	0	0	
2	0	0	0	0	512	511	0	0	
3	0	0	0	0	512	511	0	0	
4	0	0	0	0	514	508	0	0	
5	0	0	0	0	512	510	0	0	
6	0	0	0	0	511	511	0	0	
7	0	0	0	0	512	508	0	0	
8	0	0	0	0	511	509	0	0	
9	0	0	0	0	508	511	0	0	
10	0	0	0	0	509	511	0	0	
11	0	0	0	0	505	511	0	0	
12	0	0	0	0	505	511	0	0	
13	0	0	0	0	506	511	0	0	
14	0	0	0	0	505	511	0	0	
15	0	0	0	0	505	512	0	0	
0	0	0	0	0	505	510	0	0	
1	0	0	0	0	507	513	0	0	
2	0	0	0	0	507	512	0	0	
3	0	0	0	0	507	512	0	0	
4	0	0	0	0	511	511	0	0	
5	0	0	0	0	512	510	0	0	
6	0	0	0	0	511	510	0	0	
7	0	0	0	0	512	511	0	0	
8	0	0	0	0	512	510	0	0	
9	0	0	0	0	514	510	0	0	
10	0	0	0	0	513	509	0	0	
11	0	0	0	0	511	510	0	0	
12	0	0	0	0	509	510	0	0	
13	0	0	0	0	508	508	0	0	
14	0	0	0	0	506	510	0	0	
15	0	0	0	0	505	510	0	0	
0	0	0	0	0	505	511	0	0	
1	0	0	0	0	506	510	0	0	
2	0	0	0	0	503	508	0	0	
3	0	0	0	0	503	510	0	0	
4	0	0	0	0	502	508	0	0	
5	0	0	0	0	504	510	0	0	
6	0	0	0	0	507	510	0	0	
7	0	0	0	0	511	512	0	0	
8	0	0	0	0	512	512	0	0	
9	0	0	0	0	515	512	0	0	
10	0	0	0	0	513	510	0	0	
11	0	0	0	0	513	513	0	0	
12	0	0	0	0	513	512	0	0	
13	0	0	0	0	511	512	0	0	
14	0	0	0	0	510	511	0	0	
15	0	0	0	0	509	510	0	0	
0	0	0	0	0	510	511	0	0	
1	0	0	0	0	508	510	0	0	
2	0	0	0	0	508	508	0	0	
3	0	0	0	0	507	511	0	0	
4	0	0	0	0	508	511	0	0	
5	0	0	0	0	506	510	0	0	
6	0	0	0	0	505	510	0	0	
7	0	0	0	0	503	508	0	0	
8	0	0	0	0	504	511	0	0	
9	0	0	0	0	507	511	0	0	
10	0	0	0	0	510	512	0	0	
11	0	0	0	0	510	509	0	0	
12	0	0	0	0	509	509	0	0	
13	0	0	0	0	510	509	0	0	
14	0	0	0	0	512	510	0	0	
15	0	0	0	0	512	511	0	0	
0	0	0	0	0	512	510	0	0	
1	0	0	0	0	514	512	0	0	
2	0	0	0	0	514	512	0	0	
3	0	0	0	0	510	510	0	0	
4	0	0	0	0	510	512	0	0	
5	0	0	0	0	506	511	0	0	
6	0	0	0	0	507	512	0	0	
7	0	0	0	0	505	511	0	0	
8	0	0	0	0	502	511	0	0	
9	0	0	0	0	504	510	0	0	
10	0	0	0	0	507	511	0	0	
11	0	0	0	0	508	510	0	0	
12	0	0	0	0	506	511	0	0	
13	0	0	0	0	508	512	0	0	
14	0	0	0	0	508	512	0	0	
15	0	0	0	0	507	510	0	0	
0	0	0	0	0	509	509	0	0	
1	0	0	0	0	511	510	0	0	
2	0	0	0	0	511	510	0	0	
3	0	0	0	0	511	510	0	0	
4	0	0	0	0	513	509	0	0	
5	0	0	0	0	514	510	0	0	
6	0	0	0	0	511	511	0	0	
7	0	0	0	0	512	509	0	0	
8	0	0	0	0	507	510	0	0	
9	0	0	0	0	509	510	0	0	
10	0	0	0	0	507	513	0	0	
11	0	0	0	0	504	512	0	0	
12	0	0	0	0	503	512	0	0	
13	0	0	0	0	504	512	0	0	
14	0	0	0	0	505	510	0	0	
15	0	0	0	0	506	508	0	0	
0	0	0	0	0	508	510	0	0	
1	0	0	0	0	508	508	0	0	
2	0	0	0	0	507	509	0	0	
3	0	0	0	0	509	508	0	0	
4	0	0	0	0	511	511	0	0	
5	0	0	0	0	511	512	0	0	
6	0	0	0	0	508	512	0	0	
7	0	0	0	0	511	508	0	0	
8	0	0	0	0	515	508	0	0	
9	0	0	0	0	516	509	0	0	
10	0	0	0	0	512	512	0	0	
11	0	0	0	0	511	513	0	0	
12	0	0	0	0	509	512	0	0	
13	0	0	0	0	508	511	0	0	
14	0	0	0	0	506	511	0	0	
15	0	0	0	0	507	513	0	0	
0	0	0	0	0	505	511	0	0	
1	0	0	0	0	504	512	0	0	
2	0	0	0	0	505	509	0	0	
3	0	0	0	0	504	510	0	0	
4	0	0	0	0	507	510	0	0	
5	0	0	0	0	505	512	0	0	
6	0	0	0	0	505	511	0	0	
7	0	0	0	0	508	510	0	0	
8	0	0	0	0	508	509	0	0	
9	0	0	0	0	511	510	0	0	
10	0	0	0	0	514	509	0	0	
11	0	0	0	0	513	513	0	0	
12	0	0	0	0	513	513	0	0	
13	0	0	0	0	512	511	0	0	
14	0	0	0	0	510	510	0	0	
15	0	0	0	0	507	509	0	0	
0	0	0	0	0	511	510	0	0	
1	0	0	0	0	508	509	0	0	
2	0	0	0	0	509	510	0	0	
3	0	0	0	0	509	511	0	0	
4	0	0	0	0	508	511	0	0	
5	0	0	0	0	504	508	0	0	
6	0	0	0	0	505	510	0	0	
7	0	0	0	0	506	511	0	0	
8	0	0	0	0	505	509	0	0	
9	0	0	0	0	506	509	0	0	
10	0	0	0	0	505	510	0	0	
11	0	0	0	0	506	511	0	0	
12	0	0	0	0	510	510	0	0	
13	0	0	0	0	512	512	0	0	
14	0	0	0	0	510	512	0	0	
15	0	0	0	0	512	512	0	0	
0	0	0	0	0	515	512	0	0	
1	0	0	0	0	512	513	0	0	
2	0	0	0	0	511	512	0	0	
3	0	0	0	0	512	510	0	0	
4	0	0	0	0	510	511	0	0	
5	0	0	0	0	511	510	0	0	
6	0	0	0	0	505	509	0	0	
7	0	0	0	0	505	508	0	0	
8	0	0	0	0	506	510	0	0	
9	0	0	0	0	504	511	0	0	
10	0	0	0	0	502	509	0	0	
11	0	0	0	0	504	511	0	0	
12	0	0	0	0	505	511	0	0	
13	0	0	0	0	506	509	0	0	
14	0	0	0	0	508	509	0	0	
15	0	0	0	0	507	510	0	0	
0	0	0	0	0	509	510	0	0	
1	0	0	0	0	513	508	0	0	
2	0	0	0	0	515	511	0	0	
3	0	0	0	0	513	511	0	0	
4	0	0	0	0	514	510	0	0	
5	0	0	0	0	511	511	0	0	
6	0	0	0	0	513	511	0	0	
7	0	0	0	0	511	513	0	0	
8	0	0	0	0	510	513	0	0	
9	0	0	0	0	509	512	0	0	
10	0	0	0	0	508	513	0	0	
11	0	0	0	0	504	511	0	0	
12	0	0	0	0	505	509	0	0	
13	0	0	0	0	506	512	0	0	
14	0	0	0	0	504	510	0	0	
15	0	0	0	0	505	509	0	0	
0	0	0	0	0	504	511	0	0	
1	0	0	0	0	507	510	0	0	
2	0	0	0	0	508	510	0	0	
3	0	0	0	0	507	511	0	0	
4	0	0	0	0	509	510	0	0	
5	0	0	0	0	511	510	0	0	
6	0	0	0	0	510	510	0	0	
7	0	0	0	0	512	510	0	0	
8	0	0	0	0	515	510	0	0	
9	0	0	0	0	511	511	0	0	
10	0	0	0	0	511	512	0	0	
11	0	0	0	0	510	510	0	0	
12	0	0	0	0	509	511	0	0	
13	0	0	0	0	511	512	0	0	
14	0	0	0	0	508	509	0	0	
15	0	0	0	0	504	510	0	0	
0	0	0	0	0	503	510	0	0	
1	0	0	0	0	504	511	0	0	
2	0	0	0	0	505	510	0	0	
3	0	0	0	0	505	510	0	0	
4	0	0	0	0	505	510	0	0	
5	0	0	0	0	505	510	0	0	
6	0	0	0	0	507	511	0	0	
7	0	0	0	0	508	511	0	0	
8	0	0	0	0	512	511	0	0	
9	0	0	0	0	512	512	0	0	
10	0	0	0	0	514	512	0	0	
11	0	0	0	0	513	510	0	0	
12	0	0	0	0	512	511	0	0	
13	0	0	0	0	514	510	0	0	
14	0	0	0	0	510	511	0	0	
15	0	0	0	0	510	512	0	0	
0	0	0	0	0	510	509	0	0	
1	0	0	0	0	509	512	0	0	
2	0	0	0	0	507	510	0	0	
3	0	0	0	0	505	512	0	0	
4	0	0	0	0	507	510	0	0	
5	0	0	0	0	505	508	0	0	
6	0	0	0	0	504	510	0	0	
7	0	0	0	0	505	510	0	0	
8	0	0	0	0	507	511	0	0	
9	0	0	0	0	507	512	0	0	
10	0	0	0	0	507	505	0	0	
11	0	0	0	0	507	509	0	0	
12	0	0	0	0	509	512	0	0	
13	0	0	0	0	512	509	0	0	
14	0	0	0	0	511	511	0	0	
15	0	0	0	0	513	512	0	0	
0	0	0	0	0	515	511	0	0	
1	0	0	0	0	514	510	0	0	
2	0	0	0	0	509	509	0	0	
3	0	0	0	0	509	511	0	0	
4	0	0	0	0	510	512	0	0	
5	0	0	0	0	511	512	0	0	
6	0	0	0	0	506	512	0	0	
7	0	0	0	0	505	511	0	0	
8	0	0	0	0	505	511	0	0	
9	0	0	0	0	504	511	0	0	
10	0	0	0	0	505	511	0	0	
11	0	0	0	0	505	511	0	0	
12	0	0	0	0	507	511	0	0	
13	0	0	0	0	507	510	0	0	
14	0	0	0	0	507	508	0	0	
15	0	0	0	0	507	508	0	0	
0	0	0	0	0	509	510	0	0	
1	0	0	0	0	513	510	0	0	
2	0	0	0	0	511	508	0	0	
3	0	0	0	0	514	510	0	0	
4	0	0	0	0	514	509	0	0	
5	0	0	0	0	512	512	0	0	
6	0	0	0	0	509	511	0	0	
7	0	0	0	0	511	511	0	0	
8	0	0	0	0	512	510	0	0	
9	0	0	0	0	509	512	0	0	
10	0	0	0	0	506	513	0	0	
11	0	0	0	0	506	511	0	0	
12	0	0	0	0	504	509	0	0	
13	0	0	0	0	503	509	0	0	
14	0	0	0	0	506	512	0	0	
15	0	0	0	0	508	511	0	0	
0	0	0	0	0	505	511	0	0	
1	0	0	0	0	506	511	0	0	
2	0	0	0	0	508	509	0	0	
3	0	0	0	0	508	511	0	0	
4	0	0	0	0	507	511	0	0	
5	0	0	0	0	511	512	0	0	
6	0	0	0	0	511	512	0	0	
7	0	0	0	0	511	511	0	0	
8	0	0	0	0	513	509	0	0	
9	0	0	0	0	514	509	0	0	
10	0	0	0	0	513	511	0	0	
11	0	0	0	0	510	510	0	0	
12	0	0	0	0	507	511	0	0	
13	0	0	0	0	509	509	0	0	
14	0	0	0	0	507	511	0	0	
15	0	0	0	0	506	511	0	0	
0	0	0	0	0	504	511	0	0	
1	0	0	0	0	505	511	0	0	
2	0	0	0	0	505	509	0	0	
3	0	0	0	0	505	510	0	0	
4	0	0	0	0	504	508	0	0	
5	0	0	0	0	508	509	0	0	
6	0	0	0	0	507	508	0	0	
7	0	0	0	0	508	510	0	0	
8	0	0	0	0	512	513	0	0	
9	0	0	0	0	515	510	0	0	
10	0	0	0	0	509	510	0	0	
11	0	0	0	0	512	512	0	0	
12	0	0	0	0	514	509	0	0	
13	0	0	0	0	511	509	0	0	
14	0	0	0	0	511	511	0	0	
15	0	0	0	0	511	510	0	0	
0	0	0	0	0	508	510	0	0	
1	0	0	0	0	507	511	0	0	
2	0	0	0	0	508	508	0	0	
3	0	0	0	0	505	511	0	0	
4	0	0	0	0	506	510	0	0	
5	0	0	0	0	508	511	0	0	
6	0	0	0	0	503	511	0	0	
7	0	0	0	0	504	508	0	0	
8	0	0	0	0	504	513	0	0	
9	0	0	0	0	504	511	0	0	
10	0	0	0	0	508	512	0	0	
11	0	0	0	0	510	509	0	0	
12	0	0	0	0	511	511	0	0	
13	0	0	0	0	511	511	0	0	
14	0	0	0	0	513	510	0	0	
15	0	0	0	0	512	510	0	0	
0	0	0	0	0	513	508	0	0	
1	0	0	0	0	513	511	0	0	
2	0	0	0	0	511	512	0	0	
3	0	0	0	0	509	514	0	0	
4	0	0	0	0	508	511	0	0	
5	0	0	0	0	510	511	0	0	
6	0	0	0	0	509	512	0	0	
7	0	0	0	0	505	511	0	0	
8	0	0	0	0	503	509	0	0	
9	0	0	0	0	503	509	0	0	
10	0	0	0	0	503	508	0	0	
11	0	0	0	0	505	511	0	0	
12	0	0	0	0	508	510	0	0	
13	0	0	0	0	508	508	0	0	
14	0	0	0	0	508	511	0	0	
15	0	0	0	0	508	511	0	0	
0	0	0	0	0	510	510	0	0	
1	0	0	0	0	512	514	0	0	
2	0	0	0	0	513	512	0	0	
3	0	0	0	0	513	513	0	0	
4	0	0	0	0	510	509	0	0	
5	0	0	0	0	513	513	0	0	
6	0	0	0	0	512	511	0	0	
7	0	0	0	0	511	511	0	0	
8	0	0	0	0	508	511	0	0	
9	0	0	0	0	508	512	0	0	
10	0	0	0	0	507	511	0	0	
11	0	0	0	0	508	511	0	0	
12	0	0	0	0	508	510	0	0	
13	0	0	0	0	506	510	0	0	
14	0	0	0	0	505	509	0	0	
15	0	0	0	0	506	510	0	0	
0	0	0	0	0	505	508	0	0	
1	0	0	0	0	506	509	0	0	
2	0	0	0	0	508	511	0	0	
3	0	0	0	0	507	511	0	0	
4	0	0	0	0	508	511	0	0	
5	0	0	0	0	508	510	0	0	
6	0	0	0	0	509	512	0	0	
7	0	0	0	0	513	510	0	0	
8	0	0	0	0	516	513	0	0	
9	0	0	0	0	512	512	0	0	
10	0	0	0	0	512	512	0	0	
11	0	0	0	0	510	510	0	0	
12	0	0	0	0	510	512	0	0	
13	0	0	0	0	508	510	0	0	
14	0	0	0	0	508	509	0	0	
15	0	0	0	0	505	508	0	0	
0	0	0	0	0	504	513	0	0	
1	0	0	0	0	504	509	0	0	
2	0	0	0	0	507	510	0	0	
3	0	0	0	0	503	510	0	0	
4	0	0	0	0	505	512	0	0	
5	0	0	0	0	507	511	0	0	
6	0	0	0	0	508	510	0	0	
7	0	0	0	0	506	510	0	0	
8	0	0	0	0	510	511	0	0	
9	0	0	0	0	512	511	0	0	
10	0	0	0	0	515	509	0	0	
11	0	0	0	0	514	511	0	0	
12	0	0	0	0	513	510	0	0	
13	0	0	0	0	514	512	0	0	
14	0	0	0	0	514	513	0	0	
15	0	0	0	0	511	510	0	0	
0	0	0	0	0	510	511	0	0	
1	0	0	0	0	508	510	0	0	
2	0	0	0	0	506	510	0	0	
3	0	0	0	0	504	510	0	0	
4	0	0	0	0	504	511	0	0	
5	0	0	0	0	502	509	0	0	
6	0	0	0	0	505	509	0	0	
7	0	0	0	0	507	510	0	0	
8	0	0	0	0	503	506	0	0	
9	0	0	0	0	505	508	0	0	
10	0	0	0	0	507	511	0	0	
11	0	0	0	0	510	511	0	0	
12	0	0	0	0	511	511	0	0	
13	0	0	0	0	511	513	0	0	
14	0	0	0	0	513	510	0	0	
15	0	0	0	0	514	510	0	0	
0	0	0	0	0	513	512	0	0	
1	0	0	0	0	509	511	0	0	
2	0	0	0	0	511	512	0	0	
3	0	0	0	0	510	510	0	0	
4	0	0	0	0	509	509	0	0	
5	0	0	0	0	508	511	0	0	
6	0	0	0	0	506	510	0	0	
7	0	0	0	0	507	511	0	0	
8	0	0	0	0	504	512	0	0	
9	0	0	0	0	504	513	0	0	
10	0	0	0	0	504	511	0	0	
11	0	0	0	0	505	508	0	0	
12	0	0	0	0	506	510	0	0	
13	0	0	0	0	508	509	0	0	
14	0	0	0	0	509	510	0	0	
15	0	0	0	0	508	511	0	0	
0	0	0	0	0	511	510	0	0	
1	0	0	0	0	509	510	0	0	
2	0	0	0	0	510	510	0	0	
3	0	0	0	0	512	512	0	0	
4	0	0	0	0	514	513	0	0	
5	0	0	0	0	513	512	0	0	
6	0	0	0	0	511	512	0	0	
7	0	0	0	0	510	511	0	0	
8	0	0	0	0	511	509	0	0	
9	0	0	0	0	508	511	0	0	
10	0	0	0	0	507	511	0	0	
11	0	0	0	0	506	509	0	0	
12	0	0	0	0	505	508	0	0	
13	0	0	0	0	507	510	0	0	
14	0	0	0	0	505	510	0	0	
15	0	0	0	0	504	511	0	0	
0	0	0	0	0	502	509	0	0	
1	0	0	0	0	505	511	0	0	
2	0	0	0	0	508	510	0	0	
3	0	0	0	0	509	511	0	0	
4	0	0	0	0	509	510	0	0	
5	0	0	0	0	509	511	0	0	
6	0	0	0	0	512	510	0	0	
7	0	0	0	0	513	512	0	0	
8	0	0	0	0	513	511	0	0	
9	0	0	0	0	512	512	0	0	
10	0	0	0	0	513	511	0	0	
11	0	0	0	0	511	509	0	0	
12	0	0	0	0	511	511	0	0	
13	0	0	0	0	508	512	0	0	
14	0	0	0	0	506	510	0	0	
15	0	0	0	0	505	511	0	0	
0	0	0	0	0	506	511	0	0	
1	0	0	0	0	502	511	0	0	
2	0	0	0	0	506	508	0	0	
3	0	0	0	0	504	508	0	0	
4	0	0	0	0	504	509	0	0	
5	0	0	0	0	505	510	0	0	
6	0	0	0	0	508	510	0	0	
7	0	0	0	0	508	509	0	0	
8	0	0	0	0	512	513	0	0	
9	0	0	0	0	511	510	0	0	
10	0	0	0	0	510	510	0	0	
11	0	0	0	0	512	511	0	0	
12	0	0	0	0	513	510	0	0	
13	0	0	0	0	513	510	0	0	
14	0	0	0	0	515	512	0	0	
15	0	0	0	0	512	512	0	0	
0	0	0	0	0	511	511	0	0	
1	0	0	0	0	508	511	0	0	
2	0	0	0	0	505	508	0	0	
3	0	0	0	0	506	510	0	0	
4	0	0	0	0	506	511	0	0	
5	0	0	0	0	506	511	0	0	
6	0	0	0	0	502	511	0	0	
7	0	0	0	0	503	510	0	0	
8	0	0	0	0	504	510	0	0	
9	0	0	0	0	507	512	0	0	
10	0	0	0	0	506	512	0	0	
11	0	0	0	0	510	511	0	0	
12	0	0	0	0	511	511	0	0	
13	0	0	0	0	512	510	0	0	
14	0	0	0	0	511	510	0	0	
15	0	0	0	0	513	511	0	0	
0	0	0	0	0	513	510	0	0	
1	0	0	0	0	513	511	0	0	
2	0	0	0	0	511	512	0	0	
3	0	0	0	0	510	511	0	0	
4	0	0	0	0	508	511	0	0	
5	0	0	0	0	510	511	0	0	
6	0	0	0	0	508	513	0	0	
7	0	0	0	0	507	510	0	0	
8	0	0	0	0	507	509	0	0	
9	0	0	0	0	505	510	0	0	
10	0	0	0	0	502	509	0	0	
11	0	0	0	0	504	509	0	0	
12	0	0	0	0	504	508	0	0	
13	0	0	0	0	504	510	0	0	
14	0	0	0	0	506	512	0	0	
15	0	0	0	0	509	509	0	0	
0	0	0	0	0	511	509	0	0	
1	0	0	0	0	514	510	0	0	
2	0	0	0	0	514	510	0	0	
3	0	0	0	0	513	511	0	0	
4	0	0	0	0	512	508	0	0	
5	0	0	0	0	514	511	0	0	
6	0	0	0	0	512	511	0	0	
7	0	0	0	0	509	510	0	0	
8	0	0	0	0	510	510	0	0	
9	0	0	0	0	509	512	0	0	
10	0	0	0	0	509	509	0	0	
11	0	0	0	0	505	511	0	0	
12	0	0	0	0	505	509	0	0	
13	0	0	0	0	502	510	0	0	
14	0	0	0	0	504	510	0	0	
15	0	0	0	0	505	511	0	0	
0	0	0	0	0	506	510	0	0	
1	0	0	0	0	508	508	0	0	
2	0	0	0	0	507	510	0	0	
3	0	0	0	0	508	510	0	0	
4	0	0	0	0	508	512	0	0	
5	0	0	0	0	512	511	0	0	
6	0	0	0	0	513	510	0	0	
7	0	0	0	0	512	510	0	0	
8	0	0	0	0	511	509	0	0	
9	0	0	0	0	512	511	0	0	
10	0	0	0	0	511	510	0	0	
11	0	0	0	0	507	510	0	0	
12	0	0	0	0	511	514	0	0	
13	0	0	0	0	511	511	0	0	
14	0	0	0	0	509	510	0	0	
15	0	0	0	0	507	511	0	0	
0	0	0	0	0	501	511	0	0	
1	0	0	0	0	502	510	0	0	
2	0	0	0	0	506	512	0	0	
3	0	0	0	0	503	510	0	0	
4	0	0	0	0	506	509	0	0	
5	0	0	0	0	509	510	0	0	
6	0	0	0	0	509	510	0	0	
7	0	0	0	0	506	511	0	0	
8	0	0	0	0	508	510	0	0	
9	0	0	0	0	512	511	0	0	
10	0	0	0	0	513	511	0	0	
11	0	0	0	0	514	510	0	0	
12	0	0	0	0	514	511	0	0	
13	0	0	0	0	514	511	0	0	
14	0	0	0	0	511	511	0	0	
15	0	0	0	0	511	509	0	0	
0	0	0	0	0	510	512	0	0	
1	0	0	0	0	508	510	0	0	
2	0	0	0	0	508	511	0	0	
3	0	0	0	0	505	511	0	0	
4	0	0	0	0	504	509	0	0	
5	0	0	0	0	504	511	0	0	
6	0	0	0	0	502	508	0	0	
7	0	0	0	0	502	511	0	0	
8	0	0	0	0	505	511	0	0	
9	0	0	0	0	507	511	0	0	
10	0	0	0	0	505	510	0	0	
11	0	0	0	0	510	510	0	0	
12	0	0	0	0	511	510	0	0	
13	0	0	0	0	511	511	0	0	
14	0	0	0	0	512	508	0	0	
15	0	0	0	0	510	511	0	0	
0	0	0	0	0	512	511	0	0	
1	0	0	0	0	512	511	0	0	
2	0	0	0	0	512	513	0	0	
3	0	0	0	0	512	512	0	0	
4	0	0	0	0	508	511	0	0	
5	0	0	0	0	510	510	0	0	
6	0	0	0	0	507	511	0	0	
7	0	0	0	0	506	511	0	0	
8	0	0	0	0	507	512	0	0	
9	0	0	0	0	505	510	0	0	
10	0	0	0	0	506	508	0	0	
11	0	0	0	0	505	506	0	0	
12	0	0	0	0	504	509	0	0	
13	0	0	0	0	507	510	0	0	
14	0	0	0	0	507	511	0	0	
15	0	0	0	0	507	510	0	0	
0	0	0	0	0	511	510	0	0	
1	0	0	0	0	512	511	0	0	
2	0	0	0	0	513	510	0	0	
3	0	0	0	0	515	512	0	0	
4	0	0	0	0	513	510	0	0	
5	0	0	0	0	513	510	0	0	
6	0	0	0	0	511	510	0	0	
7	0	0	0	0	510	512	0	0	
8	0	0	0	0	509	511	0	0	
9	0	0	0	0	508	512	0	0	
10	0	0	0	0	508	510	0	0	
11	0	0	0	0	504	510	0	0	
12	0	0	0	0	505	509	0	0	
13	0	0	0	0	504	509	0	0	
14	0	0	0	0	504	511	0	0	
15	0	0	0	0	505	510	0	0	
0	0	0	0	0	508	514	0	0	
1	0	0	0	0	505	510	0	0	
2	0	0	0	0	508	511	0	0	
3	0	0	0	0	508	510	0	0	
4	0	0	0	0	511	512	0	0	
5	0	0	0	0	510	512	0	0	
6	0	0	0	0	512	512	0	0	
7	0	0	0	0	516	511	0	0	
8	0	0	0	0	513	510	0	0	
9	0	0	0	0	512	511	0	0	
10	0	0	0	0	514	510	0	0	
11	0	0	0	0	511	511	0	0	
12	0	0	0	0	507	510	0	0	
13	0	0	0	0	505	509	0	0	
14	0	0	0	0	505	508	0	0	
15	0	0	0	0	504	510	0	0	
0	0	0	0	0	507	511	0	0	
1	0	0	0	0	507	511	0	0	
2	0	0	0	0	505	512	0	0	
3	0	0	0	0	505	511	0	0	
4	0	0	0	0	506	511	0	0	
5	0	0	0	0	506	510	0	0	
6	0	0	0	0	508	509	0	0	
7	0	0	0	0	509	510	0	0	
8	0	0	0	0	508	510	0	0	
9	0	0	0	0	510	508	0	0	
10	0	0	0	0	511	510	0	0	
11	0	0	0	0	512	512	0	0	
12	0	0	0	0	515	512	0	0	
13	0	0	0	0	518	511	0	0	
14	0	0	0	0	511	510	0	0	
15	0	0	0	0	506	512	0	0	
0	0	0	0	0	504	512	0	0	
1	0	0	0	0	509	510	0	0	
2	0	0	0	0	509	511	0	0	
3	0	0	0	0	506	510	0	0	
4	0	0	0	0	507	510	0	0	
5	0	0	0	0	504	510	0	0	
6	0	0	0	0	506	509	0	0	
7	0	0	0	0	505	510	0	0	
8	0	0	0	0	505	512	0	0	
9	0	0	0	0	505	510	0	0	
10	0	0	0	0	508	509	0	0	
11	0	0	0	0	508	510	0	0	
12	0	0	0	0	511	508	0	0	
13	0	0	0	0	510	511	0	0	
14	0	0	0	0	512	510	0	0	
15	0	0	0	0	514	512	0	0	
0	0	0	0	0	510	512	0	0	
1	0	0	0	0	511	509	0	0	
2	0	0	0	0	514	510	0	0	
3	0	0	0	0	512	510	0	0	
4	0	0	0	0	510	511	0	0	
5	0	0	0	0	507	509	0	0	
6	0	0	0	0	507	510	0	0	
7	0	0	0	0	505	508	0	0	
8	0	0	0	0	506	508	0	0	
9	0	0	0	0	503	511	0	0	
10	0	0	0	0	505	512	0	0	
11	0	0	0	0	507	511	0	0	
12	0	0	0	0	507	510	0	0	
13	0	0	0	0	504	510	0	0	
14	0	0	0	0	507	511	0	0	
15	0	0	0	0	510	511	0	0	
0	0	0	0	0	513	510	0	0	
1	0	0	0	0	511	511	0	0	
2	0	0	0	0	511	511	0	0	
3	0	0	0	0	511	512	0	0	
4	0	0	0	0	513	509	0	0	
5	0	0	0	0	513	510	0	0	
6	0	0	0	0	510	512	0	0	
7	0	0	0	0	511	511	0	0	
8	0	0	0	0	508	510	0	0	
9	0	0	0	0	506	511	0	0	
10	0	0	0	0	508	510	0	0	
11	0	0	0	0	506	512	0	0	
12	0	0	0	0	507	511	0	0	
13	0	0	0	0	506	511	0	0	
14	0	0	0	0	507	509	0	0	
15	0	0	0	0	506	509	0	0	
0	0	0	0	0	503	509	0	0	
1	0	0	0	0	505	512	0	0	
2	0	0	0	0	506	510	0	0	
3	0	0	0	0	509	512	0	0	
4	0	0	0	0	509	510	0	0	
5	0	0	0	0	511	512	0	0	
6	0	0	0	0	511	510	0	0	
7	0	0	0	0	512	511	0	0	
8	0	0	0	0	512	510	0	0	
9	0	0	0	0	514	511	0	0	
10	0	0	0	0	511	510	0	0	
11	0	0	0	0	510	511	0	0	
12	0	0	0	0	509	510	0	0	
13	0	0	0	0	512	510	0	0	
14	0	0	0	0	508	510	0	0	
15	0	0	0	0	505	511	0	0	
0	0	0	0	0	505	510	0	0	
1	0	0	0	0	504	512	0	0	
2	0	0	0	0	505	510	0	0	
3	0	0	0	0	503	510	0	0	
4	0	0	0	0	506	510	0	0	
5	0	0	0	0	506	512	0	0	
6	0	0	0	0	506	510	0	0	
7	0	0	0	0	508	508	0	0	
8	0	0	0	0	509	510	0	0	
9	0	0	0	0	511	509	0	0	
10	0	0	0	0	512	511	0	0	
11	0	0	0	0	515	510	0	0	
12	0	0	0	0	516	512	0	0	
13	0	0	0	0	515	511	0	0	
14	0	0	0	0	511	509	0	0	
15	0	0	0	0	511	509	0	0	
0	0	0	0	0	508	511	0	0	
1	0	0	0	0	508	511	0	0	
2	0	0	0	0	509	512	0	0	
3	0	0	0	0	508	511	0	0	
4	0	0	0	0	504	510	0	0	
5	0	0	0	0	506	510	0	0	
6	0	0	0	0	503	509	0	0	
7	0	0	0	0	506	510	0	0	
8	0	0	0	0	505	511	0	0	
9	0	0	0	0	507	511	0	0	
10	0	0	0	0	510	510	0	0	
11	0	0	0	0	508	510	0	0	
12	0	0	0	0	511	510	0	0	
13	0	0	0	0	509	510	0	0	
14	0	0	0	0	508	511	0	0	
15	0	0	0	0	510	513	0	0	
0	0	0	0	0	510	511	0	0	
1	0	0	0	0	510	510	0	0	
2	0	0	0	0	512	512	0	0	
3	0	0	0	0	512	508	0	0	
4	0	0	0	0	512	512	0	0	
5	0	0	0	0	511	511	0	0	
6	0	0	0	0	510	509	0	0	
7	0	0	0	0	508	512	0	0	
8	0	0	0	0	504	510	0	0	
9	0	0	0	0	505	510	0	0	
10	0	0	0	0	504	509	0	0	
11	0	0	0	0	504	511	0	0	
12	0	0	0	0	507	513	0	0	
13	0	0	0	0	505	511	0	0	
14	0	0	0	0	508	509	0	0	
15	0	0	0	0	510	512	0	0	
0	0	0	0	0	513	512	0	0	
1	0	0	0	0	511	513	0	0	
2	0	0	0	0	517	509	0	0	
3	0	0	0	0	516	511	0	0	
4	0	0	0	0	506	510	0	0	
5	0	0	0	0	503	509	0	0	
6	0	0	0	0	510	513	0	0	
7	0	0	0	0	509	510	0	0	
8	0	0	0	0	501	508	0	0	
9	0	0	0	0	502	509	0	0	
10	0	0	0	0	511	511	0	0	
11	0	0	0	0	510	511	0	0	
12	0	0	0	0	512	514	0	0	
13	0	0	0	0	513	512	0	0	
14	0	0	0	0	518	513	0	0	
15	0	0	0	0	517	513	0	0	
0	0	0	0	0	513	511	0	0	
1	0	0	0	0	508	510	0	0	
2	0	0	0	0	496	509	0	0	
3	0	0	0	0	486	508	0	0	
4	0	0	0	0	493	507	0	0	
5	0	0	0	0	502	509	0	0	
6	0	0	0	0	510	509	0	0	
7	0	0	0	0	514	509	0	0	
8	0	0	0	0	515	513	0	0	
9	0	0	0	0	510	509	0	0	
10	0	0	0	0	512	510	0	0	
11	0	0	0	0	512	507	0	0	
12	0	0	0	0	514	507	0	0	
13	0	0	0	0	519	510	0	0	
14	0	0	0	0	513	512	0	0	
15	0	0	0	0	506	511	0	0	
0	0	0	0	0	506	511	0	0	
1	0	0	0	0	503	512	0	0	
2	0	0	0	0	502	511	0	0	
3	0	0	0	0	499	508	0	0	
4	0	0	0	0	503	509	0	0	
5	0	0	0	0	512	509	0	0	
6	0	0	0	0	515	511	0	0	
7	0	0	0	0	515	509	0	0	
8	0	0	0	0	513	509	0	0	
9	0	0	0	0	510	509	0	0	
10	0	0	0	0	509	512	0	0	
11	0	0	0	0	513	512	0	0	
12	0	0	0	0	512	514	0	0	
13	0	0	0	0	504	513	0	0	
14	0	0	0	0	505	509	0	0	
15	0	0	0	0	512	509	0	0	
0	0	0	0	0	517	511	0	0	
1	0	0	0	0	515	511	0	0	
2	0	0	0	0	512	510	0	0	
3	0	0	0	0	509	509	0	0	
4	0	0	0	0	511	512	0	0	
5	0	0	0	0	515	511	0	0	
6	0	0	0	0	508	512	0	0	
7	0	0	0	0	501	512	0	0	
8	0	0	0	0	496	508	0	0	
9	0	0	0	0	494	507	0	0	
10	0	0	0	0	509	515	0	0	
11	0	0	0	0	510	513	0	0	
12	0	0	0	0	518	514	0	0	
13	0	0	0	0	521	514	0	0	
14	0	0	0	0	523	512	0	0	
15	0	0	0	0	522	511	0	0	
0	0	0	0	0	486	507	0	0	
1	0	0	0	0	476	504	0	0	
2	0	0	0	0	488	506	0	0	
3	0	0	0	0	510	506	0	0	
4	0	0	0	0	516	507	0	0	
5	0	0	0	0	502	505	0	0	
6	0	0	0	0	488	505	0	0	
7	0	0	0	0	497	508	0	0	
8	0	0	0	0	513	513	0	0	
9	0	0	0	0	526	517	0	0	
10	0	0	0	0	515	513	0	0	
11	0	0	0	0	513	511	0	0	
12	0	0	0	0	510	512	0	0	
13	0	0	0	0	512	513	0	0	
14	0	0	0	0	510	516	0	0	
15	0	0	0	0	511	515	0	0	
0	0	0	0	0	515	513	0	0	
1	0	0	0	0	519	511	0	0	
2	0	0	0	0	520	511	0	0	
3	0	0	0	0	517	512	0	0	
4	0	0	0	0	518	511	0	0	
5	0	0	0	0	512	507	0	0	
6	0	0	0	0	515	516	0	0	
7	0	0	0	0	524	513	0	0	
8	0	0	0	0	522	508	0	0	
9	0	0	0	0	508	504	0	0	
10	0	0	0	0	504	502	0	0	
11	0	0	0	0	509	502	0	0	
12	0	0	0	0	521	507	0	0	
13	0	0	0	0	507	512	0	0	
14	0	0	0	0	479	513	0	0	
15	0	0	0	0	468	513	0	0	
0	0	0	0	0	485	510	0	0	
1	0	0	0	0	488	507	0	0	
2	0	0	0	0	484	507	0	0	
3	0	0	0	0	497	513	0	0	
4	0	0	0	0	510	517	0	0	
5	0	0	0	0	528	518	0	0	
6	0	0	0	0	516	511	0	0	
7	0	0	0	0	516	514	0	0	
8	0	0	0	0	527	519	0	0	
9	0	0	0	0	515	514	27	0	
10	0	0	0	0	519	511	32	0	
11	0	0	0	0	525	509	36	0	
12	0	0	0	0	502	503	36	0	
13	0	0	0	0	504	505	42	0	
14	0	0	0	0	509	508	42	0	
15	0	0	0	0	510	508	42	0	
0	0	0	0	0	505	511	44	0	
1	0	0	0	0	512	513	48	0	
2	0	0	0	0	505	509	51	0	
3	0	0	0	0	505	502	52	0	
4	0	0	0	0	502	499	56	0	
5	0	0	0	0	504	499	59	0	
6	0	0	0	0	511	507	60	0	
7	0	0	0	0	512	512	68	0	
8	0	0	0	0	525	520	67	0	
9	0	0	0	0	527	521	70	0	
10	0	0	0	0	506	513	74	0	
11	0	0	0	0	507	521	74	0	
12	0	0	0	0	509	521	75	0	
13	0	0	0	0	519	518	74	0	
14	0	0	0	0	522	514	72	0	
15	0	0	0	0	511	516	74	0	
0	0	0	0	0	507	508	75	0	
1	0	0	0	0	512	501	73	0	
2	0	0	0	0	527	503	74	0	
3	0	0	0	0	506	503	72	0	
4	0	0	0	0	472	505	71	0	
5	0	0	0	0	461	510	70	0	
6	0	0	0	0	483	517	70	0	
7	0	0	0	0	509	507	74	0	
8	0	0	0	0	521	488	77	0	
9	0	0	0	0	502	478	81	0	
10	0	0	0	0	500	494	82	0	
11	0	0	0	0	498	510	81	0	
12	0	0	0	0	502	537	86	0	
13	0	0	0	0	503	542	85	0	
14	0	0	0	0	523	532	86	0	
15	0	0	0	0	534	518	91	0	
0	0	0	0	0	512	521	95	0	
1	0	0	0	0	487	520	96	0	
2	0	0	0	0	522	521	97	0	
3	0	0	0	0	555	518	100	0	
4	0	0	0	0	555	506	105	0	
5	0	0	0	0	545	515	109	0	
6	0	0	0	0	528	503	116	0	
7	0	0	0	0	517	506	119	0	
8	0	0	0	0	486	494	126	0	
9	0	0	0	0	447	485	135	0	
10	0	0	0	0	453	496	139	0	
11	0	0	0	0	463	484	143	0	
12	0	0	0	0	507	512	152	0	
13	0	0	0	0	526	526	158	0	
14	0	0	0	0	519	528	157	0	
15	0	0	0	0	503	535	165	0	
0	0	0	0	0	519	509	170	0	
1	0	0	0	0	521	474	171	0	
2	0	0	0	0	511	493	171	0	
3	0	0	0	0	512	522	176	0	
4	0	0	0	0	498	506	182	0	
5	0	0	0	0	532	487	184	0	
6	0	0	0	0	525	517	188	0	
7	0	0	0	0	517	530	185	0	
8	0	0	0	0	523	551	187	0	
9	0	0	0	0	526	572	188	0	
10	0	0	0	0	513	539	189	0	
11	0	0	0	0	491	498	188	0	
12	0	0	0	0	474	483	190	0	
13	0	0	0	0	504	491	189	0	
14	0	0	0	0	507	490	191	0	
15	0	0	0	0	484	495	193	0	
0	0	0	0	0	481	488	199	0	
1	0	0	0	0	510	507	202	0	
2	0	0	0	0	529	536	202	0	
3	0	0	0	0	527	539	210	0	
4	0	0	0	0	540	514	207	0	
5	0	0	0	0	516	482	209	0	
6	0	0	0	0	491	482	209	0	
7	0	0	0	0	462	498	209	0	
8	0	0	0	0	484	495	214	0	
9	0	0	0	0	496	535	213	0	
10	0	0	0	0	511	515	226	0	
11	0	0	0	0	519	492	222	0	
12	0	0	0	0	524	511	223	0	
13	0	0	0	0	527	561	225	0	
14	0	0	0	0	519	592	224	0	
15	0	0	0	0	504	540	233	0	
0	0	0	0	0	515	493	230	0	
1	0	0	0	0	520	486	231	0	
2	0	0	0	0	531	484	234	0	
3	0	0	0	0	536	483	239	0	
4	0	0	0	0	522	476	238	0	
5	0	0	0	0	508	466	239	0	
6	0	0	0	0	519	485	238	0	
7	0	0	0	0	497	535	245	0	
8	0	0	0	0	503	526	248	0	
9	0	0	0	0	529	511	252	0	
10	0	0	0	0	491	521	252	0	
11	0	0	0	0	445	496	256	0	
12	0	0	0	0	469	471	261	0	
13	0	0	0	0	528	503	263	0	
14	0	0	0	0	541	527	265	0	
15	0	0	0	0	523	520	264	0	
0	0	0	0	0	504	517	270	0	
1	0	0	0	0	495	524	267	0	
2	0	0	0	0	471	520	267	0	
3	0	0	0	0	491	496	266	0	
4	0	0	0	0	527	511	275	0	
5	0	0	0	0	518	522	273	0	
6	0	0	0	0	513	497	273	0	
7	0	0	0	0	483	487	275	0	
8	0	0	0	0	477	509	278	0	
9	0	0	0	0	503	542	277	0	
10	0	0	0	0	520	552	281	0	
11	0	0	0	0	532	540	277	0	
12	0	0	0	0	525	540	279	0	
13	0	0	0	0	515	537	279	0	
14	0	0	0	0	524	514	282	0	
15	0	0	0	0	539	482	283	0	
0	0	0	0	0	529	488	285	0	
1	0	0	0	0	521	529	290	0	
2	0	0	0	0	526	527	289	0	
3	0	0	0	0	525	515	289	0	
4	0	0	0	0	507	510	290	0	
5	0	0	0	0	483	499	291	0	
6	0	0	0	0	459	493	294	0	
7	0	0	0	0	460	512	300	0	
8	0	0	0	0	460	522	304	0	
9	0	0	0	0	478	499	307	0	
10	0	0	0	0	526	533	307	0	
11	0	0	0	0	543	532	307	0	
12	0	0	0	0	542	533	309	0	
13	0	0	0	0	536	558	311	0	
14	0	0	0	0	529	508	311	0	
15	0	0	0	0	534	466	312	0	
0	0	0	0	0	539	485	313	0	
1	0	0	0	0	547	467	314	0	
2	0	0	0	0	538	473	315	0	
3	0	0	0	0	530	488	315	0	
4	0	0	0	0	476	500	315	0	
5	0	0	0	0	413	488	316	0	
6	0	0	0	0	424	457	317	0	
7	0	0	0	0	483	497	317	0	
8	0	0	0	0	493	534	317	0	
9	0	0	0	0	484	533	317	0	
10	0	0	0	0	514	517	318	0	
11	0	0	0	0	540	532	319	0	
12	0	0	0	0	534	540	319	0	
13	0	0	0	0	534	531	320	0	
14	0	0	0	0	521	512	319	0	
15	0	0	0	0	513	496	319	0	
0	0	0	0	0	486	498	318	0	
1	0	0	0	0	481	505	318	0	
2	0	0	0	0	503	522	319	0	
3	0	0	0	0	523	532	316	0	
4	0	0	0	0	533	520	318	0	
5	0	0	0	0	531	494	320	0	
6	0	0	0	0	528	499	319	0	
7	0	0	0	0	536	495	318	0	
8	0	0	0	0	515	513	318	0	
9	0	0	0	0	494	531	320	0	
10	0	0	0	0	525	556	321	0	
11	0	0	0	0	545	554	322	0	
12	0	0	0	0	547	556	323	19	
13	0	0	0	0	500	527	322	15	
14	0	0	0	0	460	466	322	26	
15	0	0	0	0	474	458	322	25	
0	0	0	0	0	486	464	323	30	
1	0	0	0	0	492	479	323	28	
2	0	0	0	0	477	503	324	41	
3	0	0	0	0	472	517	325	45	
4	0	0	0	0	511	479	326	47	
5	0	0	0	0	512	475	326	51	
6	0	0	0	0	526	496	327	48	
7	0	0	0	0	520	524	327	50	
8	0	0	0	0	507	547	327	56	
9	0	0	0	0	500	579	329	58	
10	0	0	0	0	507	561	329	75	
11	0	0	0	0	511	535	328	85	
12	0	0	0	0	525	500	328	84	
13	0	0	0	0	510	471	328	90	
14	0	0	0	0	491	482	329	92	
15	0	0	0	0	504	503	328	96	
0	0	0	0	0	531	511	328	94	
1	0	0	0	0	513	521	328	92	
2	0	0	0	0	507	485	329	96	
3	0	0	0	0	525	467	330	96	
4	0	0	0	0	524	480	331	82	
5	0	0	0	0	503	487	330	99	
6	0	0	0	0	496	512	332	101	
7	0	0	0	0	495	536	332	89	
8	0	0	0	0	499	557	332	93	
9	0	0	0	0	508	546	333	99	
10	0	0	0	0	520	524	334	99	
11	0	0	0	0	502	526	335	95	
12	0	0	0	0	514	512	335	113	
13	0	0	0	0	527	512	336	116	
14	0	0	0	0	529	509	336	116	
15	0	0	0	0	517	516	338	120	
0	0	0	0	0	513	515	338	123	
1	0	0	0	0	509	521	339	120	
2	0	0	0	0	502	505	340	122	
3	0	0	0	0	510	495	340	121	
4	0	0	0	0	510	499	341	124	
5	0	0	0	0	515	507	342	128	
6	0	0	0	0	517	517	343	131	
7	0	0	0	0	492	506	344	127	
8	0	0	0	0	506	498	344	126	
9	0	0	0	0	494	484	345	124	
10	0	0	0	0	499	513	340	127	
11	0	0	0	0	500	534	339	129	
12	0	0	0	0	504	504	340	128	
13	0	0	0	0	485	523	340	127	
14	0	0	0	0	487	518	341	129	
15	0	0	0	0	518	515	340	130	
0	0	0	0	0	525	506	341	130	
1	0	0	0	0	533	499	342	134	
2	0	0	0	0	506	496	342	129	
3	0	0	0	0	486	505	341	119	
4	0	0	0	0	513	515	341	116	
5	0	0	0	0	515	523	342	120	
6	0	0	0	0	511	524	342	119	
7	0	0	0	0	498	512	342	119	
8	0	0	0	0	505	484	342	124	
9	0	0	0	0	512	493	341	126	
10	0	0	0	0	519	492	342	124	
11	0	0	0	0	526	522	342	127	
12	0	0	0	0	522	522	342	131	
13	0	0	0	0	528	522	343	137	
14	0	0	0	0	521	513	343	135	
15	0	0	0	0	506	502	342	138	
0	0	0	0	0	514	507	342	141	
1	0	0	0	0	501	513	341	143	
2	0	0	0	0	473	517	340	145	
3	0	0	0	0	470	507	341	151	
4	0	0	0	0	487	506	340	152	
5	0	0	0	0	520	518	340	155	
6	0	0	0	0	510	531	339	156	
7	0	0	0	0	472	517	339	158	
8	0	0	0	0	503	517	339	162	
9	0	0	0	0	524	526	338	163	
10	0	0	0	0	524	494	339	167	
11	0	0	0	0	521	487	339	166	
12	0	0	0	0	522	500	339	171	
13	0	0	0	0	518	532	338	165	
14	0	0	0	0	512	534	338	163	
15	0	0	0	0	516	520	337	164	
0	0	0	0	0	524	502	337	163	
1	0	0	0	0	512	511	337	163	
2	0	0	0	0	508	527	335	165	
3	0	0	0	0	491	510	336	160	
4	0	0	0	0	501	487	336	156	
5	0	0	0	0	509	472	335	157	
6	0	0	0	0	511	477	335	158	
7	0	0	0	0	526	500	336	155	
8	0	0	0	0	532	527	335	156	
9	0	0	0	0	524	516	337	157	
10	0	0	0	0	520	490	338	160	
11	0	0	0	0	512	499	337	160	
12	0	0	0	0	513	525	337	160	
13	0	0	0	0	486	524	338	159	
14	0	0	0	0	467	486	336	165	
15	0	0	0	0	508	522	337	166	
0	0	0	0	0	519	541	337	161	
1	0	0	0	0	501	512	337	165	
2	0	0	0	0	498	509	338	161	
3	0	0	0	0	475	511	337	159	
4	0	0	0	0	512	515	336	164	
5	0	0	0	0	527	515	336	165	
6	0	0	0	0	537	523	336	167	
7	0	0	0	0	504	508	337	165	
8	0	0	0	0	477	497	336	176	
9	0	0	0	0	452	513	335	179	
10	0	0	0	0	484	495	335	183	
11	0	0	0	0	495	502	337	183	
12	0	0	0	0	511	526	336	182	
13	0	0	0	0	529	527	337	181	
14	0	0	0	0	539	499	335	185	
15	0	0	0	0	538	501	335	186	
0	0	0	0	0	545	507	334	186	
1	0	0	0	0	532	503	335	184	
2	0	0	0	0	532	513	334	188	
3	0	0	0	0	512	531	335	189	
4	0	0	0	0	496	525	332	191	
5	0	0	0	0	487	519	332	195	
6	0	0	0	0	504	518	331	198	
7	0	0	0	0	522	502	330	199	
8	0	0	0	0	517	487	332	199	
9	0	0	0	0	519	500	332	198	
10	0	0	0	0	511	506	331	199	
11	0	0	0	0	531	514	330	199	
12	0	0	0	0	496	513	331	195	
13	0	0	0	0	480	529	330	200	
14	0	0	0	0	483	511	331	203	
15	0	0	0	0	463	508	331	204	
0	0	0	0	0	489	511	330	201	
1	0	0	0	0	528	522	332	201	
2	0	0	0	0	497	534	332	199	
3	0	0	0	0	499	527	332	199	
4	0	0	0	0	524	508	332	199	
5	0	0	0	0	519	490	332	201	
6	0	0	0	0	515	530	332	199	
7	0	0	0	0	516	518	330	198	
8	0	0	0	0	538	508	330	195	
9	0	0	0	0	531	491	330	196	
10	0	0	0	0	526	442	331	198	
11	0	0	0	0	467	442	331	194	
12	0	0	0	0	476	484	331	195	
13	0	0	0	0	458	519	330	197	
14	0	0	0	0	501	534	330	197	
15	0	0	0	0	520	513	330	193	
0	0	0	0	0	537	535	329	194	
1	0	0	0	0	549	544	328	192	
2	0	0	0	0	535	528	327	193	
3	0	0	0	0	515	513	327	192	
4	0	0	0	0	514	508	326	192	
5	0	0	0	0	491	472	328	193	
6	0	0	0	0	471	500	326	194	
7	0	0	0	0	500	520	325	197	
8	0	0	0	0	532	540	325	198	
9	0	0	0	0	529	542	324	199	
10	0	0	0	0	515	540	326	200	
11	0	0	0	0	508	496	325	202	
12	0	0	0	0	476	480	324	205	
13	0	0	0	0	487	480	323	204	
14	0	0	0	0	478	490	326	204	
15	0	0	0	0	522	543	327	204	
0	0	0	0	0	536	532	327	207	
1	0	0	0	0	536	514	328	206	
2	0	0	0	0	531	502	329	206	
3	0	0	0	0	519	499	329	213	
4	0	0	0	0	497	506	330	215	
5	0	0	0	0	478	519	330	217	
6	0	0	0	0	488	519	332	218	
7	0	0	0	0	494	512	333	216	
8	0	0	0	0	511	507	332	216	
9	0	0	0	0	517	522	334	216	
10	0	0	0	0	513	519	335	218	
11	0	0	0	0	518	531	336	216	
12	0	0	0	0	528	514	338	213	
13	0	0	0	0	521	481	336	216	
14	0	0	0	0	526	475	336	217	
15	0	0	0	0	530	508	336	219	
0	0	0	0	0	537	537	335	223	
1	0	0	0	0	541	530	335	222	
2	0	0	0	0	521	515	333	221	
3	0	0	0	0	499	525	334	221	
4	0	0	0	0	484	514	332	223	
5	0	0	0	0	468	508	331	223	
6	0	0	0	0	433	497	330	220	
7	0	0	0	0	458	505	331	219	
8	0	0	0	0	514	507	330	221	
9	0	0	0	0	547	496	331	223	
10	0	0	0	0	531	495	330	227	
11	0	0	0	0	487	495	330	226	
12	0	0	0	0	502	520	329	228	
13	0	0	0	0	512	504	329	231	
14	0	0	0	0	511	504	327	230	
15	0	0	0	0	535	504	328	231	
0	0	0	0	0	521	518	327	233	
1	0	0	0	0	499	529	328	233	
2	0	0	0	0	498	536	326	232	
3	0	0	0	0	482	543	326	230	
4	0	0	0	0	511	542	326	230	
5	0	0	0	0	504	513	325	232	
6	0	0	0	0	495	484	326	232	
7	0	0	0	0	509	474	325	231	
8	0	0	0	0	508	472	324	232	
9	0	0	0	0	508	485	326	235	
10	0	0	0	0	519	499	326	234	
11	0	0	0	0	545	508	326	237	
12	0	0	0	0	542	511	325	238	
13	0	0	0	0	521	509	326	241	
14	0	0	0	0	509	515	325	241	
15	0	0	0	0	529	534	325	242	
0	0	0	0	0	512	516	323	243	
1	0	0	0	0	474	512	325	241	
2	0	0	0	0	425	500	322	243	
3	0	0	0	0	474	471	324	241	
4	0	0	0	0	537	510	324	240	
5	0	0	0	0	554	535	321	239	
6	0	0	0	0	536	550	320	240	
7	0	0	0	0	497	527	319	239	
8	0	0	0	0	497	513	318	238	
9	0	0	0	0	508	509	319	238	
10	0	0	0	0	523	512	319	241	
11	0	0	0	0	510	499	316	241	
12	0	0	0	0	505	500	315	241	
13	0	0	0	0	515	516	313	243	
14	0	0	0	0	499	515	312	246	
15	0	0	0	0	497	515	310	244	
0	0	0	0	0	500	508	311	244	
1	0	0	0	0	512	513	310	246	
2	0	0	0	0	518	505	308	244	
3	0	0	0	0	525	508	307	243	
4	0	0	0	0	519	507	307	243	
5	0	0	0	0	509	496	306	244	
6	0	0	0	0	494	483	307	244	
7	0	0	0	0	500	501	305	246	
8	0	0	0	0	530	537	304	246	
9	0	0	0	0	529	535	305	244	
10	0	0	0	0	519	521	302	243	
11	0	0	0	0	522	505	300	245	
12	0	0	0	0	484	515	298	246	
13	0	0	0	0	498	520	299	246	
14	0	0	0	0	477	516	299	245	
15	0	0	0	0	471	512	298	247	
0	0	0	0	0	502	518	299	250	
1	0	0	0	0	514	504	298	252	
2	0	0	0	0	516	491	299	254	
3	0	0	0	0	526	483	299	255	
4	0	0	0	0	528	499	299	255	
5	0	0	0	0	523	517	297	255	
6	0	0	0	0	540	521	296	255	
7	0	0	0	0	525	513	296	253	
8	0	0	0	0	463	510	296	254	
9	0	0	0	0	478	519	295	256	
10	0	0	0	0	511	516	295	256	
11	0	0	0	0	514	519	295	256	
12	0	0	0	0	490	514	296	257	
13	0	0	0	0	478	512	295	259	
14	0	0	0	0	514	505	297	258	
15	0	0	0	0	526	518	296	260	
0	0	0	0	0	512	535	297	256	
1	0	0	0	0	515	538	297	258	
2	0	0	0	0	530	536	297	259	
3	0	0	0	0	521	518	297	255	
4	0	0	0	0	496	511	297	258	
5	0	0	0	0	483	473	297	258	
6	0	0	0	0	492	417	297	259	
7	0	0	0	0	510	416	296	260	
8	0	0	0	0	527	475	297	259	
9	0	0	0	0	521	507	296	262	
10	0	0	0	0	512	526	294	263	
11	0	0	0	0	518	600	295	264	
12	0	0	0	0	526	577	295	264	
13	0	0	0	0	535	540	295	263	
14	0	0	0	0	519	491	295	263	
15	0	0	0	0	480	459	292	264	
0	0	0	0	0	461	473	292	266	
1	0	0	0	0	487	508	291	266	
2	0	0	0	0	513	527	291	265	
3	0	0	0	0	505	538	291	266	
4	0	0	0	0	512	556	290	261	
5	0	0	0	0	531	523	292	258	
6	0	0	0	0	554	502	292	259	
7	0	0	0	0	547	487	292	258	
8	0	0	0	0	524	491	292	258	
9	0	0	0	0	506	509	293	257	
10	0	0	0	0	483	514	293	252	
11	0	0	0	0	459	519	292	254	
12	0	0	0	0	428	523	293	255	
13	0	0	0	0	464	508	293	254	
14	0	0	0	0	513	512	292	255	
15	0	0	0	0	536	509	292	253	
0	0	0	0	0	518	500	292	252	
1	0	0	0	0	515	503	293	248	
2	0	0	0	0	511	507	292	245	
3	0	0	0	0	520	513	292	248	
4	0	0	0	0	547	519	292	251	
5	0	0	0	0	521	516	292	251	
6	0	0	0	0	505	514	292	248	
7	0	0	0	0	512	513	293	245	
8	0	0	0	0	527	520	293	246	
9	0	0	0	0	494	525	293	249	
10	0	0	0	0	490	518	293	252	
11	0	0	0	0	518	516	293	249	
12	0	0	0	0	491	509	293	250	
13	0	0	0	0	483	505	292	251	
14	0	0	0	0	497	500	294	251	
15	0	0	0	0	533	516	293	252	
0	0	0	0	0	540	517	292	253	
1	0	0	0	0	534	497	293	254	
2	0	0	0	0	543	489	293	258	
3	0	0	0	0	547	493	293	254	
4	0	0	0	0	502	500	293	256	
5	0	0	0	0	482	515	293	257	
6	0	0	0	0	502	528	294	259	
7	0	0	0	0	494	515	295	260	
8	0	0	0	0	478	509	295	263	
9	0	0	0	0	446	490	295	263	
10	0	0	0	0	477	499	295	266	
11	0	0	0	0	519	524	295	265	
12	0	0	0	0	526	526	294	265	
13	0	0	0	0	559	515	295	266	
14	0	0	0	0	572	527	294	265	
15	0	0	0	0	529	519	295	268	
0	0	0	0	0	502	508	294	271	
1	0	0	0	0	522	504	294	268	
2	0	0	0	0	461	480	294	269	
3	0	0	0	0	427	507	292	267	
4	0	0	0	0	446	492	292	264	
5	0	0	0	0	457	509	291	265	
6	0	0	0	0	478	495	291	269	
7	0	0	0	0	518	511	289	264	
8	0	0	0	0	554	515	289	268	
9	0	0	0	0	545	518	289	269	
10	0	0	0	0	548	513	289	269	
11	0	0	0	0	554	527	289	270	
12	0	0	0	0	544	530	288	267	
13	0	0	0	0	537	543	288	267	
14	0	0	0	0	511	546	287	267	
15	0	0	0	0	484	523	286	267	
0	0	0	0	0	485	495	286	266	
1	0	0	0	0	502	484	286	268	
2	0	0	0	0	509	481	285	266	
3	0	0	0	0	505	487	285	270	
4	0	0	0	0	510	501	283	269	
5	0	0	0	0	513	529	283	261	
6	0	0	0	0	497	527	283	268	
7	0	0	0	0	505	505	282	263	
8	0	0	0	0	504	508	282	263	
9	0	0	0	0	506	512	282	261	
10	0	0	0	0	540	520	282	259	
11	0	0	0	0	549	519	282	257	
12	0	0	0	0	542	483	283	260	
13	0	0	0	0	524	485	282	263	
14	0	0	0	0	519	494	281	261	
15	0	0	0	0	468	505	282	261	
0	0	0	0	0	428	492	281	258	
1	0	0	0	0	450	501	281	256	
2	0	0	0	0	492	500	281	259	
3	0	0	0	0	511	513	280	258	
4	0	0	0	0	533	531	280	257	
5	0	0	0	0	534	542	281	257	
6	0	0	0	0	526	529	281	256	
7	0	0	0	0	521	511	282	256	
8	0	0	0	0	534	509	283	259	
9	0	0	0	0	545	520	283	263	
10	0	0	0	0	546	524	283	263	
11	0	0	0	0	537	529	283	265	
12	0	0	0	0	527	525	284	263	
13	0	0	0	0	483	508	284	263	
14	0	0	0	0	419	504	283	262	
15	0	0	0	0	455	497	283	260	
0	0	0	0	0	496	509	283	257	
1	0	0	0	0	522	516	283	259	
2	0	0	0	0	532	507	283	259	
3	0	0	0	0	460	492	284	260	
4	0	0	0	0	425	505	283	259	
5	0	0	0	0	456	509	283	264	
6	0	0	0	0	506	509	283	266	
7	0	0	0	0	534	494	282	265	
8	0	0	0	0	553	494	283	262	
9	0	0	0	0	557	509	282	264	
10	0	0	0	0	552	505	283	264	
11	0	0	0	0	529	500	283	265	
12	0	0	0	0	515	523	283	267	
13	0	0	0	0	526	537	283	267	
14	0	0	0	0	513	514	281	268	
15	0	0	0	0	514	519	281	270	
0	0	0	0	0	517	531	281	270	
1	0	0	0	0	493	513	281	270	
2	0	0	0	0	491	506	280	272	
3	0	0	0	0	514	503	280	272	
4	0	0	0	0	519	496	280	273	
5	0	0	0	0	517	501	278	272	
6	0	0	0	0	512	512	278	272	
7	0	0	0	0	520	515	278	273	
8	0	0	0	0	508	523	278	273	
9	0	0	0	0	502	525	277	269	
10	0	0	0	0	486	519	278	268	
11	0	0	0	0	512	514	279	268	
12	0	0	0	0	522	514	279	267	
13	0	0	0	0	526	502	278	268	
14	0	0	0	0	530	504	278	269	
15	0	0	0	0	495	501	279	267	
0	0	0	0	0	455	499	279	267	
1	0	0	0	0	433	495	279	268	
2	0	0	0	0	474	504	279	270	
3	0	0	0	0	521	524	279	270	
4	0	0	0	0	537	522	279	270	
5	0	0	0	0	553	523	279	270	
6	0	0	0	0	540	510	279	271	
7	0	0	0	0	501	504	280	271	
8	0	0	0	0	487	510	278	271	
9	0	0	0	0	483	513	280	272	
10	0	0	0	0	480	510	280	273	
11	0	0	0	0	506	512	280	277	
12	0	0	0	0	518	503	279	277	
13	0	0	0	0	524	512	279	278	
14	0	0	0	0	533	519	280	278	
15	0	0	0	0	528	516	280	279	
0	0	0	0	0	519	520	281	279	
1	0	0	0	0	510	536	280	278	
2	0	0	0	0	509	519	280	279	
3	0	0	0	0	509	516	281	279	
4	0	0	0	0	511	490	280	279	
5	0	0	0	0	508	473	281	279	
6	0	0	0	0	515	478	281	280	
7	0	0	0	0	531	484	281	280	
8	0	0	0	0	541	511	280	281	
9	0	0	0	0	514	517	280	279	
10	0	0	0	0	505	521	280	280	
11	0	0	0	0	505	527	280	279	
12	0	0	0	0	479	493	280	281	
13	0	0	0	0	456	491	280	279	
14	0	0	0	0	498	495	281	279	
15	0	0	0	0	500	523	282	280	
0	0	0	0	0	511	532	281	280	
1	0	0	0	0	513	514	283	281	
2	0	0	0	0	505	529	283	283	
3	0	0	0	0	509	519	283	281	
4	0	0	0	0	517	516	282	281	
5	0	0	0	0	516	520	283	283	
6	0	0	0	0	488	523	282	282	
7	0	0	0	0	502	534	284	282	
8	0	0	0	0	506	512	284	281	
9	0	0	0	0	506	488	284	282	
10	0	0	0	0	513	495	283	282	
11	0	0	0	0	507	501	284	281	
12	0	0	0	0	508	516	285	282	
13	0	0	0	0	523	526	285	279	
14	0	0	0	0	527	529	284	281	
15	0	0	0	0	516	534	285	280	
0	0	0	0	0	522	502	286	280	
1	0	0	0	0	530	487	286	279	
2	0	0	0	0	522	480	286	278	
3	0	0	0	0	519	502	286	280	
4	0	0	0	0	487	510	286	277	
5	0	0	0	0	453	505	287	279	
6	0	0	0	0	453	508	286	279	
7	0	0	0	0	497	505	286	278	
8	0	0	0	0	545	512	286	278	
9	0	0	0	0	568	510	285	280	
10	0	0	0	0	561	511	286	280	
11	0	0	0	0	518	523	285	279	
12	0	0	0	0	482	522	284	277	
13	0	0	0	0	418	525	284	278	
14	0	0	0	0	422	491	284	277	
15	0	0	0	0	499	484	285	276	
0	0	0	0	0	543	507	284	275	
1	0	0	0	0	545	519	282	276	
2	0	0	0	0	538	528	280	275	
3	0	0	0	0	522	526	282	275	
4	0	0	0	0	530	509	282	276	
5	0	0	0	0	529	496	281	275	
6	0	0	0	0	501	502	281	273	
7	0	0	0	0	504	509	281	273	
8	0	0	0	0	530	531	281	274	
9	0	0	0	0	537	516	281	268	
10	0	0	0	0	537	512	280	270	
11	0	0	0	0	537	515	279	270	
12	0	0	0	0	514	508	280	270	
13	0	0	0	0	466	514	281	271	
14	0	0	0	0	423	507	279	271	
15	0	0	0	0	442	510	279	271	
0	0	0	0	0	488	495	280	271	
1	0	0	0	0	502	494	279	267	
2	0	0	0	0	492	498	279	265	
3	0	0	0	0	521	511	279	266	
4	0	0	0	0	527	510	279	266	
5	0	0	0	0	514	523	280	266	
6	0	0	0	0	510	520	280	268	
7	0	0	0	0	526	513	279	267	
8	0	0	0	0	519	508	279	268	
9	0	0	0	0	514	518	280	269	
10	0	0	0	0	520	514	280	269	
11	0	0	0	0	530	512	280	268	
12	0	0	0	0	527	516	279	267	
13	0	0	0	0	521	514	279	267	
14	0	0	0	0	519	515	279	267	
15	0	0	0	0	536	518	280	266	
0	0	0	0	0	520	517	280	267	
1	0	0	0	0	520	507	279	268	
2	0	0	0	0	500	500	278	267	
3	0	0	0	0	489	502	280	267	
4	0	0	0	0	457	507	279	269	
5	0	0	0	0	476	513	279	271	
6	0	0	0	0	501	513	280	271	
7	0	0	0	0	509	515	280	271	
8	0	0	0	0	508	509	280	273	
9	0	0	0	0	509	511	281	272	
10	0	0	0	0	501	513	281	273	
11	0	0	0	0	517	515	280	273	
12	0	0	0	0	528	513	281	275	
13	0	0	0	0	518	512	280	276	
14	0	0	0	0	506	505	281	276	
15	0	0	0	0	513	492	280	274	
0	0	0	0	0	508	500	280	275	
1	0	0	0	0	491	507	281	275	
2	0	0	0	0	492	508	280	276	
3	0	0	0	0	507	509	279	275	
4	0	0	0	0	515	506	280	275	
5	0	0	0	0	530	535	280	275	
6	0	0	0	0	529	538	280	275	
7	0	0	0	0	511	533	280	272	
8	0	0	0	0	503	518	280	273	
9	0	0	0	0	513	494	280	273	
10	0	0	0	0	518	473	280	273	
11	0	0	0	0	516	472	280	273	
12	0	0	0	0	509	486	279	273	
13	0	0	0	0	517	524	280	275	
14	0	0	0	0	536	555	280	274	
15	0	0	0	0	538	525	280	274	
0	0	0	0	0	516	500	281	274	
1	0	0	0	0	512	503	280	273	
2	0	0	0	0	491	502	280	273	
3	0	0	0	0	428	508	281	274	
4	0	0	0	0	402	519	282	273	
5	0	0	0	0	459	525	281	272	
6	0	0	0	0	530	521	282	271	
7	0	0	0	0	542	514	282	272	
8	0	0	0	0	550	504	282	271	
9	0	0	0	0	537	512	282	271	
10	0	0	0	0	512	506	282	270	
11	0	0	0	0	517	515	283	270	
12	0	0	0	0	516	509	283	269	
13	0	0	0	0	518	508	283	270	
14	0	0	0	0	513	494	282	269	
15	0	0	0	0	533	500	281	269	
0	0	0	0	0	511	510	282	268	
1	0	0	0	0	496	526	282	269	
2	0	0	0	0	509	536	283	267	
3	0	0	0	0	526	521	282	267	
4	0	0	0	0	510	505	282	267	
5	0	0	0	0	450	503	281	267	
6	0	0	0	0	452	497	281	266	
7	0	0	0	0	480	516	282	265	
8	0	0	0	0	515	490	282	265	
9	0	0	0	0	534	500	283	264	
10	0	0	0	0	532	508	283	263	
11	0	0	0	0	532	505	283	262	
12	0	0	0	0	525	502	281	260	
13	0	0	0	0	512	494	283	262	
14	0	0	0	0	505	505	281	262	
15	0	0	0	0	513	517	280	263	
0	0	0	0	0	515	527	280	262	
1	0	0	0	0	511	528	281	261	
2	0	0	0	0	497	542	279	263	
3	0	0	0	0	502	522	280	261	
4	0	0	0	0	511	525	279	262	
5	0	0	0	0	516	521	279	263	
6	0	0	0	0	518	499	279	263	
7	0	0	0	0	528	489	280	262	
8	0	0	0	0	512	496	279	262	
9	0	0	0	0	523	496	280	266	
10	0	0	0	0	508	506	279	267	
11	0	0	0	0	517	518	279	266	
12	0	0	0	0	528	528	278	266	
13	0	0	0	0	501	518	278	265	
14	0	0	0	0	474	510	279	266	
15	0	0	0	0	486	510	278	264	
0	0	0	0	0	487	501	278	263	
1	0	0	0	0	492	509	278	264	
2	0	0	0	0	508	511	279	262	
3	0	0	0	0	499	518	278	260	
4	0	0	0	0	472	504	279	259	
5	0	0	0	0	489	509	278	260	
6	0	0	0	0	518	503	278	259	
7	0	0	0	0	531	504	277	260	
8	0	0	0	0	526	517	279	258	
9	0	0	0	0	490	521	278	257	
10	0	0	0	0	512	512	278	257	
11	0	0	0	0	531	529	280	257	
12	0	0	0	0	532	518	280	257	
13	0	0	0	0	541	515	279	258	
14	0	0	0	0	540	516	280	257	
15	0	0	0	0	540	512	278	258	
0	0	0	0	0	523	505	278	258	
1	0	0	0	0	507	507	279	257	
2	0	0	0	0	488	493	279	256	
3	0	0	0	0	464	490	278	256	
4	0	0	0	0	456	492	278	255	
5	0	0	0	0	477	508	277	253	
6	0	0	0	0	491	519	278	253	
7	0	0	0	0	507	512	278	252	
8	0	0	0	0	521	507	278	251	
9	0	0	0	0	524	517	278	251	
10	0	0	0	0	521	516	279	250	
11	0	0	0	0	519	523	279	252	
12	0	0	0	0	526	517	277	249	
13	0	0	0	0	549	502	277	249	
14	0	0	0	0	550	506	277	249	
15	0	0	0	0	530	513	277	248	
0	0	0	0	0	510	512	277	249	
1	0	0	0	0	481	519	277	247	
2	0	0	0	0	473	519	276	248	
3	0	0	0	0	472	510	276	246	
4	0	0	0	0	458	503	276	245	
5	0	0	0	0	477	495	277	245	
6	0	0	0	0	515	495	276	244	
7	0	0	0	0	532	497	277	244	
8	0	0	0	0	523	512	275	246	
9	0	0	0	0	529	529	275	247	
10	0	0	0	0	501	505	274	246	
11	0	0	0	0	497	504	275	245	
12	0	0	0	0	511	512	274	245	
13	0	0	0	0	500	511	273	245	
14	0	0	0	0	505	509	273	246	
15	0	0	0	0	517	517	272	244	
0	0	0	0	0	512	514	271	244	
1	0	0	0	0	525	518	271	244	
2	0	0	0	0	518	513	271	245	
3	0	0	0	0	515	502	270	244	
4	0	0	0	0	513	504	270	243	
5	0	0	0	0	509	507	270	246	
6	0	0	0	0	518	518	269	245	
7	0	0	0	0	533	522	270	246	
8	0	0	0	0	521	538	269	245	
9	0	0	0	0	510	527	269	245	
10	0	0	0	0	515	519	268	247	
11	0	0	0	0	514	497	267	247	
12	0	0	0	0	483	497	266	248	
13	0	0	0	0	487	517	267	246	
14	0	0	0	0	478	503	265	247	
15	0	0	0	0	495	504	267	244	
0	0	0	0	0	507	514	266	245	
1	0	0	0	0	515	499	267	245	
2	0	0	0	0	520	497	267	245	
3	0	0	0	0	520	497	267	244	
4	0	0	0	0	505	509	266	244	
5	0	0	0	0	496	520	267	243	
6	0	0	0	0	507	522	266	243	
7	0	0	0	0	516	512	265	243	
8	0	0	0	0	504	509	265	242	
9	0	0	0	0	502	502	264	243	
10	0	0	0	0	502	508	263	243	
11	0	0	0	0	516	514	264	244	
12	0	0	0	0	519	503	264	244	
13	0	0	0	0	518	528	264	244	
14	0	0	0	0	522	524	264	244	
15	0	0	0	0	505	501	264	245	
0	0	0	0	0	517	488	264	244	
1	0	0	0	0	519	512	263	244	
2	0	0	0	0	491	526	262	245	
3	0	0	0	0	498	531	261	245	
4	0	0	0	0	508	525	261	244	
5	0	0	0	0	527	509	261	244	
6	0	0	0	0	532	502	260	244	
7	0	0	0	0	515	484	258	243	
8	0	0	0	0	484	502	258	242	
9	0	0	0	0	474	507	259	243	
10	0	0	0	0	446	496	258	243	
11	0	0	0	0	451	489	258	243	
12	0	0	0	0	517	496	257	243	
13	0	0	0	0	534	517	257	243	
14	0	0	0	0	513	519	257	244	
15	0	0	0	0	525	525	256	245	
0	0	0	0	0	531	530	255	245	
1	0	0	0	0	532	534	255	246	
2	0	0	0	0	529	524	255	246	
3	0	0	0	0	526	514	255	246	
4	0	0	0	0	526	513	255	246	
5	0	0	0	0	498	505	255	247	
6	0	0	0	0	494	506	255	246	
7	0	0	0	0	519	512	255	246	
8	0	0	0	0	520	512	255	245	
9	0	0	0	0	515	505	256	245	
10	0	0	0	0	516	513	256	245	
11	0	0	0	0	510	499	256	246	
12	0	0	0	0	486	488	258	245	
13	0	0	0	0	476	489	257	246	
14	0	0	0	0	496	511	258	245	
15	0	0	0	0	500	517	259	245	
0	0	0	0	0	501	508	258	245	
1	0	0	0	0	530	504	258	244	
2	0	0	0	0	548	516	259	246	
3	0	0	0	0	531	531	259	245	
4	0	0	0	0	518	533	259	244	
5	0	0	0	0	519	521	259	244	
6	0	0	0	0	486	507	259	244	
7	0	0	0	0	453	498	258	242	
8	0	0	0	0	488	505	259	242	
9	0	0	0	0	524	512	259	242	
10	0	0	0	0	523	514	258	243	
11	0	0	0	0	509	511	259	241	
12	0	0	0	0	502	511	260	241	
13	0	0	0	0	518	506	260	239	
