# OpenSignals Text File Format. Version 1
# {"20:18:06:13:21:78": {"position": 0, "device": "bitalino_rev", "device name": "20:18:06:13:21:78", "device connection": "BTH20:18:06:13:21:78", "sampling rate": 1000, "resolution": [4, 1, 1, 1, 1, 10, 10, 10, 10], "firmware version": 1281, "comments": "", "keywords": "", "mode": 0, "sync interval": 2, "date": "2023-6-5", "time": "20:11:51.187", "channels": [1, 2, 3, 4], "sensor": ["EMGBITREV", "EMGBITREV", "RAW", "RAW"], "label": ["A1", "A2", "A3", "A4"], "column": ["nSeq", "I1", "I2", "O1", "O2", "A1", "A2", "A3", "A4"], "special": [{}, {}, {}, {}], "digital IO": [0, 0, 1, 1]}}
# EndOfHeader
0	0	0	0	0	509	507	62	0	
1	0	0	0	0	508	508	62	0	
2	0	0	0	0	510	508	62	0	
3	0	0	0	0	512	511	63	0	
4	0	0	0	0	512	508	63	0	
5	0	0	0	0	510	507	63	0	
6	0	0	0	0	511	508	63	0	
7	0	0	0	0	512	509	63	0	
8	0	0	0	0	513	507	63	0	
9	0	0	0	0	512	508	63	0	
10	0	0	0	0	511	506	63	0	
11	0	0	0	0	512	507	63	0	
12	0	0	0	0	511	507	63	0	
13	0	0	0	0	511	507	63	0	
14	0	0	0	0	512	508	63	0	
15	0	0	0	0	510	509	63	0	
0	0	0	0	0	509	510	63	0	
1	0	0	0	0	510	509	62	0	
2	0	0	0	0	511	509	62	0	
3	0	0	0	0	508	508	63	0	
4	0	0	0	0	508	508	63	0	
5	0	0	0	0	510	508	63	0	
6	0	0	0	0	508	506	63	0	
7	0	0	0	0	510	506	63	0	
8	0	0	0	0	511	508	62	0	
9	0	0	0	0	511	508	62	0	
10	0	0	0	0	510	506	62	0	
11	0	0	0	0	511	506	62	0	
12	0	0	0	0	513	509	63	0	
13	0	0	0	0	512	510	63	0	
14	0	0	0	0	513	511	63	0	
15	0	0	0	0	511	508	63	0	
0	0	0	0	0	513	506	63	0	
1	0	0	0	0	513	508	63	0	
2	0	0	0	0	512	508	63	0	
3	0	0	0	0	512	508	63	0	
4	0	0	0	0	511	508	63	0	
5	0	0	0	0	511	507	63	0	
6	0	0	0	0	511	508	64	0	
7	0	0	0	0	511	508	67	0	
8	0	0	0	0	510	507	68	0	
9	0	0	0	0	510	510	68	0	
10	0	0	0	0	510	507	67	0	
11	0	0	0	0	512	511	67	0	
12	0	0	0	0	511	506	68	0	
13	0	0	0	0	511	507	68	0	
14	0	0	0	0	511	508	69	0	
15	0	0	0	0	511	510	69	0	
0	0	0	0	0	510	508	70	0	
1	0	0	0	0	512	508	70	0	
2	0	0	0	0	511	506	68	0	
3	0	0	0	0	514	508	68	0	
4	0	0	0	0	512	508	68	0	
5	0	0	0	0	512	508	69	0	
6	0	0	0	0	512	507	69	0	
7	0	0	0	0	511	507	69	0	
8	0	0	0	0	510	509	69	0	
9	0	0	0	0	511	508	69	0	
10	0	0	0	0	512	509	69	0	
11	0	0	0	0	511	508	69	0	
12	0	0	0	0	507	507	69	0	
13	0	0	0	0	509	509	69	0	
14	0	0	0	0	510	508	69	0	
15	0	0	0	0	512	505	68	0	
0	0	0	0	0	510	508	68	0	
1	0	0	0	0	512	508	69	0	
2	0	0	0	0	510	507	68	0	
3	0	0	0	0	513	508	68	0	
4	0	0	0	0	513	510	68	0	
5	0	0	0	0	511	508	69	0	
6	0	0	0	0	512	509	69	0	
7	0	0	0	0	512	508	69	0	
8	0	0	0	0	510	508	68	0	
9	0	0	0	0	512	507	68	0	
10	0	0	0	0	512	508	67	0	
11	0	0	0	0	511	508	68	0	
12	0	0	0	0	513	508	68	0	
13	0	0	0	0	510	507	69	0	
14	0	0	0	0	508	508	69	0	
15	0	0	0	0	512	507	69	0	
0	0	0	0	0	509	508	68	0	
1	0	0	0	0	509	508	69	0	
2	0	0	0	0	510	508	69	0	
3	0	0	0	0	511	508	69	0	
4	0	0	0	0	510	508	70	0	
5	0	0	0	0	510	505	70	0	
6	0	0	0	0	510	506	70	0	
7	0	0	0	0	512	507	69	0	
8	0	0	0	0	513	508	69	0	
9	0	0	0	0	513	510	69	0	
10	0	0	0	0	514	508	69	0	
11	0	0	0	0	512	508	69	0	
12	0	0	0	0	511	507	69	0	
13	0	0	0	0	511	508	69	0	
14	0	0	0	0	511	507	70	0	
15	0	0	0	0	510	507	70	0	
0	0	0	0	0	510	510	70	0	
1	0	0	0	0	508	509	71	0	
2	0	0	0	0	509	509	71	0	
3	0	0	0	0	512	508	70	0	
4	0	0	0	0	508	508	70	0	
5	0	0	0	0	510	507	70	0	
6	0	0	0	0	511	507	70	0	
7	0	0	0	0	509	508	70	0	
8	0	0	0	0	511	506	70	0	
9	0	0	0	0	511	507	70	0	
10	0	0	0	0	512	509	70	0	
11	0	0	0	0	513	510	70	0	
12	0	0	0	0	514	509	69	0	
13	0	0	0	0	512	508	70	0	
14	0	0	0	0	513	507	70	0	
15	0	0	0	0	512	509	70	0	
0	0	0	0	0	511	509	69	0	
1	0	0	0	0	511	507	70	0	
2	0	0	0	0	512	508	70	0	
3	0	0	0	0	513	507	70	0	
4	0	0	0	0	510	509	71	0	
5	0	0	0	0	509	507	71	0	
6	0	0	0	0	512	509	70	0	
7	0	0	0	0	509	507	71	0	
8	0	0	0	0	511	509	70	0	
9	0	0	0	0	509	509	70	0	
10	0	0	0	0	509	508	70	0	
11	0	0	0	0	512	508	70	0	
12	0	0	0	0	511	507	70	0	
13	0	0	0	0	512	508	71	0	
14	0	0	0	0	511	508	70	0	
15	0	0	0	0	512	508	70	0	
0	0	0	0	0	512	508	70	0	
1	0	0	0	0	510	509	70	0	
2	0	0	0	0	511	509	70	0	
3	0	0	0	0	512	507	70	0	
4	0	0	0	0	513	509	69	0	
5	0	0	0	0	512	510	69	0	
6	0	0	0	0	511	507	70	0	
7	0	0	0	0	512	508	70	0	
8	0	0	0	0	510	510	70	0	
9	0	0	0	0	509	507	69	0	
10	0	0	0	0	511	508	69	0	
11	0	0	0	0	511	508	69	0	
12	0	0	0	0	510	509	70	0	
13	0	0	0	0	511	509	69	0	
14	0	0	0	0	509	507	69	0	
15	0	0	0	0	511	508	68	0	
0	0	0	0	0	511	506	68	0	
1	0	0	0	0	512	510	68	0	
2	0	0	0	0	512	509	68	0	
3	0	0	0	0	511	506	68	0	
4	0	0	0	0	512	507	68	0	
5	0	0	0	0	510	508	68	0	
6	0	0	0	0	511	508	67	0	
7	0	0	0	0	514	508	67	0	
8	0	0	0	0	511	508	67	0	
9	0	0	0	0	511	508	67	0	
10	0	0	0	0	511	508	67	0	
11	0	0	0	0	512	508	67	0	
12	0	0	0	0	511	506	67	0	
13	0	0	0	0	510	508	68	0	
14	0	0	0	0	510	509	68	0	
15	0	0	0	0	510	508	68	0	
0	0	0	0	0	508	507	67	0	
1	0	0	0	0	511	508	68	0	
2	0	0	0	0	510	508	68	0	
3	0	0	0	0	510	508	69	0	
4	0	0	0	0	510	507	69	0	
5	0	0	0	0	509	508	69	0	
6	0	0	0	0	512	509	68	0	
7	0	0	0	0	511	508	69	0	
8	0	0	0	0	513	507	69	0	
9	0	0	0	0	511	507	69	0	
10	0	0	0	0	513	506	69	0	
11	0	0	0	0	512	507	69	0	
12	0	0	0	0	512	510	69	0	
13	0	0	0	0	512	508	68	0	
14	0	0	0	0	511	509	69	0	
15	0	0	0	0	512	510	68	0	
0	0	0	0	0	510	509	69	0	
1	0	0	0	0	512	510	69	0	
2	0	0	0	0	510	508	69	0	
3	0	0	0	0	509	506	70	0	
4	0	0	0	0	511	507	69	0	
5	0	0	0	0	509	507	68	0	
6	0	0	0	0	510	507	69	0	
7	0	0	0	0	508	511	69	0	
8	0	0	0	0	511	509	68	0	
9	0	0	0	0	510	507	68	0	
10	0	0	0	0	511	506	68	0	
11	0	0	0	0	514	508	68	0	
12	0	0	0	0	512	507	68	0	
13	0	0	0	0	513	507	69	0	
14	0	0	0	0	512	508	70	0	
15	0	0	0	0	513	509	70	0	
0	0	0	0	0	512	508	71	0	
1	0	0	0	0	511	508	70	0	
2	0	0	0	0	511	507	71	0	
3	0	0	0	0	510	509	71	0	
4	0	0	0	0	511	510	71	0	
5	0	0	0	0	510	508	71	0	
6	0	0	0	0	511	507	71	0	
7	0	0	0	0	510	508	71	0	
8	0	0	0	0	509	509	71	0	
9	0	0	0	0	509	508	71	0	
10	0	0	0	0	509	508	71	0	
11	0	0	0	0	511	508	71	0	
12	0	0	0	0	510	509	71	0	
13	0	0	0	0	511	507	71	0	
14	0	0	0	0	512	507	71	0	
15	0	0	0	0	513	508	71	0	
0	0	0	0	0	512	510	71	0	
1	0	0	0	0	512	507	71	0	
2	0	0	0	0	514	509	71	0	
3	0	0	0	0	512	508	71	0	
4	0	0	0	0	513	508	71	0	
5	0	0	0	0	511	510	71	0	
6	0	0	0	0	512	509	71	0	
7	0	0	0	0	510	506	71	0	
8	0	0	0	0	510	507	70	0	
9	0	0	0	0	510	508	71	0	
10	0	0	0	0	510	508	71	0	
11	0	0	0	0	509	506	71	0	
12	0	0	0	0	510	508	71	0	
13	0	0	0	0	510	507	71	0	
14	0	0	0	0	509	508	71	0	
15	0	0	0	0	512	507	71	0	
0	0	0	0	0	509	508	71	0	
1	0	0	0	0	510	508	71	0	
2	0	0	0	0	515	508	70	0	
3	0	0	0	0	511	508	71	0	
4	0	0	0	0	513	508	71	0	
5	0	0	0	0	512	508	71	0	
6	0	0	0	0	511	508	71	0	
7	0	0	0	0	511	509	71	0	
8	0	0	0	0	513	507	70	0	
9	0	0	0	0	511	508	71	0	
10	0	0	0	0	512	509	71	0	
11	0	0	0	0	511	508	71	0	
12	0	0	0	0	510	508	71	0	
13	0	0	0	0	512	506	71	0	
14	0	0	0	0	510	508	71	0	
15	0	0	0	0	509	509	71	0	
0	0	0	0	0	509	507	70	0	
1	0	0	0	0	508	509	71	0	
2	0	0	0	0	509	508	71	0	
3	0	0	0	0	511	508	70	0	
4	0	0	0	0	511	508	70	0	
5	0	0	0	0	510	507	70	0	
6	0	0	0	0	511	508	70	0	
7	0	0	0	0	514	508	69	0	
8	0	0	0	0	512	508	69	0	
9	0	0	0	0	513	507	67	0	
10	0	0	0	0	510	508	67	0	
11	0	0	0	0	514	509	66	0	
12	0	0	0	0	512	508	66	0	
13	0	0	0	0	511	509	66	0	
14	0	0	0	0	512	508	66	0	
15	0	0	0	0	511	509	66	0	
0	0	0	0	0	510	508	66	0	
1	0	0	0	0	508	508	67	0	
2	0	0	0	0	511	507	66	0	
3	0	0	0	0	509	508	66	0	
4	0	0	0	0	510	506	66	0	
5	0	0	0	0	511	508	66	0	
6	0	0	0	0	510	507	66	0	
7	0	0	0	0	509	509	66	0	
8	0	0	0	0	513	509	66	0	
9	0	0	0	0	509	507	66	0	
10	0	0	0	0	511	508	66	0	
11	0	0	0	0	511	507	66	0	
12	0	0	0	0	513	508	66	0	
13	0	0	0	0	511	507	66	0	
14	0	0	0	0	511	507	67	0	
15	0	0	0	0	513	509	66	0	
0	0	0	0	0	513	508	66	0	
1	0	0	0	0	512	507	66	0	
2	0	0	0	0	512	510	66	0	
3	0	0	0	0	510	507	66	0	
4	0	0	0	0	511	510	65	0	
5	0	0	0	0	512	510	66	0	
6	0	0	0	0	509	507	65	0	
7	0	0	0	0	509	508	66	0	
8	0	0	0	0	511	508	66	0	
9	0	0	0	0	509	509	66	0	
10	0	0	0	0	511	508	66	0	
11	0	0	0	0	513	506	66	0	
12	0	0	0	0	511	509	66	0	
13	0	0	0	0	511	509	66	0	
14	0	0	0	0	511	508	66	0	
15	0	0	0	0	509	507	67	0	
0	0	0	0	0	512	508	66	0	
1	0	0	0	0	512	509	66	0	
2	0	0	0	0	512	507	67	0	
3	0	0	0	0	513	507	67	0	
4	0	0	0	0	511	508	66	0	
5	0	0	0	0	512	510	66	0	
6	0	0	0	0	512	507	66	0	
7	0	0	0	0	511	508	65	0	
8	0	0	0	0	511	508	66	0	
9	0	0	0	0	512	508	66	0	
10	0	0	0	0	510	508	66	0	
11	0	0	0	0	510	508	66	0	
12	0	0	0	0	509	508	66	0	
13	0	0	0	0	510	508	66	0	
14	0	0	0	0	511	508	66	0	
15	0	0	0	0	510	508	66	0	
0	0	0	0	0	510	508	66	0	
1	0	0	0	0	511	508	66	0	
2	0	0	0	0	512	507	65	0	
3	0	0	0	0	511	508	66	0	
4	0	0	0	0	513	508	66	0	
5	0	0	0	0	511	507	65	0	
6	0	0	0	0	512	510	65	0	
7	0	0	0	0	514	508	65	0	
8	0	0	0	0	512	509	65	0	
9	0	0	0	0	513	507	65	0	
10	0	0	0	0	509	508	66	0	
11	0	0	0	0	510	510	65	0	
12	0	0	0	0	510	506	66	0	
13	0	0	0	0	510	508	66	0	
14	0	0	0	0	511	509	65	0	
15	0	0	0	0	510	508	65	0	
0	0	0	0	0	510	506	65	0	
1	0	0	0	0	510	508	65	0	
2	0	0	0	0	511	509	65	0	
3	0	0	0	0	510	508	65	0	
4	0	0	0	0	512	510	65	0	
5	0	0	0	0	511	508	66	0	
6	0	0	0	0	512	508	66	0	
7	0	0	0	0	511	507	66	0	
8	0	0	0	0	511	508	65	0	
9	0	0	0	0	512	507	65	0	
10	0	0	0	0	512	510	65	0	
11	0	0	0	0	509	508	66	0	
12	0	0	0	0	512	509	65	0	
13	0	0	0	0	511	509	65	0	
14	0	0	0	0	511	506	65	0	
15	0	0	0	0	511	508	65	0	
0	0	0	0	0	510	506	65	0	
1	0	0	0	0	510	508	65	0	
2	0	0	0	0	511	508	65	0	
3	0	0	0	0	512	508	65	0	
4	0	0	0	0	511	508	65	0	
5	0	0	0	0	507	508	65	0	
6	0	0	0	0	509	508	65	0	
7	0	0	0	0	510	508	65	0	
8	0	0	0	0	510	509	65	0	
9	0	0	0	0	511	507	65	0	
10	0	0	0	0	512	507	65	0	
11	0	0	0	0	511	508	65	0	
12	0	0	0	0	511	508	65	0	
13	0	0	0	0	513	508	64	0	
14	0	0	0	0	511	507	65	0	
15	0	0	0	0	511	509	65	0	
0	0	0	0	0	513	508	65	0	
1	0	0	0	0	513	507	65	0	
2	0	0	0	0	511	507	65	0	
3	0	0	0	0	511	510	65	0	
4	0	0	0	0	513	508	66	0	
5	0	0	0	0	511	509	66	0	
6	0	0	0	0	507	508	66	0	
7	0	0	0	0	510	508	66	0	
8	0	0	0	0	509	509	65	0	
9	0	0	0	0	511	508	65	0	
10	0	0	0	0	510	509	66	0	
11	0	0	0	0	511	506	66	0	
12	0	0	0	0	511	508	67	0	
13	0	0	0	0	509	508	66	0	
14	0	0	0	0	511	507	66	0	
15	0	0	0	0	512	508	66	0	
0	0	0	0	0	512	508	66	0	
1	0	0	0	0	512	508	66	0	
2	0	0	0	0	511	509	66	0	
3	0	0	0	0	512	508	65	0	
4	0	0	0	0	514	509	66	0	
5	0	0	0	0	511	506	66	0	
6	0	0	0	0	509	508	66	0	
7	0	0	0	0	510	508	66	0	
8	0	0	0	0	510	508	67	0	
9	0	0	0	0	511	507	67	0	
10	0	0	0	0	507	507	66	0	
11	0	0	0	0	508	508	66	0	
12	0	0	0	0	511	507	67	0	
13	0	0	0	0	512	506	67	0	
14	0	0	0	0	511	508	67	0	
15	0	0	0	0	511	510	67	0	
0	0	0	0	0	512	511	66	0	
1	0	0	0	0	510	508	67	0	
2	0	0	0	0	511	508	67	0	
3	0	0	0	0	511	508	67	0	
4	0	0	0	0	511	508	66	0	
5	0	0	0	0	514	506	67	0	
6	0	0	0	0	513	507	67	0	
7	0	0	0	0	513	509	66	0	
8	0	0	0	0	513	508	66	0	
9	0	0	0	0	511	508	66	0	
10	0	0	0	0	511	508	66	0	
11	0	0	0	0	511	508	66	0	
12	0	0	0	0	511	509	66	0	
13	0	0	0	0	511	505	66	0	
14	0	0	0	0	511	507	66	0	
15	0	0	0	0	509	508	66	0	
0	0	0	0	0	509	509	67	0	
1	0	0	0	0	508	510	66	0	
2	0	0	0	0	510	509	66	0	
3	0	0	0	0	511	508	67	0	
4	0	0	0	0	512	508	67	0	
5	0	0	0	0	512	508	67	0	
6	0	0	0	0	511	508	66	0	
7	0	0	0	0	511	508	67	0	
8	0	0	0	0	510	509	67	0	
9	0	0	0	0	515	507	66	0	
10	0	0	0	0	511	508	66	0	
11	0	0	0	0	512	508	67	0	
12	0	0	0	0	513	508	67	0	
13	0	0	0	0	512	509	66	0	
14	0	0	0	0	511	508	66	0	
15	0	0	0	0	510	507	66	0	
0	0	0	0	0	509	508	66	0	
1	0	0	0	0	508	509	67	0	
2	0	0	0	0	510	507	66	0	
3	0	0	0	0	510	507	66	0	
4	0	0	0	0	509	509	66	0	
5	0	0	0	0	510	510	66	0	
6	0	0	0	0	509	508	67	0	
7	0	0	0	0	508	508	67	0	
8	0	0	0	0	512	508	67	0	
9	0	0	0	0	511	509	66	0	
10	0	0	0	0	511	508	66	0	
11	0	0	0	0	511	509	66	0	
12	0	0	0	0	512	507	67	0	
13	0	0	0	0	512	509	66	0	
14	0	0	0	0	511	508	66	0	
15	0	0	0	0	512	508	66	0	
0	0	0	0	0	512	507	66	0	
1	0	0	0	0	510	508	66	0	
2	0	0	0	0	511	510	66	0	
3	0	0	0	0	512	509	66	0	
4	0	0	0	0	511	508	66	0	
5	0	0	0	0	511	508	66	0	
6	0	0	0	0	508	509	66	0	
7	0	0	0	0	507	510	66	0	
8	0	0	0	0	509	508	66	0	
9	0	0	0	0	510	508	66	0	
10	0	0	0	0	511	507	65	0	
11	0	0	0	0	508	508	66	0	
12	0	0	0	0	512	507	66	0	
13	0	0	0	0	511	508	66	0	
14	0	0	0	0	511	508	66	0	
15	0	0	0	0	511	508	66	0	
0	0	0	0	0	512	508	65	0	
1	0	0	0	0	512	507	65	0	
2	0	0	0	0	512	506	65	0	
3	0	0	0	0	513	507	66	0	
4	0	0	0	0	514	509	66	0	
5	0	0	0	0	512	509	66	0	
6	0	0	0	0	512	505	66	0	
7	0	0	0	0	510	510	66	0	
8	0	0	0	0	510	508	66	0	
9	0	0	0	0	511	510	66	0	
10	0	0	0	0	511	508	65	0	
11	0	0	0	0	510	508	65	0	
12	0	0	0	0	510	508	66	0	
13	0	0	0	0	509	506	66	0	
14	0	0	0	0	509	508	66	0	
15	0	0	0	0	510	508	66	0	
0	0	0	0	0	510	509	66	0	
1	0	0	0	0	512	510	66	0	
2	0	0	0	0	514	508	66	0	
3	0	0	0	0	513	507	66	0	
4	0	0	0	0	512	508	66	0	
5	0	0	0	0	512	508	66	0	
6	0	0	0	0	511	508	66	0	
7	0	0	0	0	512	507	66	0	
8	0	0	0	0	511	506	65	0	
9	0	0	0	0	511	509	65	0	
10	0	0	0	0	511	508	66	0	
11	0	0	0	0	511	509	65	0	
12	0	0	0	0	512	508	66	0	
13	0	0	0	0	510	508	65	0	
14	0	0	0	0	510	508	66	0	
15	0	0	0	0	509	509	67	0	
0	0	0	0	0	508	508	67	0	
1	0	0	0	0	510	508	67	0	
2	0	0	0	0	509	507	67	0	
3	0	0	0	0	511	511	66	0	
4	0	0	0	0	509	507	66	0	
5	0	0	0	0	510	508	66	0	
6	0	0	0	0	512	508	66	0	
7	0	0	0	0	513	508	66	0	
8	0	0	0	0	511	508	66	0	
9	0	0	0	0	510	507	66	0	
10	0	0	0	0	511	506	65	0	
11	0	0	0	0	511	507	66	0	
12	0	0	0	0	511	511	66	0	
13	0	0	0	0	512	509	65	0	
14	0	0	0	0	511	507	65	0	
15	0	0	0	0	512	508	66	0	
0	0	0	0	0	510	506	65	0	
1	0	0	0	0	511	509	66	0	
2	0	0	0	0	511	506	66	0	
3	0	0	0	0	511	509	65	0	
4	0	0	0	0	508	509	65	0	
5	0	0	0	0	509	506	66	0	
6	0	0	0	0	508	508	65	0	
7	0	0	0	0	511	508	66	0	
8	0	0	0	0	510	508	66	0	
9	0	0	0	0	512	508	66	0	
10	0	0	0	0	511	507	66	0	
11	0	0	0	0	511	508	65	0	
12	0	0	0	0	511	508	66	0	
13	0	0	0	0	513	509	66	0	
14	0	0	0	0	512	508	66	0	
15	0	0	0	0	515	508	66	0	
0	0	0	0	0	513	509	66	0	
1	0	0	0	0	513	508	66	0	
2	0	0	0	0	512	508	67	0	
3	0	0	0	0	511	508	66	0	
4	0	0	0	0	510	508	66	0	
5	0	0	0	0	510	509	66	0	
6	0	0	0	0	510	507	67	0	
7	0	0	0	0	509	510	66	0	
8	0	0	0	0	509	508	66	0	
9	0	0	0	0	511	508	66	0	
10	0	0	0	0	511	509	67	0	
11	0	0	0	0	509	506	66	0	
12	0	0	0	0	509	508	66	0	
13	0	0	0	0	508	505	67	0	
14	0	0	0	0	511	508	66	0	
15	0	0	0	0	512	510	66	0	
0	0	0	0	0	510	508	67	0	
1	0	0	0	0	512	508	66	0	
2	0	0	0	0	513	508	66	0	
3	0	0	0	0	511	508	67	0	
4	0	0	0	0	513	508	66	0	
5	0	0	0	0	511	509	66	0	
6	0	0	0	0	509	505	66	0	
7	0	0	0	0	510	508	67	0	
8	0	0	0	0	511	509	66	0	
9	0	0	0	0	510	508	66	0	
10	0	0	0	0	511	507	66	0	
11	0	0	0	0	509	507	65	0	
12	0	0	0	0	512	508	66	0	
13	0	0	0	0	509	507	65	0	
14	0	0	0	0	510	507	66	0	
15	0	0	0	0	510	508	65	0	
0	0	0	0	0	510	509	65	0	
1	0	0	0	0	512	505	66	0	
2	0	0	0	0	512	507	66	0	
3	0	0	0	0	512	507	66	0	
4	0	0	0	0	512	509	67	0	
5	0	0	0	0	512	509	66	0	
6	0	0	0	0	512	510	67	0	
7	0	0	0	0	514	507	66	0	
8	0	0	0	0	514	508	66	0	
9	0	0	0	0	513	507	66	0	
10	0	0	0	0	511	509	65	0	
11	0	0	0	0	510	508	66	0	
12	0	0	0	0	510	509	66	0	
13	0	0	0	0	513	510	66	0	
14	0	0	0	0	510	509	65	0	
15	0	0	0	0	510	508	66	0	
0	0	0	0	0	508	508	66	0	
1	0	0	0	0	511	507	65	0	
2	0	0	0	0	510	511	66	0	
3	0	0	0	0	509	508	66	0	
4	0	0	0	0	510	508	66	0	
5	0	0	0	0	513	507	66	0	
6	0	0	0	0	512	507	66	0	
7	0	0	0	0	511	508	65	0	
8	0	0	0	0	512	507	65	0	
9	0	0	0	0	511	508	65	0	
10	0	0	0	0	512	507	65	0	
11	0	0	0	0	513	507	65	0	
12	0	0	0	0	511	509	65	0	
13	0	0	0	0	511	509	66	0	
14	0	0	0	0	513	509	65	0	
15	0	0	0	0	512	509	66	0	
0	0	0	0	0	511	507	66	0	
1	0	0	0	0	511	508	66	0	
2	0	0	0	0	511	508	66	0	
3	0	0	0	0	509	507	65	0	
4	0	0	0	0	511	506	66	0	
5	0	0	0	0	510	508	66	0	
6	0	0	0	0	511	509	66	0	
7	0	0	0	0	511	508	65	0	
8	0	0	0	0	510	509	65	0	
9	0	0	0	0	510	507	65	0	
10	0	0	0	0	512	508	65	0	
11	0	0	0	0	511	508	65	0	
12	0	0	0	0	514	507	65	0	
13	0	0	0	0	511	509	65	0	
14	0	0	0	0	511	507	66	0	
15	0	0	0	0	511	507	66	0	
0	0	0	0	0	511	506	65	0	
1	0	0	0	0	513	509	66	0	
2	0	0	0	0	509	509	66	0	
3	0	0	0	0	511	507	66	0	
4	0	0	0	0	510	509	65	0	
5	0	0	0	0	510	508	65	0	
6	0	0	0	0	509	511	65	0	
7	0	0	0	0	509	509	65	0	
8	0	0	0	0	509	508	65	0	
9	0	0	0	0	508	509	65	0	
10	0	0	0	0	510	508	65	0	
11	0	0	0	0	511	507	64	0	
12	0	0	0	0	511	506	64	0	
13	0	0	0	0	511	508	65	0	
14	0	0	0	0	512	508	65	0	
15	0	0	0	0	513	507	65	0	
0	0	0	0	0	513	508	65	0	
1	0	0	0	0	514	508	66	0	
2	0	0	0	0	513	507	66	0	
3	0	0	0	0	512	507	65	0	
4	0	0	0	0	513	508	65	0	
5	0	0	0	0	512	510	65	0	
6	0	0	0	0	513	508	65	0	
7	0	0	0	0	512	508	65	0	
8	0	0	0	0	510	508	65	0	
9	0	0	0	0	510	507	65	0	
10	0	0	0	0	509	508	65	0	
11	0	0	0	0	508	508	65	0	
12	0	0	0	0	510	507	64	0	
13	0	0	0	0	510	507	64	0	
14	0	0	0	0	511	508	65	0	
15	0	0	0	0	508	510	65	0	
0	0	0	0	0	510	508	65	0	
1	0	0	0	0	511	506	65	0	
2	0	0	0	0	513	507	65	0	
3	0	0	0	0	512	508	65	0	
4	0	0	0	0	512	508	65	0	
5	0	0	0	0	513	508	65	0	
6	0	0	0	0	513	509	65	0	
7	0	0	0	0	514	508	65	0	
8	0	0	0	0	512	511	65	0	
9	0	0	0	0	511	507	64	0	
10	0	0	0	0	512	507	63	0	
11	0	0	0	0	511	509	63	0	
12	0	0	0	0	509	507	64	0	
13	0	0	0	0	510	506	64	0	
14	0	0	0	0	508	509	64	0	
15	0	0	0	0	509	508	64	0	
0	0	0	0	0	511	508	63	0	
1	0	0	0	0	510	507	63	0	
2	0	0	0	0	510	508	63	0	
3	0	0	0	0	510	508	64	0	
4	0	0	0	0	510	507	64	0	
5	0	0	0	0	511	508	64	0	
6	0	0	0	0	512	507	64	0	
7	0	0	0	0	513	508	65	0	
8	0	0	0	0	511	510	64	0	
9	0	0	0	0	511	509	64	0	
10	0	0	0	0	511	507	65	0	
11	0	0	0	0	513	507	64	0	
12	0	0	0	0	511	508	65	0	
13	0	0	0	0	511	508	64	0	
14	0	0	0	0	511	505	65	0	
15	0	0	0	0	509	508	64	0	
0	0	0	0	0	509	511	64	0	
1	0	0	0	0	511	508	65	0	
2	0	0	0	0	511	509	64	0	
3	0	0	0	0	511	509	65	0	
4	0	0	0	0	510	508	65	0	
5	0	0	0	0	510	508	64	0	
6	0	0	0	0	510	508	64	0	
7	0	0	0	0	512	507	64	0	
8	0	0	0	0	510	508	64	0	
9	0	0	0	0	510	507	64	0	
10	0	0	0	0	511	508	64	0	
11	0	0	0	0	511	508	64	0	
12	0	0	0	0	511	508	64	0	
13	0	0	0	0	512	508	64	0	
14	0	0	0	0	511	509	64	0	
15	0	0	0	0	514	507	64	0	
0	0	0	0	0	512	508	65	0	
1	0	0	0	0	512	510	64	0	
2	0	0	0	0	513	507	64	0	
3	0	0	0	0	511	508	64	0	
4	0	0	0	0	513	507	64	0	
5	0	0	0	0	511	507	64	0	
6	0	0	0	0	511	507	64	0	
7	0	0	0	0	510	508	64	0	
8	0	0	0	0	510	509	64	0	
9	0	0	0	0	508	507	64	0	
10	0	0	0	0	510	507	63	0	
11	0	0	0	0	511	508	64	0	
12	0	0	0	0	510	507	65	0	
13	0	0	0	0	510	509	65	0	
14	0	0	0	0	514	510	64	0	
15	0	0	0	0	511	508	64	0	
0	0	0	0	0	512	508	64	0	
1	0	0	0	0	513	508	65	0	
2	0	0	0	0	512	507	64	0	
3	0	0	0	0	511	507	64	0	
4	0	0	0	0	512	508	64	0	
5	0	0	0	0	512	508	64	0	
6	0	0	0	0	513	507	64	0	
7	0	0	0	0	511	508	65	0	
8	0	0	0	0	512	509	65	0	
9	0	0	0	0	509	510	64	0	
10	0	0	0	0	511	508	65	0	
11	0	0	0	0	509	507	65	0	
12	0	0	0	0	508	507	65	0	
13	0	0	0	0	508	508	65	0	
14	0	0	0	0	508	507	65	0	
15	0	0	0	0	511	507	65	0	
0	0	0	0	0	511	507	65	0	
1	0	0	0	0	511	507	65	0	
2	0	0	0	0	512	508	65	0	
3	0	0	0	0	513	508	64	0	
4	0	0	0	0	511	508	65	0	
5	0	0	0	0	512	510	65	0	
6	0	0	0	0	514	508	64	0	
7	0	0	0	0	512	508	65	0	
8	0	0	0	0	511	508	65	0	
9	0	0	0	0	511	509	64	0	
10	0	0	0	0	513	508	65	0	
11	0	0	0	0	514	508	65	0	
12	0	0	0	0	511	508	65	0	
13	0	0	0	0	511	507	65	0	
14	0	0	0	0	509	508	64	0	
15	0	0	0	0	507	507	64	0	
0	0	0	0	0	510	508	64	0	
1	0	0	0	0	512	507	64	0	
2	0	0	0	0	510	509	64	0	
3	0	0	0	0	511	507	64	0	
4	0	0	0	0	511	505	64	0	
5	0	0	0	0	510	509	64	0	
6	0	0	0	0	511	508	64	0	
7	0	0	0	0	512	508	64	0	
8	0	0	0	0	513	509	64	0	
9	0	0	0	0	512	506	63	0	
10	0	0	0	0	513	506	63	0	
11	0	0	0	0	512	510	64	0	
12	0	0	0	0	512	508	64	0	
13	0	0	0	0	512	506	63	0	
14	0	0	0	0	511	509	63	0	
15	0	0	0	0	511	507	64	0	
0	0	0	0	0	514	510	65	0	
1	0	0	0	0	510	507	65	0	
2	0	0	0	0	509	508	64	0	
3	0	0	0	0	508	508	64	0	
4	0	0	0	0	507	508	64	0	
5	0	0	0	0	508	509	64	0	
6	0	0	0	0	509	508	64	0	
7	0	0	0	0	509	507	64	0	
8	0	0	0	0	510	508	64	0	
9	0	0	0	0	511	508	64	0	
10	0	0	0	0	510	508	64	0	
11	0	0	0	0	511	507	64	0	
12	0	0	0	0	512	509	64	0	
13	0	0	0	0	514	507	64	0	
14	0	0	0	0	510	508	64	0	
15	0	0	0	0	513	507	64	0	
0	0	0	0	0	513	508	64	0	
1	0	0	0	0	514	508	64	0	
2	0	0	0	0	512	508	64	0	
3	0	0	0	0	510	508	65	0	
4	0	0	0	0	510	506	65	0	
5	0	0	0	0	509	509	65	0	
6	0	0	0	0	507	509	65	0	
7	0	0	0	0	510	508	64	0	
8	0	0	0	0	508	506	65	0	
9	0	0	0	0	509	508	64	0	
10	0	0	0	0	510	507	64	0	
11	0	0	0	0	511	507	65	0	
12	0	0	0	0	511	509	65	0	
13	0	0	0	0	511	509	65	0	
14	0	0	0	0	512	507	64	0	
15	0	0	0	0	512	510	65	0	
0	0	0	0	0	511	507	64	0	
1	0	0	0	0	513	507	64	0	
2	0	0	0	0	513	507	65	0	
3	0	0	0	0	511	510	65	0	
4	0	0	0	0	511	509	66	0	
5	0	0	0	0	513	507	65	0	
6	0	0	0	0	511	508	66	0	
7	0	0	0	0	509	508	65	0	
8	0	0	0	0	510	507	66	0	
9	0	0	0	0	511	509	66	0	
10	0	0	0	0	510	508	66	0	
11	0	0	0	0	510	509	65	0	
12	0	0	0	0	509	508	66	0	
13	0	0	0	0	509	509	66	0	
14	0	0	0	0	511	508	65	0	
15	0	0	0	0	511	507	66	0	
0	0	0	0	0	512	507	65	0	
1	0	0	0	0	514	507	65	0	
2	0	0	0	0	513	507	65	0	
3	0	0	0	0	513	506	65	0	
4	0	0	0	0	512	507	65	0	
5	0	0	0	0	512	510	65	0	
6	0	0	0	0	513	508	65	0	
7	0	0	0	0	511	508	65	0	
8	0	0	0	0	512	507	65	0	
9	0	0	0	0	512	507	65	0	
10	0	0	0	0	512	510	65	0	
11	0	0	0	0	511	508	65	0	
12	0	0	0	0	512	505	63	0	
13	0	0	0	0	510	508	63	0	
14	0	0	0	0	509	507	62	0	
15	0	0	0	0	508	509	62	0	
0	0	0	0	0	510	507	62	0	
1	0	0	0	0	507	507	63	0	
2	0	0	0	0	510	509	63	0	
3	0	0	0	0	511	506	64	0	
4	0	0	0	0	510	509	62	0	
5	0	0	0	0	509	510	61	0	
6	0	0	0	0	509	508	63	0	
7	0	0	0	0	511	511	63	0	
8	0	0	0	0	514	507	63	0	
9	0	0	0	0	515	507	63	0	
10	0	0	0	0	512	508	64	0	
11	0	0	0	0	511	508	64	0	
12	0	0	0	0	512	507	64	0	
13	0	0	0	0	510	508	64	0	
14	0	0	0	0	512	508	64	0	
15	0	0	0	0	511	509	64	0	
0	0	0	0	0	512	507	64	0	
1	0	0	0	0	510	508	64	0	
2	0	0	0	0	510	508	64	0	
3	0	0	0	0	508	510	64	0	
4	0	0	0	0	512	508	64	0	
5	0	0	0	0	510	510	64	0	
6	0	0	0	0	510	508	64	0	
7	0	0	0	0	509	509	64	0	
8	0	0	0	0	512	510	65	0	
9	0	0	0	0	511	509	65	0	
10	0	0	0	0	513	506	65	0	
11	0	0	0	0	511	508	65	0	
12	0	0	0	0	512	507	64	0	
13	0	0	0	0	511	509	64	0	
14	0	0	0	0	512	510	64	0	
15	0	0	0	0	512	508	64	0	
0	0	0	0	0	515	507	64	0	
1	0	0	0	0	511	508	64	0	
2	0	0	0	0	511	507	64	0	
3	0	0	0	0	511	507	64	0	
4	0	0	0	0	510	508	64	0	
5	0	0	0	0	511	509	65	0	
6	0	0	0	0	508	506	65	0	
7	0	0	0	0	509	507	64	0	
8	0	0	0	0	511	509	64	0	
9	0	0	0	0	512	508	64	0	
10	0	0	0	0	508	508	64	0	
11	0	0	0	0	510	506	64	0	
12	0	0	0	0	511	508	64	0	
13	0	0	0	0	511	507	64	0	
14	0	0	0	0	511	508	64	0	
15	0	0	0	0	512	508	64	0	
0	0	0	0	0	514	508	63	0	
1	0	0	0	0	513	508	63	0	
2	0	0	0	0	513	507	63	0	
3	0	0	0	0	512	510	64	0	
4	0	0	0	0	511	508	64	0	
5	0	0	0	0	513	508	64	0	
6	0	0	0	0	513	508	64	0	
7	0	0	0	0	513	508	64	0	
8	0	0	0	0	511	509	64	0	
9	0	0	0	0	508	508	64	0	
10	0	0	0	0	510	507	64	0	
11	0	0	0	0	511	507	64	0	
12	0	0	0	0	510	506	63	0	
13	0	0	0	0	508	508	61	0	
14	0	0	0	0	510	508	62	0	
15	0	0	0	0	510	508	63	0	
0	0	0	0	0	511	509	62	0	
1	0	0	0	0	511	508	62	0	
2	0	0	0	0	511	507	61	0	
3	0	0	0	0	511	508	62	0	
4	0	0	0	0	513	509	61	0	
5	0	0	0	0	513	507	61	0	
6	0	0	0	0	512	506	62	0	
7	0	0	0	0	510	508	62	0	
8	0	0	0	0	512	508	62	0	
9	0	0	0	0	512	507	62	0	
10	0	0	0	0	512	509	62	0	
11	0	0	0	0	511	508	63	0	
12	0	0	0	0	509	508	64	0	
13	0	0	0	0	510	508	64	0	
14	0	0	0	0	510	508	64	0	
15	0	0	0	0	511	510	64	0	
0	0	0	0	0	510	509	64	0	
1	0	0	0	0	511	509	64	0	
2	0	0	0	0	511	508	64	0	
3	0	0	0	0	511	508	64	0	
4	0	0	0	0	511	506	64	0	
5	0	0	0	0	509	507	64	0	
6	0	0	0	0	511	507	64	0	
7	0	0	0	0	511	508	64	0	
8	0	0	0	0	510	510	63	0	
9	0	0	0	0	513	508	63	0	
10	0	0	0	0	513	508	64	0	
11	0	0	0	0	510	508	63	0	
12	0	0	0	0	513	508	63	0	
13	0	0	0	0	513	505	63	0	
14	0	0	0	0	512	506	63	0	
15	0	0	0	0	511	510	63	0	
0	0	0	0	0	511	510	63	0	
1	0	0	0	0	511	509	63	0	
2	0	0	0	0	511	509	63	0	
3	0	0	0	0	508	509	63	0	
4	0	0	0	0	508	508	63	0	
5	0	0	0	0	510	508	63	0	
6	0	0	0	0	509	506	63	0	
7	0	0	0	0	508	507	63	0	
8	0	0	0	0	509	508	63	0	
9	0	0	0	0	510	508	63	0	
10	0	0	0	0	512	508	63	0	
11	0	0	0	0	512	509	63	0	
12	0	0	0	0	513	507	63	0	
13	0	0	0	0	512	508	63	0	
14	0	0	0	0	512	508	63	0	
15	0	0	0	0	513	508	63	0	
0	0	0	0	0	514	507	63	0	
1	0	0	0	0	512	507	63	0	
2	0	0	0	0	513	508	63	0	
3	0	0	0	0	511	508	63	0	
4	0	0	0	0	511	506	63	0	
5	0	0	0	0	511	510	63	0	
6	0	0	0	0	510	507	63	0	
7	0	0	0	0	511	508	63	0	
8	0	0	0	0	509	508	63	0	
9	0	0	0	0	509	507	63	0	
10	0	0	0	0	509	507	63	0	
11	0	0	0	0	508	508	63	0	
12	0	0	0	0	510	508	64	0	
13	0	0	0	0	512	509	63	0	
14	0	0	0	0	510	506	64	0	
15	0	0	0	0	511	508	63	0	
0	0	0	0	0	512	509	64	0	
1	0	0	0	0	511	507	63	0	
2	0	0	0	0	512	508	64	0	
3	0	0	0	0	513	509	64	0	
4	0	0	0	0	511	510	64	0	
5	0	0	0	0	511	509	64	0	
6	0	0	0	0	512	510	64	0	
7	0	0	0	0	512	507	64	0	
8	0	0	0	0	511	506	63	0	
9	0	0	0	0	510	507	64	0	
10	0	0	0	0	510	508	64	0	
11	0	0	0	0	509	507	64	0	
12	0	0	0	0	509	508	65	0	
13	0	0	0	0	508	509	65	0	
14	0	0	0	0	510	507	65	0	
15	0	0	0	0	511	507	64	0	
0	0	0	0	0	509	509	64	0	
1	0	0	0	0	511	510	65	0	
2	0	0	0	0	512	507	64	0	
3	0	0	0	0	511	508	64	0	
4	0	0	0	0	512	506	64	0	
5	0	0	0	0	513	508	64	0	
6	0	0	0	0	512	507	64	0	
7	0	0	0	0	514	510	64	0	
8	0	0	0	0	513	508	64	0	
9	0	0	0	0	512	509	64	0	
10	0	0	0	0	511	505	64	0	
11	0	0	0	0	511	509	64	0	
12	0	0	0	0	510	508	64	0	
13	0	0	0	0	509	510	65	0	
14	0	0	0	0	509	508	65	0	
15	0	0	0	0	511	506	65	0	
0	0	0	0	0	511	508	65	0	
1	0	0	0	0	509	510	65	0	
2	0	0	0	0	510	510	65	0	
3	0	0	0	0	511	508	65	0	
4	0	0	0	0	510	508	65	0	
5	0	0	0	0	509	507	65	0	
6	0	0	0	0	512	509	65	0	
7	0	0	0	0	513	507	65	0	
8	0	0	0	0	512	506	65	0	
9	0	0	0	0	513	507	64	0	
10	0	0	0	0	515	511	65	0	
11	0	0	0	0	513	509	65	0	
12	0	0	0	0	511	507	65	0	
13	0	0	0	0	512	505	65	0	
14	0	0	0	0	511	508	65	0	
15	0	0	0	0	510	508	65	0	
0	0	0	0	0	510	508	64	0	
1	0	0	0	0	511	508	65	0	
2	0	0	0	0	512	510	65	0	
3	0	0	0	0	510	509	64	0	
4	0	0	0	0	509	507	65	0	
5	0	0	0	0	510	506	65	0	
6	0	0	0	0	509	507	64	0	
7	0	0	0	0	510	508	65	0	
8	0	0	0	0	511	506	65	0	
9	0	0	0	0	512	510	65	0	
10	0	0	0	0	512	508	65	0	
11	0	0	0	0	511	506	65	0	
12	0	0	0	0	512	508	65	0	
13	0	0	0	0	512	508	65	0	
14	0	0	0	0	511	507	65	0	
15	0	0	0	0	511	507	65	0	
0	0	0	0	0	511	510	65	0	
1	0	0	0	0	511	509	66	0	
2	0	0	0	0	510	508	65	0	
3	0	0	0	0	511	508	65	0	
4	0	0	0	0	510	507	66	0	
5	0	0	0	0	510	508	66	0	
6	0	0	0	0	509	508	66	0	
7	0	0	0	0	508	508	66	0	
8	0	0	0	0	508	509	65	0	
9	0	0	0	0	509	507	66	0	
10	0	0	0	0	509	510	65	0	
11	0	0	0	0	511	507	65	0	
12	0	0	0	0	511	509	65	0	
13	0	0	0	0	512	508	65	0	
14	0	0	0	0	512	508	65	0	
15	0	0	0	0	513	507	65	0	
0	0	0	0	0	512	509	65	0	
1	0	0	0	0	513	508	65	0	
2	0	0	0	0	514	508	65	0	
3	0	0	0	0	511	509	65	0	
4	0	0	0	0	512	508	64	0	
5	0	0	0	0	513	507	65	0	
6	0	0	0	0	511	507	63	0	
7	0	0	0	0	512	508	62	0	
8	0	0	0	0	509	507	63	0	
9	0	0	0	0	508	508	63	0	
10	0	0	0	0	510	510	63	0	
11	0	0	0	0	511	508	63	0	
12	0	0	0	0	507	508	63	0	
13	0	0	0	0	510	508	63	0	
14	0	0	0	0	512	508	62	0	
15	0	0	0	0	511	507	62	0	
0	0	0	0	0	511	508	62	0	
1	0	0	0	0	511	509	62	0	
2	0	0	0	0	513	510	62	0	
3	0	0	0	0	514	508	62	0	
4	0	0	0	0	512	506	62	0	
5	0	0	0	0	512	508	63	0	
6	0	0	0	0	511	509	62	0	
7	0	0	0	0	511	507	62	0	
8	0	0	0	0	513	509	62	0	
9	0	0	0	0	513	510	63	0	
10	0	0	0	0	511	508	63	0	
11	0	0	0	0	511	506	62	0	
12	0	0	0	0	510	507	62	0	
13	0	0	0	0	510	510	62	0	
14	0	0	0	0	510	507	61	0	
15	0	0	0	0	508	508	61	0	
0	0	0	0	0	512	510	61	0	
1	0	0	0	0	511	508	61	0	
2	0	0	0	0	511	508	61	0	
3	0	0	0	0	509	507	62	0	
4	0	0	0	0	509	505	62	0	
5	0	0	0	0	510	506	61	0	
6	0	0	0	0	511	509	62	0	
7	0	0	0	0	511	508	62	0	
8	0	0	0	0	511	509	62	0	
9	0	0	0	0	510	508	62	0	
10	0	0	0	0	512	508	62	0	
11	0	0	0	0	513	508	62	0	
12	0	0	0	0	513	508	62	0	
13	0	0	0	0	512	507	62	0	
14	0	0	0	0	512	510	62	0	
15	0	0	0	0	511	509	62	0	
0	0	0	0	0	512	507	62	0	
1	0	0	0	0	510	508	61	0	
2	0	0	0	0	509	507	61	0	
3	0	0	0	0	509	508	62	0	
4	0	0	0	0	508	508	61	0	
5	0	0	0	0	510	506	61	0	
6	0	0	0	0	510	509	61	0	
7	0	0	0	0	511	507	61	0	
8	0	0	0	0	513	508	61	0	
9	0	0	0	0	511	508	62	0	
10	0	0	0	0	512	509	62	0	
11	0	0	0	0	510	509	62	0	
12	0	0	0	0	512	507	62	0	
13	0	0	0	0	513	507	63	0	
14	0	0	0	0	513	507	62	0	
15	0	0	0	0	513	509	62	0	
0	0	0	0	0	512	507	62	0	
1	0	0	0	0	514	508	62	0	
2	0	0	0	0	511	507	62	0	
3	0	0	0	0	512	509	63	0	
4	0	0	0	0	509	510	63	0	
5	0	0	0	0	510	508	63	0	
6	0	0	0	0	511	509	64	0	
7	0	0	0	0	506	508	63	0	
8	0	0	0	0	508	507	63	0	
9	0	0	0	0	511	508	63	0	
10	0	0	0	0	508	508	62	0	
11	0	0	0	0	510	507	63	0	
12	0	0	0	0	508	510	62	0	
13	0	0	0	0	511	508	63	0	
14	0	0	0	0	511	508	63	0	
15	0	0	0	0	513	509	62	0	
0	0	0	0	0	512	507	62	0	
1	0	0	0	0	511	508	63	0	
2	0	0	0	0	513	508	63	0	
3	0	0	0	0	511	507	63	0	
4	0	0	0	0	511	509	63	0	
5	0	0	0	0	512	508	62	0	
6	0	0	0	0	512	508	63	0	
7	0	0	0	0	512	508	63	0	
8	0	0	0	0	511	509	63	0	
9	0	0	0	0	508	507	63	0	
10	0	0	0	0	509	508	63	0	
11	0	0	0	0	508	507	63	0	
12	0	0	0	0	509	509	64	0	
13	0	0	0	0	511	508	64	0	
14	0	0	0	0	511	509	63	0	
15	0	0	0	0	510	506	64	0	
0	0	0	0	0	512	505	64	0	
1	0	0	0	0	512	508	63	0	
2	0	0	0	0	511	508	63	0	
3	0	0	0	0	512	509	65	0	
4	0	0	0	0	512	508	64	0	
5	0	0	0	0	514	508	64	0	
6	0	0	0	0	512	507	64	0	
7	0	0	0	0	513	509	63	0	
8	0	0	0	0	513	506	63	0	
9	0	0	0	0	512	508	63	0	
10	0	0	0	0	511	509	63	0	
11	0	0	0	0	510	510	63	0	
12	0	0	0	0	511	508	63	0	
13	0	0	0	0	510	508	63	0	
14	0	0	0	0	510	507	63	0	
15	0	0	0	0	510	507	62	0	
0	0	0	0	0	510	509	62	0	
1	0	0	0	0	511	508	62	0	
2	0	0	0	0	507	508	63	0	
3	0	0	0	0	510	510	62	0	
4	0	0	0	0	511	507	62	0	
5	0	0	0	0	509	508	62	0	
6	0	0	0	0	513	507	61	0	
7	0	0	0	0	513	508	62	0	
8	0	0	0	0	511	509	61	0	
9	0	0	0	0	514	508	61	0	
10	0	0	0	0	515	508	61	0	
11	0	0	0	0	512	508	61	0	
12	0	0	0	0	512	506	61	0	
13	0	0	0	0	511	506	61	0	
14	0	0	0	0	512	509	61	0	
15	0	0	0	0	511	507	61	0	
0	0	0	0	0	510	508	61	0	
1	0	0	0	0	512	507	61	0	
2	0	0	0	0	511	508	61	0	
3	0	0	0	0	509	508	61	0	
4	0	0	0	0	510	508	61	0	
5	0	0	0	0	509	509	61	0	
6	0	0	0	0	510	509	60	0	
7	0	0	0	0	508	508	60	0	
8	0	0	0	0	511	510	60	0	
9	0	0	0	0	511	508	61	0	
10	0	0	0	0	510	508	61	0	
11	0	0	0	0	512	507	60	0	
12	0	0	0	0	511	508	60	0	
13	0	0	0	0	512	510	61	0	
14	0	0	0	0	512	507	61	0	
15	0	0	0	0	512	508	60	0	
0	0	0	0	0	513	509	61	0	
1	0	0	0	0	511	509	61	0	
2	0	0	0	0	510	506	60	0	
3	0	0	0	0	511	509	61	0	
4	0	0	0	0	511	508	61	0	
5	0	0	0	0	511	509	61	0	
6	0	0	0	0	510	508	61	0	
7	0	0	0	0	511	507	61	0	
8	0	0	0	0	510	505	61	0	
9	0	0	0	0	510	509	61	0	
10	0	0	0	0	508	507	61	0	
11	0	0	0	0	511	508	61	0	
12	0	0	0	0	508	508	61	0	
13	0	0	0	0	512	508	61	0	
14	0	0	0	0	511	509	61	0	
15	0	0	0	0	511	508	62	0	
0	0	0	0	0	511	505	61	0	
1	0	0	0	0	513	508	61	0	
2	0	0	0	0	514	508	61	0	
3	0	0	0	0	516	509	61	0	
4	0	0	0	0	513	508	61	0	
5	0	0	0	0	511	508	61	0	
6	0	0	0	0	509	506	61	0	
7	0	0	0	0	510	510	61	0	
8	0	0	0	0	511	509	61	0	
9	0	0	0	0	512	508	61	0	
10	0	0	0	0	508	507	60	0	
11	0	0	0	0	510	508	61	0	
12	0	0	0	0	511	508	61	0	
13	0	0	0	0	510	508	61	0	
14	0	0	0	0	510	508	61	0	
15	0	0	0	0	511	508	60	0	
0	0	0	0	0	510	509	59	0	
1	0	0	0	0	511	509	60	0	
2	0	0	0	0	510	508	60	0	
3	0	0	0	0	513	506	60	0	
4	0	0	0	0	513	508	61	0	
5	0	0	0	0	513	507	61	0	
6	0	0	0	0	511	510	61	0	
7	0	0	0	0	511	508	61	0	
8	0	0	0	0	510	507	62	0	
9	0	0	0	0	509	508	60	0	
10	0	0	0	0	511	509	62	0	
11	0	0	0	0	511	507	62	0	
12	0	0	0	0	510	509	62	0	
13	0	0	0	0	513	506	62	0	
14	0	0	0	0	512	508	62	0	
15	0	0	0	0	509	509	62	0	
0	0	0	0	0	511	509	62	0	
1	0	0	0	0	508	508	63	0	
2	0	0	0	0	510	507	63	0	
3	0	0	0	0	510	509	62	0	
4	0	0	0	0	510	508	62	0	
5	0	0	0	0	512	508	61	0	
6	0	0	0	0	511	507	61	0	
7	0	0	0	0	513	506	61	0	
8	0	0	0	0	511	508	61	0	
9	0	0	0	0	513	508	61	0	
10	0	0	0	0	514	510	61	0	
11	0	0	0	0	511	508	60	0	
12	0	0	0	0	511	509	60	0	
13	0	0	0	0	513	508	60	0	
14	0	0	0	0	511	504	61	0	
15	0	0	0	0	511	506	60	0	
0	0	0	0	0	512	508	61	0	
1	0	0	0	0	512	510	62	0	
2	0	0	0	0	510	509	61	0	
3	0	0	0	0	509	508	61	0	
4	0	0	0	0	509	507	61	0	
5	0	0	0	0	508	506	61	0	
6	0	0	0	0	510	509	61	0	
7	0	0	0	0	511	507	60	0	
8	0	0	0	0	510	510	60	0	
9	0	0	0	0	511	510	61	0	
10	0	0	0	0	511	507	62	0	
11	0	0	0	0	512	506	61	0	
12	0	0	0	0	511	511	61	0	
13	0	0	0	0	512	508	60	0	
14	0	0	0	0	511	507	60	0	
15	0	0	0	0	512	509	61	0	
0	0	0	0	0	512	509	61	0	
1	0	0	0	0	513	507	61	0	
2	0	0	0	0	512	509	61	0	
3	0	0	0	0	511	509	61	0	
4	0	0	0	0	511	508	61	0	
5	0	0	0	0	510	508	61	0	
6	0	0	0	0	510	508	61	0	
7	0	0	0	0	511	508	61	0	
8	0	0	0	0	509	507	62	0	
9	0	0	0	0	510	507	62	0	
10	0	0	0	0	510	507	62	0	
11	0	0	0	0	510	506	61	0	
12	0	0	0	0	509	509	62	0	
13	0	0	0	0	509	507	61	0	
14	0	0	0	0	511	508	62	0	
15	0	0	0	0	513	509	61	0	
0	0	0	0	0	512	509	61	0	
1	0	0	0	0	512	509	61	0	
2	0	0	0	0	512	508	62	0	
3	0	0	0	0	514	507	62	0	
4	0	0	0	0	512	507	62	0	
5	0	0	0	0	513	508	62	0	
6	0	0	0	0	511	509	63	0	
7	0	0	0	0	510	507	63	0	
8	0	0	0	0	511	509	63	0	
9	0	0	0	0	510	507	63	0	
10	0	0	0	0	509	506	63	0	
11	0	0	0	0	508	508	63	0	
12	0	0	0	0	511	509	63	0	
13	0	0	0	0	508	507	63	0	
14	0	0	0	0	511	507	63	0	
15	0	0	0	0	511	508	63	0	
0	0	0	0	0	509	510	64	0	
1	0	0	0	0	511	505	64	0	
2	0	0	0	0	510	507	63	0	
3	0	0	0	0	511	507	63	0	
4	0	0	0	0	513	508	63	0	
5	0	0	0	0	515	507	63	0	
6	0	0	0	0	511	508	63	0	
7	0	0	0	0	512	507	62	0	
8	0	0	0	0	512	507	63	0	
9	0	0	0	0	511	509	62	0	
10	0	0	0	0	512	508	63	0	
11	0	0	0	0	512	507	62	0	
12	0	0	0	0	510	508	62	0	
13	0	0	0	0	509	508	62	0	
14	0	0	0	0	509	507	62	0	
15	0	0	0	0	508	509	62	0	
0	0	0	0	0	508	508	62	0	
1	0	0	0	0	509	508	63	0	
2	0	0	0	0	511	508	63	0	
3	0	0	0	0	511	507	63	0	
4	0	0	0	0	511	509	63	0	
5	0	0	0	0	512	508	63	0	
6	0	0	0	0	511	508	63	0	
7	0	0	0	0	512	508	63	0	
8	0	0	0	0	512	508	63	0	
9	0	0	0	0	511	508	64	0	
10	0	0	0	0	513	507	63	0	
11	0	0	0	0	512	509	63	0	
12	0	0	0	0	514	508	63	0	
13	0	0	0	0	514	508	63	0	
14	0	0	0	0	509	507	62	0	
15	0	0	0	0	513	509	63	0	
0	0	0	0	0	510	507	63	0	
1	0	0	0	0	511	508	62	0	
2	0	0	0	0	509	506	62	0	
3	0	0	0	0	510	508	63	0	
4	0	0	0	0	510	509	63	0	
5	0	0	0	0	509	509	62	0	
6	0	0	0	0	510	508	62	0	
7	0	0	0	0	511	507	62	0	
8	0	0	0	0	509	508	63	0	
9	0	0	0	0	512	508	62	0	
10	0	0	0	0	512	509	63	0	
11	0	0	0	0	510	507	65	0	
12	0	0	0	0	515	507	66	0	
13	0	0	0	0	513	508	66	0	
14	0	0	0	0	511	508	66	0	
15	0	0	0	0	512	509	66	0	
0	0	0	0	0	511	508	67	0	
1	0	0	0	0	511	508	66	0	
2	0	0	0	0	512	509	67	0	
3	0	0	0	0	511	509	68	0	
4	0	0	0	0	512	507	68	0	
5	0	0	0	0	512	508	67	0	
6	0	0	0	0	511	506	69	0	
7	0	0	0	0	511	506	67	0	
8	0	0	0	0	507	508	68	0	
9	0	0	0	0	508	508	67	0	
10	0	0	0	0	509	509	69	0	
11	0	0	0	0	510	509	67	0	
12	0	0	0	0	511	507	67	0	
13	0	0	0	0	510	508	68	0	
14	0	0	0	0	511	509	68	0	
15	0	0	0	0	512	507	67	0	
0	0	0	0	0	515	510	68	0	
1	0	0	0	0	513	510	67	0	
2	0	0	0	0	512	505	68	0	
3	0	0	0	0	511	508	68	0	
4	0	0	0	0	512	507	68	0	
5	0	0	0	0	514	508	69	0	
6	0	0	0	0	512	509	67	0	
7	0	0	0	0	512	507	67	0	
8	0	0	0	0	511	507	68	0	
9	0	0	0	0	512	508	68	0	
10	0	0	0	0	510	509	68	0	
11	0	0	0	0	509	507	68	0	
12	0	0	0	0	508	508	67	0	
13	0	0	0	0	511	508	67	0	
14	0	0	0	0	510	507	65	0	
15	0	0	0	0	511	510	65	0	
0	0	0	0	0	511	509	66	0	
1	0	0	0	0	512	508	64	0	
2	0	0	0	0	511	508	63	0	
3	0	0	0	0	511	507	64	0	
4	0	0	0	0	512	507	63	0	
5	0	0	0	0	510	509	63	0	
6	0	0	0	0	511	508	63	0	
7	0	0	0	0	513	508	63	0	
8	0	0	0	0	511	508	63	0	
9	0	0	0	0	514	509	63	0	
10	0	0	0	0	512	508	63	0	
11	0	0	0	0	511	508	63	0	
12	0	0	0	0	510	507	63	0	
13	0	0	0	0	509	508	64	0	
14	0	0	0	0	511	507	63	0	
15	0	0	0	0	508	509	64	0	
0	0	0	0	0	509	508	65	0	
1	0	0	0	0	510	509	64	0	
2	0	0	0	0	510	509	64	0	
3	0	0	0	0	508	505	64	0	
4	0	0	0	0	509	509	64	0	
5	0	0	0	0	510	509	64	0	
6	0	0	0	0	512	507	64	0	
7	0	0	0	0	511	507	63	0	
8	0	0	0	0	514	508	64	0	
9	0	0	0	0	513	507	63	0	
10	0	0	0	0	513	508	63	0	
11	0	0	0	0	512	508	63	0	
12	0	0	0	0	510	507	63	0	
13	0	0	0	0	511	508	63	0	
14	0	0	0	0	512	508	64	0	
15	0	0	0	0	510	508	63	0	
0	0	0	0	0	511	508	63	0	
1	0	0	0	0	510	508	64	0	
2	0	0	0	0	510	509	63	0	
3	0	0	0	0	513	508	63	0	
4	0	0	0	0	512	508	63	0	
5	0	0	0	0	511	508	63	0	
6	0	0	0	0	511	508	65	0	
7	0	0	0	0	512	507	64	0	
8	0	0	0	0	511	508	63	0	
9	0	0	0	0	512	508	63	0	
10	0	0	0	0	511	508	64	0	
11	0	0	0	0	512	507	63	0	
12	0	0	0	0	511	507	63	0	
13	0	0	0	0	511	508	63	0	
14	0	0	0	0	511	507	64	0	
15	0	0	0	0	512	509	64	0	
0	0	0	0	0	511	511	64	0	
1	0	0	0	0	510	508	65	0	
2	0	0	0	0	513	508	63	0	
3	0	0	0	0	512	508	64	0	
4	0	0	0	0	511	508	63	0	
5	0	0	0	0	508	511	63	0	
6	0	0	0	0	511	507	64	0	
7	0	0	0	0	510	507	63	0	
8	0	0	0	0	507	507	64	0	
9	0	0	0	0	508	507	64	0	
10	0	0	0	0	509	507	64	0	
11	0	0	0	0	511	505	64	0	
12	0	0	0	0	510	507	64	0	
13	0	0	0	0	510	510	63	0	
14	0	0	0	0	508	508	63	0	
15	0	0	0	0	513	508	64	0	
0	0	0	0	0	514	508	65	0	
1	0	0	0	0	515	508	65	0	
2	0	0	0	0	512	509	65	0	
3	0	0	0	0	513	510	64	0	
4	0	0	0	0	513	508	64	0	
5	0	0	0	0	513	507	64	0	
6	0	0	0	0	511	508	64	0	
7	0	0	0	0	514	508	65	0	
8	0	0	0	0	511	508	64	0	
9	0	0	0	0	511	507	64	0	
10	0	0	0	0	511	508	63	0	
11	0	0	0	0	511	508	64	0	
12	0	0	0	0	507	507	64	0	
13	0	0	0	0	510	509	63	0	
14	0	0	0	0	510	508	63	0	
15	0	0	0	0	509	508	64	0	
0	0	0	0	0	511	508	63	0	
1	0	0	0	0	511	507	63	0	
2	0	0	0	0	510	508	63	0	
3	0	0	0	0	511	506	63	0	
4	0	0	0	0	513	506	63	0	
5	0	0	0	0	512	510	64	0	
6	0	0	0	0	512	508	64	0	
7	0	0	0	0	513	509	65	0	
8	0	0	0	0	512	509	65	0	
9	0	0	0	0	510	508	66	0	
10	0	0	0	0	511	509	66	0	
11	0	0	0	0	509	508	67	0	
12	0	0	0	0	510	507	66	0	
13	0	0	0	0	510	507	67	0	
14	0	0	0	0	511	508	67	0	
15	0	0	0	0	511	507	68	0	
0	0	0	0	0	511	507	68	0	
1	0	0	0	0	511	509	66	0	
2	0	0	0	0	509	507	67	0	
3	0	0	0	0	508	509	67	0	
4	0	0	0	0	508	509	66	0	
5	0	0	0	0	511	508	67	0	
6	0	0	0	0	513	508	66	0	
7	0	0	0	0	512	507	67	0	
8	0	0	0	0	512	507	67	0	
9	0	0	0	0	511	507	67	0	
10	0	0	0	0	514	508	66	0	
11	0	0	0	0	514	508	67	0	
12	0	0	0	0	511	508	67	0	
13	0	0	0	0	511	509	67	0	
14	0	0	0	0	511	509	67	0	
15	0	0	0	0	512	510	67	0	
0	0	0	0	0	511	508	67	0	
1	0	0	0	0	509	508	67	0	
2	0	0	0	0	511	510	67	0	
3	0	0	0	0	509	508	68	0	
4	0	0	0	0	508	508	67	0	
5	0	0	0	0	508	507	68	0	
6	0	0	0	0	509	507	68	0	
7	0	0	0	0	511	508	67	0	
8	0	0	0	0	510	507	67	0	
9	0	0	0	0	510	508	67	0	
10	0	0	0	0	512	509	66	0	
11	0	0	0	0	512	507	67	0	
12	0	0	0	0	513	508	67	0	
13	0	0	0	0	512	507	67	0	
14	0	0	0	0	513	508	67	0	
15	0	0	0	0	513	510	67	0	
0	0	0	0	0	515	508	67	0	
1	0	0	0	0	512	507	67	0	
2	0	0	0	0	510	508	68	0	
3	0	0	0	0	514	508	68	0	
4	0	0	0	0	513	508	68	0	
5	0	0	0	0	511	509	67	0	
6	0	0	0	0	511	509	67	0	
7	0	0	0	0	509	509	67	0	
8	0	0	0	0	511	508	68	0	
9	0	0	0	0	511	509	68	0	
10	0	0	0	0	511	510	68	0	
11	0	0	0	0	510	507	67	0	
12	0	0	0	0	511	508	68	0	
13	0	0	0	0	511	509	68	0	
14	0	0	0	0	509	507	68	0	
15	0	0	0	0	512	508	68	0	
0	0	0	0	0	512	508	68	0	
1	0	0	0	0	511	509	68	0	
2	0	0	0	0	512	509	67	0	
3	0	0	0	0	513	508	68	0	
4	0	0	0	0	512	509	68	0	
5	0	0	0	0	511	508	68	0	
6	0	0	0	0	512	505	68	0	
7	0	0	0	0	512	508	67	0	
8	0	0	0	0	509	510	68	0	
9	0	0	0	0	510	507	68	0	
10	0	0	0	0	508	509	68	0	
11	0	0	0	0	510	508	69	0	
12	0	0	0	0	510	508	68	0	
13	0	0	0	0	511	507	67	0	
14	0	0	0	0	511	508	68	0	
15	0	0	0	0	511	508	68	0	
0	0	0	0	0	508	507	68	0	
1	0	0	0	0	512	507	68	0	
2	0	0	0	0	512	508	68	0	
3	0	0	0	0	513	508	68	0	
4	0	0	0	0	512	508	68	0	
5	0	0	0	0	511	508	68	0	
6	0	0	0	0	512	509	69	0	
7	0	0	0	0	512	508	69	0	
8	0	0	0	0	513	508	69	0	
9	0	0	0	0	511	510	69	0	
10	0	0	0	0	511	509	69	0	
11	0	0	0	0	511	507	69	0	
12	0	0	0	0	510	508	69	0	
13	0	0	0	0	511	508	69	0	
14	0	0	0	0	511	508	69	0	
15	0	0	0	0	509	507	69	0	
0	0	0	0	0	509	508	69	0	
1	0	0	0	0	507	508	69	0	
2	0	0	0	0	509	508	69	0	
3	0	0	0	0	511	507	68	0	
4	0	0	0	0	510	509	69	0	
5	0	0	0	0	510	509	69	0	
6	0	0	0	0	511	508	69	0	
7	0	0	0	0	510	507	69	0	
8	0	0	0	0	512	509	69	0	
9	0	0	0	0	512	508	70	0	
10	0	0	0	0	512	509	70	0	
11	0	0	0	0	515	509	70	0	
12	0	0	0	0	512	505	69	0	
13	0	0	0	0	514	507	69	0	
14	0	0	0	0	512	508	69	0	
15	0	0	0	0	511	510	69	0	
0	0	0	0	0	513	509	69	0	
1	0	0	0	0	512	509	70	0	
2	0	0	0	0	510	507	68	0	
3	0	0	0	0	505	507	68	0	
4	0	0	0	0	509	508	69	0	
5	0	0	0	0	511	507	68	0	
6	0	0	0	0	510	507	68	0	
7	0	0	0	0	508	508	66	0	
8	0	0	0	0	511	508	67	0	
9	0	0	0	0	511	510	66	0	
10	0	0	0	0	514	509	65	0	
11	0	0	0	0	512	506	65	0	
12	0	0	0	0	511	508	66	0	
13	0	0	0	0	512	508	66	0	
14	0	0	0	0	513	509	66	0	
15	0	0	0	0	512	508	67	0	
0	0	0	0	0	512	508	67	0	
1	0	0	0	0	511	507	67	0	
2	0	0	0	0	511	509	66	0	
3	0	0	0	0	509	508	67	0	
4	0	0	0	0	514	508	66	0	
5	0	0	0	0	510	507	66	0	
6	0	0	0	0	508	509	66	0	
7	0	0	0	0	510	506	66	0	
8	0	0	0	0	510	507	67	0	
9	0	0	0	0	511	508	67	0	
10	0	0	0	0	508	507	67	0	
11	0	0	0	0	512	508	66	0	
12	0	0	0	0	510	507	67	0	
13	0	0	0	0	509	508	66	0	
14	0	0	0	0	512	507	65	0	
15	0	0	0	0	512	508	65	0	
0	0	0	0	0	511	509	65	0	
1	0	0	0	0	511	509	65	0	
2	0	0	0	0	512	507	66	0	
3	0	0	0	0	512	507	66	0	
4	0	0	0	0	511	507	65	0	
5	0	0	0	0	511	511	65	0	
6	0	0	0	0	511	510	65	0	
7	0	0	0	0	510	506	64	0	
8	0	0	0	0	512	508	66	0	
9	0	0	0	0	509	507	65	0	
10	0	0	0	0	510	508	65	0	
11	0	0	0	0	510	509	64	0	
12	0	0	0	0	511	509	65	0	
13	0	0	0	0	509	510	65	0	
14	0	0	0	0	510	508	65	0	
15	0	0	0	0	510	508	64	0	
0	0	0	0	0	512	507	64	0	
1	0	0	0	0	511	507	63	0	
2	0	0	0	0	510	508	65	0	
3	0	0	0	0	512	508	65	0	
4	0	0	0	0	512	508	65	0	
5	0	0	0	0	513	509	64	0	
6	0	0	0	0	512	508	65	0	
7	0	0	0	0	513	508	65	0	
8	0	0	0	0	512	508	64	0	
9	0	0	0	0	511	508	64	0	
10	0	0	0	0	512	508	65	0	
11	0	0	0	0	510	507	65	0	
12	0	0	0	0	513	507	65	0	
13	0	0	0	0	510	508	65	0	
14	0	0	0	0	510	507	65	0	
15	0	0	0	0	510	510	65	0	
0	0	0	0	0	508	507	65	0	
1	0	0	0	0	510	509	65	0	
2	0	0	0	0	510	508	65	0	
3	0	0	0	0	509	509	65	0	
4	0	0	0	0	510	508	63	0	
5	0	0	0	0	511	509	65	0	
6	0	0	0	0	511	509	65	0	
7	0	0	0	0	513	508	65	0	
8	0	0	0	0	514	508	65	0	
9	0	0	0	0	514	508	65	0	
10	0	0	0	0	512	508	65	0	
11	0	0	0	0	512	509	65	0	
12	0	0	0	0	512	508	66	0	
13	0	0	0	0	511	506	65	0	
14	0	0	0	0	511	505	67	0	
15	0	0	0	0	512	507	66	0	
0	0	0	0	0	509	507	67	0	
1	0	0	0	0	509	508	66	0	
2	0	0	0	0	508	509	66	0	
3	0	0	0	0	511	508	67	0	
4	0	0	0	0	510	509	67	0	
5	0	0	0	0	511	508	66	0	
6	0	0	0	0	510	506	66	0	
7	0	0	0	0	509	508	66	0	
8	0	0	0	0	512	508	66	0	
9	0	0	0	0	512	509	66	0	
10	0	0	0	0	514	510	66	0	
11	0	0	0	0	511	507	66	0	
12	0	0	0	0	511	509	66	0	
13	0	0	0	0	511	509	66	0	
14	0	0	0	0	512	509	66	0	
15	0	0	0	0	510	507	65	0	
0	0	0	0	0	512	508	65	0	
1	0	0	0	0	511	508	66	0	
2	0	0	0	0	512	508	65	0	
3	0	0	0	0	512	508	66	0	
4	0	0	0	0	511	508	66	0	
5	0	0	0	0	511	508	65	0	
6	0	0	0	0	511	507	66	0	
7	0	0	0	0	509	506	66	0	
8	0	0	0	0	510	505	66	0	
9	0	0	0	0	508	507	66	0	
10	0	0	0	0	511	507	65	0	
11	0	0	0	0	510	510	66	0	
12	0	0	0	0	509	510	66	0	
13	0	0	0	0	509	509	66	0	
14	0	0	0	0	512	508	67	0	
15	0	0	0	0	513	507	66	0	
0	0	0	0	0	511	508	66	0	
1	0	0	0	0	511	508	66	0	
2	0	0	0	0	511	508	66	0	
3	0	0	0	0	512	507	66	0	
4	0	0	0	0	513	508	67	0	
5	0	0	0	0	511	510	66	0	
6	0	0	0	0	514	507	66	0	
7	0	0	0	0	509	508	66	0	
8	0	0	0	0	512	509	65	0	
9	0	0	0	0	510	509	65	0	
10	0	0	0	0	509	510	66	0	
11	0	0	0	0	509	508	66	0	
12	0	0	0	0	508	506	66	0	
13	0	0	0	0	511	508	66	0	
14	0	0	0	0	510	507	65	0	
15	0	0	0	0	509	506	65	0	
0	0	0	0	0	510	509	66	0	
1	0	0	0	0	511	508	65	0	
2	0	0	0	0	512	509	66	0	
3	0	0	0	0	513	508	66	0	
4	0	0	0	0	511	507	65	0	
5	0	0	0	0	511	509	66	0	
6	0	0	0	0	513	510	66	0	
7	0	0	0	0	510	508	66	0	
8	0	0	0	0	511	505	66	0	
9	0	0	0	0	511	507	65	0	
10	0	0	0	0	512	508	65	0	
11	0	0	0	0	511	508	66	0	
12	0	0	0	0	511	508	65	0	
13	0	0	0	0	512	508	66	0	
14	0	0	0	0	511	509	66	0	
15	0	0	0	0	510	508	67	0	
0	0	0	0	0	508	508	66	0	
1	0	0	0	0	511	506	65	0	
2	0	0	0	0	507	508	66	0	
3	0	0	0	0	511	508	65	0	
4	0	0	0	0	511	507	66	0	
5	0	0	0	0	510	509	66	0	
6	0	0	0	0	509	508	65	0	
7	0	0	0	0	512	509	65	0	
8	0	0	0	0	512	508	65	0	
9	0	0	0	0	513	508	65	0	
10	0	0	0	0	512	506	65	0	
11	0	0	0	0	512	509	65	0	
12	0	0	0	0	511	509	67	0	
13	0	0	0	0	512	508	65	0	
14	0	0	0	0	513	509	66	0	
15	0	0	0	0	511	509	66	0	
0	0	0	0	0	512	506	65	0	
1	0	0	0	0	509	508	65	0	
2	0	0	0	0	509	508	66	0	
3	0	0	0	0	509	509	65	0	
4	0	0	0	0	509	507	65	0	
5	0	0	0	0	510	508	65	0	
6	0	0	0	0	511	510	65	0	
7	0	0	0	0	508	507	65	0	
8	0	0	0	0	508	507	65	0	
9	0	0	0	0	512	507	65	0	
10	0	0	0	0	512	510	65	0	
11	0	0	0	0	512	508	65	0	
12	0	0	0	0	512	508	65	0	
13	0	0	0	0	512	507	65	0	
14	0	0	0	0	518	506	66	0	
15	0	0	0	0	514	508	65	0	
0	0	0	0	0	504	508	66	0	
1	0	0	0	0	507	506	65	0	
2	0	0	0	0	507	508	64	0	
3	0	0	0	0	507	508	65	0	
4	0	0	0	0	507	508	65	0	
5	0	0	0	0	504	508	65	0	
6	0	0	0	0	506	508	65	0	
7	0	0	0	0	514	507	65	0	
8	0	0	0	0	530	508	65	0	
9	0	0	0	0	535	508	65	0	
10	0	0	0	0	519	508	65	0	
11	0	0	0	0	519	508	65	0	
12	0	0	0	0	509	510	65	0	
13	0	0	0	0	495	507	64	0	
14	0	0	0	0	484	508	65	0	
15	0	0	0	0	481	508	65	0	
0	0	0	0	0	481	507	65	0	
1	0	0	0	0	494	508	64	0	
2	0	0	0	0	501	510	65	0	
3	0	0	0	0	510	508	67	0	
4	0	0	0	0	550	506	66	0	
5	0	0	0	0	590	507	65	0	
6	0	0	0	0	573	509	67	0	
7	0	0	0	0	519	511	70	0	
8	0	0	0	0	496	508	71	0	
9	0	0	0	0	493	504	72	0	
10	0	0	0	0	487	508	71	0	
11	0	0	0	0	483	508	71	0	
12	0	0	0	0	502	510	70	0	
13	0	0	0	0	537	509	71	0	
14	0	0	0	0	495	507	69	0	
15	0	0	0	0	487	507	69	0	
0	0	0	0	0	482	508	68	0	
1	0	0	0	0	492	507	71	0	
2	0	0	0	0	506	506	69	0	
3	0	0	0	0	505	507	72	0	
4	0	0	0	0	528	508	73	0	
5	0	0	0	0	531	508	72	0	
6	0	0	0	0	540	508	71	0	
7	0	0	0	0	540	511	70	0	
8	0	0	0	0	531	507	69	0	
9	0	0	0	0	497	510	68	0	
10	0	0	0	0	480	503	70	0	
11	0	0	0	0	486	502	65	0	
12	0	0	0	0	515	503	66	0	
13	0	0	0	0	562	513	65	0	
14	0	0	0	0	552	518	67	0	
15	0	0	0	0	536	513	67	0	
0	0	0	0	0	508	507	64	0	
1	0	0	0	0	510	505	67	0	
2	0	0	0	0	502	512	67	0	
3	0	0	0	0	457	512	75	0	
4	0	0	0	0	416	508	84	0	
5	0	0	0	0	457	508	88	0	
6	0	0	0	0	513	507	105	0	
7	0	0	0	0	563	506	110	0	
8	0	0	0	0	568	507	118	0	
9	0	0	0	0	528	509	130	0	
10	0	0	0	0	509	509	134	0	
11	0	0	0	0	512	509	138	0	
12	0	0	0	0	516	505	143	0	
13	0	0	0	0	480	506	146	0	
14	0	0	0	0	456	501	144	0	
15	0	0	0	0	475	501	151	0	
0	0	0	0	0	536	508	154	0	
1	0	0	0	0	582	507	152	0	
2	0	0	0	0	576	505	158	0	
3	0	0	0	0	565	509	163	0	
4	0	0	0	0	555	519	169	0	
5	0	0	0	0	534	519	171	0	
6	0	0	0	0	478	510	172	0	
7	0	0	0	0	472	509	179	0	
8	0	0	0	0	468	509	178	0	
9	0	0	0	0	476	508	178	0	
10	0	0	0	0	460	504	179	0	
11	0	0	0	0	483	503	178	0	
12	0	0	0	0	511	505	178	0	
13	0	0	0	0	543	505	177	0	
14	0	0	0	0	508	500	177	0	
15	0	0	0	0	498	504	177	0	
0	0	0	0	0	511	499	177	0	
1	0	0	0	0	496	502	175	0	
2	0	0	0	0	515	508	173	0	
3	0	0	0	0	559	511	174	0	
4	0	0	0	0	600	521	173	0	
5	0	0	0	0	534	516	172	0	
6	0	0	0	0	469	510	173	0	
7	0	0	0	0	478	521	172	0	
8	0	0	0	0	498	513	174	0	
9	0	0	0	0	444	505	178	0	
10	0	0	0	0	405	505	180	0	
11	0	0	0	0	514	503	184	0	
12	0	0	0	0	526	504	188	0	
13	0	0	0	0	471	501	188	0	
14	0	0	0	0	466	504	191	0	
15	0	0	0	0	551	508	189	0	
0	0	0	0	0	620	510	191	0	
1	0	0	0	0	671	506	190	0	
2	0	0	0	0	630	519	192	0	
3	0	0	0	0	530	508	193	0	
4	0	0	0	0	511	503	190	0	
5	0	0	0	0	480	499	187	0	
6	0	0	0	0	534	511	190	0	
7	0	0	0	0	527	518	185	0	
8	0	0	0	0	463	514	188	0	
9	0	0	0	0	481	512	190	0	
10	0	0	0	0	479	502	189	0	
11	0	0	0	0	455	500	187	0	
12	0	0	0	0	462	505	182	0	
13	0	0	0	0	486	507	183	0	
14	0	0	0	0	511	506	183	0	
15	0	0	0	0	484	502	183	0	
0	0	0	0	0	480	507	182	0	
1	0	0	0	0	520	512	184	0	
2	0	0	0	0	577	515	179	0	
3	0	0	0	0	552	503	179	0	
4	0	0	0	0	477	498	177	0	
5	0	0	0	0	508	507	174	0	
6	0	0	0	0	580	514	173	0	
7	0	0	0	0	588	508	169	0	
8	0	0	0	0	500	505	166	0	
9	0	0	0	0	472	513	165	0	
10	0	0	0	0	488	515	161	0	
11	0	0	0	0	510	511	159	0	
12	0	0	0	0	463	501	157	0	
13	0	0	0	0	488	507	157	0	
14	0	0	0	0	561	513	152	0	
15	0	0	0	0	536	513	151	0	
0	0	0	0	0	474	512	145	0	
1	0	0	0	0	448	508	142	0	
2	0	0	0	0	527	506	137	0	
3	0	0	0	0	507	509	134	0	
4	0	0	0	0	410	501	134	0	
5	0	0	0	0	395	499	127	0	
6	0	0	0	0	475	503	123	0	
7	0	0	0	0	582	512	120	0	
8	0	0	0	0	580	515	116	0	
9	0	0	0	0	565	516	115	0	
10	0	0	0	0	599	518	113	0	
11	0	0	0	0	582	516	106	0	
12	0	0	0	0	511	512	99	0	
13	0	0	0	0	438	502	92	0	
14	0	0	0	0	429	498	86	0	
15	0	0	0	0	432	503	85	0	
0	0	0	0	0	454	505	78	0	
1	0	0	0	0	490	501	68	0	
2	0	0	0	0	568	502	57	0	
3	0	0	0	0	636	507	49	0	
4	0	0	0	0	645	512	41	0	
5	0	0	0	0	651	518	33	0	
6	0	0	0	0	534	515	34	0	
7	0	0	0	0	465	505	31	0	
8	0	0	0	0	462	500	25	0	
9	0	0	0	0	426	503	13	0	
10	0	0	0	0	376	502	8	0	
11	0	0	0	0	437	504	3	0	
12	0	0	0	0	495	508	0	0	
13	0	0	0	0	555	506	0	0	
14	0	0	0	0	668	510	0	0	
15	0	0	0	0	700	513	0	0	
0	0	0	0	0	575	512	0	0	
1	0	0	0	0	504	514	0	0	
2	0	0	0	0	466	509	0	0	
3	0	0	0	0	424	508	0	0	
4	0	0	0	0	473	511	0	0	
5	0	0	0	0	497	507	0	0	
6	0	0	0	0	497	502	0	0	
7	0	0	0	0	551	504	0	0	
8	0	0	0	0	451	502	0	0	
9	0	0	0	0	400	513	0	0	
10	0	0	0	0	444	518	0	0	
11	0	0	0	0	468	516	0	0	
12	0	0	0	0	482	511	0	0	
13	0	0	0	0	490	508	0	0	
14	0	0	0	0	510	508	0	0	
15	0	0	0	0	536	505	0	0	
0	0	0	0	0	575	503	0	0	
1	0	0	0	0	528	500	0	0	
2	0	0	0	0	471	504	0	0	
3	0	0	0	0	518	512	0	0	
4	0	0	0	0	537	512	0	0	
5	0	0	0	0	615	517	0	0	
6	0	0	0	0	542	515	0	0	
7	0	0	0	0	464	510	0	0	
8	0	0	0	0	406	495	0	0	
9	0	0	0	0	423	499	0	0	
10	0	0	0	0	484	504	0	0	
11	0	0	0	0	591	503	0	0	
12	0	0	0	0	662	505	0	0	
13	0	0	0	0	583	508	0	0	
14	0	0	0	0	521	515	0	0	
15	0	0	0	0	413	517	0	0	
0	0	0	0	0	400	508	0	0	
1	0	0	0	0	435	499	0	0	
2	0	0	0	0	479	502	0	0	
3	0	0	0	0	687	518	0	0	
4	0	0	0	0	757	524	0	0	
5	0	0	0	0	651	509	0	0	
6	0	0	0	0	588	505	0	0	
7	0	0	0	0	477	499	0	0	
8	0	0	0	0	432	500	0	0	
9	0	0	0	0	448	510	0	0	
10	0	0	0	0	400	510	0	0	
11	0	0	0	0	389	508	0	0	
12	0	0	0	0	459	512	0	0	
13	0	0	0	0	503	509	0	0	
14	0	0	0	0	544	513	0	0	
15	0	0	0	0	475	512	0	0	
0	0	0	0	0	474	512	0	0	
1	0	0	0	0	543	512	0	0	
2	0	0	0	0	543	487	0	0	
3	0	0	0	0	591	480	0	0	
4	0	0	0	0	609	514	0	0	
5	0	0	0	0	542	523	0	0	
6	0	0	0	0	483	525	0	0	
7	0	0	0	0	432	514	0	0	
8	0	0	0	0	443	509	0	0	
9	0	0	0	0	460	509	0	0	
10	0	0	0	0	465	506	0	0	
11	0	0	0	0	533	495	0	0	
12	0	0	0	0	508	495	0	0	
13	0	0	0	0	479	502	0	0	
14	0	0	0	0	434	510	0	0	
15	0	0	0	0	485	520	0	0	
0	0	0	0	0	558	527	0	0	
1	0	0	0	0	630	527	0	0	
2	0	0	0	0	604	520	0	0	
3	0	0	0	0	546	494	0	0	
4	0	0	0	0	518	484	0	0	
5	0	0	0	0	496	487	0	0	
6	0	0	0	0	456	505	0	0	
7	0	0	0	0	442	508	0	0	
8	0	0	0	0	483	510	0	0	
9	0	0	0	0	450	503	0	0	
10	0	0	0	0	461	510	0	0	
11	0	0	0	0	545	523	0	0	
12	0	0	0	0	601	527	0	0	
13	0	0	0	0	588	522	0	0	
14	0	0	0	0	593	504	0	0	
15	0	0	0	0	540	490	0	0	
0	0	0	0	0	486	518	0	0	
1	0	0	0	0	500	519	0	0	
2	0	0	0	0	438	497	0	0	
3	0	0	0	0	469	502	0	0	
4	0	0	0	0	581	518	0	0	
5	0	0	0	0	600	513	0	0	
6	0	0	0	0	554	504	0	0	
7	0	0	0	0	438	487	0	0	
8	0	0	0	0	356	459	0	0	
9	0	0	0	0	342	483	0	0	
10	0	0	0	0	426	510	0	0	
11	0	0	0	0	669	525	0	0	
12	0	0	0	0	770	544	0	0	
13	0	0	0	0	689	556	0	0	
14	0	0	0	0	527	517	0	0	
15	0	0	0	0	440	512	0	0	
0	0	0	0	0	431	506	0	0	
1	0	0	0	0	457	480	0	0	
2	0	0	0	0	480	468	0	0	
3	0	0	0	0	481	495	0	0	
4	0	0	0	0	512	513	0	0	
5	0	0	0	0	512	515	0	0	
6	0	0	0	0	532	515	0	0	
7	0	0	0	0	489	516	0	0	
8	0	0	0	0	433	501	0	0	
9	0	0	0	0	421	513	0	0	
10	0	0	0	0	469	512	0	0	
11	0	0	0	0	533	504	0	0	
12	0	0	0	0	595	510	0	0	
13	0	0	0	0	476	513	0	0	
14	0	0	0	0	446	517	0	0	
15	0	0	0	0	499	517	0	0	
0	0	0	0	0	577	512	0	0	
1	0	0	0	0	551	507	0	0	
2	0	0	0	0	589	510	0	0	
3	0	0	0	0	566	529	0	0	
4	0	0	0	0	579	504	0	0	
5	0	0	0	0	520	460	0	0	
6	0	0	0	0	521	487	0	0	
7	0	0	0	0	515	517	0	0	
8	0	0	0	0	487	515	0	0	
9	0	0	0	0	520	506	0	0	
10	0	0	0	0	521	508	0	0	
11	0	0	0	0	519	509	0	0	
12	0	0	0	0	480	512	0	0	
13	0	0	0	0	422	518	0	0	
14	0	0	0	0	404	519	0	0	
15	0	0	0	0	477	515	0	0	
0	0	0	0	0	504	511	0	0	
1	0	0	0	0	494	522	0	0	
2	0	0	0	0	513	511	0	0	
3	0	0	0	0	466	503	0	0	
4	0	0	0	0	539	510	0	0	
5	0	0	0	0	510	502	0	0	
6	0	0	0	0	520	505	0	0	
7	0	0	0	0	566	478	0	0	
8	0	0	0	0	538	478	0	0	
9	0	0	0	0	528	511	0	0	
10	0	0	0	0	540	515	0	0	
11	0	0	0	0	524	515	0	0	
12	0	0	0	0	484	519	0	0	
13	0	0	0	0	489	520	0	0	
14	0	0	0	0	561	516	0	0	
15	0	0	0	0	499	516	0	0	
0	0	0	0	0	495	507	0	0	
1	0	0	0	0	461	506	0	0	
2	0	0	0	0	541	508	0	0	
3	0	0	0	0	628	510	0	0	
4	0	0	0	0	648	506	0	0	
5	0	0	0	0	496	492	0	0	
6	0	0	0	0	462	510	0	0	
7	0	0	0	0	495	532	0	0	
8	0	0	0	0	539	531	0	0	
9	0	0	0	0	491	508	0	0	
10	0	0	0	0	492	516	0	0	
11	0	0	0	0	516	494	0	0	
12	0	0	0	0	368	438	0	0	
13	0	0	0	0	382	448	0	0	
14	0	0	0	0	454	517	0	0	
15	0	0	0	0	505	547	0	0	
0	0	0	0	0	700	495	0	0	
1	0	0	0	0	583	506	0	0	
2	0	0	0	0	385	542	0	0	
3	0	0	0	0	425	540	0	0	
4	0	0	0	0	487	507	0	0	
5	0	0	0	0	613	505	0	0	
6	0	0	0	0	618	530	0	0	
7	0	0	0	0	534	552	0	0	
8	0	0	0	0	572	481	0	0	
9	0	0	0	0	551	428	0	0	
10	0	0	0	0	510	487	0	0	
11	0	0	0	0	473	500	0	0	
12	0	0	0	0	470	518	0	0	
13	0	0	0	0	458	534	0	0	
14	0	0	0	0	388	528	0	0	
15	0	0	0	0	389	533	0	0	
0	0	0	0	0	472	526	0	0	
1	0	0	0	0	616	526	0	0	
2	0	0	0	0	591	500	0	0	
3	0	0	0	0	588	486	0	0	
4	0	0	0	0	587	468	0	0	
5	0	0	0	0	555	481	0	0	
6	0	0	0	0	513	512	0	0	
7	0	0	0	0	504	522	0	0	
8	0	0	0	0	368	520	0	0	
9	0	0	0	0	338	511	0	0	
10	0	0	0	0	500	508	0	0	
11	0	0	0	0	535	533	0	0	
12	0	0	0	0	609	545	0	0	
13	0	0	0	0	659	499	0	0	
14	0	0	0	0	670	468	0	0	
15	0	0	0	0	497	508	0	0	
0	0	0	0	0	414	511	0	0	
1	0	0	0	0	454	483	0	0	
2	0	0	0	0	465	481	0	0	
3	0	0	0	0	372	511	0	0	
4	0	0	0	0	443	525	0	0	
5	0	0	0	0	467	512	0	0	
6	0	0	0	0	525	495	0	0	
7	0	0	0	0	764	501	0	0	
8	0	0	0	0	713	532	0	0	
9	0	0	0	0	585	535	0	0	
10	0	0	0	0	485	529	0	0	
11	0	0	0	0	446	508	0	0	
12	0	0	0	0	479	496	0	0	
13	0	0	0	0	494	507	0	0	
14	0	0	0	0	444	515	0	0	
15	0	0	0	0	370	497	0	0	
0	0	0	0	0	384	494	0	0	
1	0	0	0	0	593	520	0	0	
2	0	0	0	0	618	533	0	0	
3	0	0	0	0	563	523	0	0	
4	0	0	0	0	529	493	0	0	
5	0	0	0	0	491	497	0	0	
6	0	0	0	0	428	519	0	0	
7	0	0	0	0	512	542	0	0	
8	0	0	0	0	489	513	0	0	
9	0	0	0	0	478	513	0	0	
10	0	0	0	0	557	502	0	0	
11	0	0	0	0	533	440	0	0	
12	0	0	0	0	572	446	0	0	
13	0	0	0	0	610	498	0	0	
14	0	0	0	0	531	507	0	0	
15	0	0	0	0	441	501	0	0	
0	0	0	0	0	359	503	0	0	
1	0	0	0	0	412	534	0	0	
2	0	0	0	0	454	539	0	0	
3	0	0	0	0	464	515	0	0	
4	0	0	0	0	605	519	0	0	
5	0	0	0	0	691	531	0	0	
6	0	0	0	0	483	512	0	0	
7	0	0	0	0	525	486	0	0	
8	0	0	0	0	505	521	0	0	
9	0	0	0	0	524	533	0	0	
10	0	0	0	0	559	506	0	0	
11	0	0	0	0	396	497	0	0	
12	0	0	0	0	442	517	0	0	
13	0	0	0	0	551	534	0	0	
14	0	0	0	0	612	497	0	0	
15	0	0	0	0	608	496	0	0	
0	0	0	0	0	520	495	0	0	
1	0	0	0	0	573	479	0	0	
2	0	0	0	0	594	475	0	0	
3	0	0	0	0	542	473	0	0	
4	0	0	0	0	467	520	0	0	
5	0	0	0	0	412	554	0	0	
6	0	0	0	0	351	528	0	0	
7	0	0	0	0	432	510	0	0	
8	0	0	0	0	522	535	0	0	
9	0	0	0	0	513	493	0	0	
10	0	0	0	0	541	471	0	0	
11	0	0	0	0	576	477	0	0	
12	0	0	0	0	648	504	0	0	
13	0	0	0	0	568	542	0	0	
14	0	0	0	0	316	508	0	0	
15	0	0	0	0	294	518	0	0	
0	0	0	0	0	430	535	0	0	
1	0	0	0	0	553	514	0	0	
2	0	0	0	0	718	477	0	0	
3	0	0	0	0	628	487	0	0	
4	0	0	0	0	504	534	0	0	
5	0	0	0	0	455	540	0	0	
6	0	0	0	0	346	513	0	0	
7	0	0	0	0	378	494	1	2	
8	0	0	0	0	521	519	2	35	
9	0	0	0	0	634	526	3	31	
10	0	0	0	0	548	527	4	29	
11	0	0	0	0	504	517	5	29	
12	0	0	0	0	503	511	6	28	
13	0	0	0	0	655	521	10	29	
14	0	0	0	0	678	487	10	28	
15	0	0	0	0	496	468	13	29	
0	0	0	0	0	417	481	16	30	
1	0	0	0	0	479	496	17	31	
2	0	0	0	0	535	516	23	29	
3	0	0	0	0	538	521	29	28	
4	0	0	0	0	474	513	26	33	
5	0	0	0	0	418	497	27	38	
6	0	0	0	0	465	505	30	35	
7	0	0	0	0	552	496	33	45	
8	0	0	0	0	587	491	34	52	
9	0	0	0	0	528	491	34	56	
10	0	0	0	0	467	507	35	51	
11	0	0	0	0	508	524	35	49	
12	0	0	0	0	534	531	36	51	
13	0	0	0	0	442	519	38	54	
14	0	0	0	0	520	500	38	61	
15	0	0	0	0	615	516	39	63	
0	0	0	0	0	431	513	42	75	
1	0	0	0	0	431	504	43	80	
2	0	0	0	0	465	506	43	85	
3	0	0	0	0	460	518	44	95	
4	0	0	0	0	480	490	46	103	
5	0	0	0	0	488	473	47	98	
6	0	0	0	0	558	497	48	96	
7	0	0	0	0	557	515	52	101	
8	0	0	0	0	549	531	54	100	
9	0	0	0	0	537	536	57	99	
10	0	0	0	0	543	517	55	101	
11	0	0	0	0	486	527	55	101	
12	0	0	0	0	493	530	54	99	
13	0	0	0	0	531	520	55	101	
14	0	0	0	0	492	522	54	101	
15	0	0	0	0	503	518	55	107	
0	0	0	0	0	558	464	58	104	
1	0	0	0	0	561	465	57	107	
2	0	0	0	0	539	492	57	105	
3	0	0	0	0	515	477	57	105	
4	0	0	0	0	463	490	56	110	
5	0	0	0	0	449	514	55	114	
6	0	0	0	0	488	524	54	118	
7	0	0	0	0	514	535	53	118	
8	0	0	0	0	583	524	53	117	
9	0	0	0	0	594	531	50	119	
10	0	0	0	0	486	525	50	119	
11	0	0	0	0	445	504	50	119	
12	0	0	0	0	512	468	54	120	
13	0	0	0	0	509	482	52	118	
14	0	0	0	0	399	503	51	114	
15	0	0	0	0	495	503	52	118	
0	0	0	0	0	558	512	52	123	
1	0	0	0	0	668	531	53	127	
2	0	0	0	0	659	540	54	132	
3	0	0	0	0	531	537	55	133	
4	0	0	0	0	415	512	56	132	
5	0	0	0	0	401	500	53	130	
6	0	0	0	0	434	495	55	127	
7	0	0	0	0	466	498	54	128	
8	0	0	0	0	516	496	52	129	
9	0	0	0	0	552	482	54	131	
10	0	0	0	0	633	465	54	131	
11	0	0	0	0	601	500	54	126	
12	0	0	0	0	550	529	53	127	
13	0	0	0	0	502	523	55	129	
14	0	0	0	0	487	504	50	133	
15	0	0	0	0	508	508	52	134	
0	0	0	0	0	396	526	52	134	
1	0	0	0	0	404	518	52	137	
2	0	0	0	0	415	512	52	134	
3	0	0	0	0	487	523	52	133	
4	0	0	0	0	611	507	55	134	
5	0	0	0	0	608	495	56	136	
6	0	0	0	0	498	519	55	135	
7	0	0	0	0	430	507	54	132	
8	0	0	0	0	419	509	53	132	
9	0	0	0	0	467	511	52	136	
10	0	0	0	0	568	515	51	138	
11	0	0	0	0	619	513	50	138	
12	0	0	0	0	605	508	51	140	
13	0	0	0	0	476	504	52	139	
14	0	0	0	0	436	503	52	136	
15	0	0	0	0	479	525	53	139	
0	0	0	0	0	510	495	54	142	
1	0	0	0	0	563	474	53	141	
2	0	0	0	0	554	500	54	140	
3	0	0	0	0	526	499	54	138	
4	0	0	0	0	527	499	54	139	
5	0	0	0	0	492	530	55	138	
6	0	0	0	0	462	539	55	141	
7	0	0	0	0	478	518	55	138	
8	0	0	0	0	496	512	56	135	
9	0	0	0	0	511	511	57	137	
10	0	0	0	0	487	505	57	139	
11	0	0	0	0	538	484	58	139	
12	0	0	0	0	542	484	58	137	
13	0	0	0	0	629	496	58	136	
14	0	0	0	0	601	509	59	140	
15	0	0	0	0	608	516	60	140	
0	0	0	0	0	545	521	60	139	
1	0	0	0	0	471	518	60	137	
2	0	0	0	0	391	512	63	134	
3	0	0	0	0	331	515	63	134	
4	0	0	0	0	446	508	62	133	
5	0	0	0	0	523	506	61	129	
6	0	0	0	0	535	508	56	131	
7	0	0	0	0	560	511	57	133	
8	0	0	0	0	480	519	60	136	
9	0	0	0	0	448	505	56	135	
10	0	0	0	0	458	484	51	135	
11	0	0	0	0	480	485	50	134	
12	0	0	0	0	525	503	49	134	
13	0	0	0	0	572	522	48	134	
14	0	0	0	0	653	520	48	134	
15	0	0	0	0	565	517	48	136	
0	0	0	0	0	494	514	48	134	
1	0	0	0	0	526	502	48	132	
2	0	0	0	0	595	503	46	129	
3	0	0	0	0	539	517	47	129	
4	0	0	0	0	454	522	47	124	
5	0	0	0	0	461	518	48	123	
6	0	0	0	0	491	503	47	124	
7	0	0	0	0	512	484	47	123	
8	0	0	0	0	530	490	46	125	
9	0	0	0	0	514	507	46	128	
10	0	0	0	0	448	510	46	126	
11	0	0	0	0	423	511	46	126	
12	0	0	0	0	463	506	45	124	
13	0	0	0	0	559	512	45	125	
14	0	0	0	0	596	512	44	126	
15	0	0	0	0	576	512	44	125	
0	0	0	0	0	511	508	43	124	
1	0	0	0	0	482	506	42	120	
2	0	0	0	0	489	501	42	118	
3	0	0	0	0	562	514	40	120	
4	0	0	0	0	527	512	41	123	
5	0	0	0	0	483	511	42	122	
6	0	0	0	0	473	516	43	115	
7	0	0	0	0	444	512	44	114	
8	0	0	0	0	432	502	44	115	
9	0	0	0	0	462	516	46	113	
10	0	0	0	0	501	508	46	111	
11	0	0	0	0	559	502	45	111	
12	0	0	0	0	596	495	45	107	
13	0	0	0	0	603	494	46	108	
14	0	0	0	0	534	501	46	110	
15	0	0	0	0	504	514	47	107	
0	0	0	0	0	510	515	47	105	
1	0	0	0	0	513	508	46	108	
2	0	0	0	0	516	505	46	109	
3	0	0	0	0	492	513	45	107	
4	0	0	0	0	508	510	46	106	
5	0	0	0	0	507	499	45	112	
6	0	0	0	0	513	506	46	104	
7	0	0	0	0	519	518	45	104	
8	0	0	0	0	508	509	46	108	
9	0	0	0	0	500	506	44	106	
10	0	0	0	0	501	511	46	99	
11	0	0	0	0	496	513	43	95	
12	0	0	0	0	499	508	40	94	
13	0	0	0	0	504	507	44	94	
14	0	0	0	0	510	508	43	96	
15	0	0	0	0	523	507	41	98	
0	0	0	0	0	520	506	40	107	
1	0	0	0	0	521	507	42	104	
2	0	0	0	0	508	510	47	102	
3	0	0	0	0	492	509	43	99	
4	0	0	0	0	481	510	41	76	
5	0	0	0	0	494	516	43	72	
6	0	0	0	0	520	511	45	72	
7	0	0	0	0	548	511	43	69	
8	0	0	0	0	527	514	43	68	
9	0	0	0	0	516	507	46	64	
10	0	0	0	0	523	500	49	65	
11	0	0	0	0	504	502	47	60	
12	0	0	0	0	488	506	47	58	
13	0	0	0	0	499	506	46	56	
14	0	0	0	0	507	513	43	50	
15	0	0	0	0	524	510	42	47	
0	0	0	0	0	524	508	41	40	
1	0	0	0	0	506	508	39	27	
2	0	0	0	0	503	505	34	19	
3	0	0	0	0	511	498	30	1	
4	0	0	0	0	511	501	18	0	
5	0	0	0	0	500	505	15	0	
6	0	0	0	0	494	506	14	0	
7	0	0	0	0	494	508	11	0	
8	0	0	0	0	496	508	8	0	
9	0	0	0	0	503	509	23	0	
10	0	0	0	0	513	510	23	0	
11	0	0	0	0	536	508	24	0	
12	0	0	0	0	527	510	21	0	
13	0	0	0	0	507	510	13	0	
14	0	0	0	0	514	510	8	0	
15	0	0	0	0	528	508	9	0	
0	0	0	0	0	513	510	19	0	
1	0	0	0	0	514	511	16	0	
2	0	0	0	0	518	510	4	0	
3	0	0	0	0	519	509	6	0	
4	0	0	0	0	513	507	6	0	
5	0	0	0	0	501	508	6	0	
6	0	0	0	0	501	506	0	0	
7	0	0	0	0	512	509	0	0	
8	0	0	0	0	516	509	0	0	
9	0	0	0	0	516	507	0	0	
10	0	0	0	0	506	507	0	0	
11	0	0	0	0	503	509	0	0	
12	0	0	0	0	510	508	0	0	
13	0	0	0	0	518	508	0	0	
14	0	0	0	0	519	509	0	0	
15	0	0	0	0	515	507	0	0	
0	0	0	0	0	514	508	0	0	
1	0	0	0	0	515	510	0	0	
2	0	0	0	0	512	508	0	0	
3	0	0	0	0	514	507	0	0	
4	0	0	0	0	513	510	0	0	
5	0	0	0	0	514	509	0	0	
6	0	0	0	0	511	506	0	0	
7	0	0	0	0	512	507	0	0	
8	0	0	0	0	512	507	0	0	
9	0	0	0	0	511	507	0	0	
10	0	0	0	0	508	509	0	0	
11	0	0	0	0	509	507	0	0	
12	0	0	0	0	512	507	0	0	
13	0	0	0	0	510	507	0	0	
14	0	0	0	0	511	507	0	0	
15	0	0	0	0	509	509	0	0	
0	0	0	0	0	508	504	0	0	
1	0	0	0	0	508	507	0	0	
2	0	0	0	0	510	508	0	0	
3	0	0	0	0	512	510	3	0	
4	0	0	0	0	517	510	4	0	
5	0	0	0	0	517	508	7	0	
6	0	0	0	0	510	508	5	0	
7	0	0	0	0	507	507	5	0	
8	0	0	0	0	509	508	7	0	
9	0	0	0	0	509	510	11	0	
10	0	0	0	0	509	507	12	0	
11	0	0	0	0	510	507	16	0	
12	0	0	0	0	510	511	14	0	
13	0	0	0	0	508	508	15	0	
14	0	0	0	0	510	507	21	0	
15	0	0	0	0	509	509	19	0	
0	0	0	0	0	509	508	17	0	
1	0	0	0	0	510	507	42	0	
2	0	0	0	0	511	508	41	0	
3	0	0	0	0	511	508	43	0	
4	0	0	0	0	512	508	41	0	
5	0	0	0	0	513	507	47	0	
6	0	0	0	0	511	507	48	0	
7	0	0	0	0	513	509	51	0	
8	0	0	0	0	512	508	42	0	
9	0	0	0	0	510	509	49	0	
10	0	0	0	0	513	507	39	0	
11	0	0	0	0	511	508	51	0	
12	0	0	0	0	511	507	41	0	
13	0	0	0	0	508	507	44	0	
14	0	0	0	0	511	509	50	0	
15	0	0	0	0	512	508	51	0	
0	0	0	0	0	509	509	49	0	
1	0	0	0	0	508	510	55	0	
2	0	0	0	0	509	509	51	0	
3	0	0	0	0	510	508	49	0	
4	0	0	0	0	510	508	53	0	
5	0	0	0	0	510	507	53	0	
6	0	0	0	0	512	507	60	0	
7	0	0	0	0	510	507	57	0	
8	0	0	0	0	509	509	57	0	
9	0	0	0	0	512	510	56	0	
10	0	0	0	0	511	508	55	0	
11	0	0	0	0	512	507	56	0	
12	0	0	0	0	513	507	57	0	
13	0	0	0	0	514	508	55	0	
14	0	0	0	0	513	509	56	0	
15	0	0	0	0	512	507	56	0	
0	0	0	0	0	511	509	55	0	
1	0	0	0	0	510	509	59	0	
2	0	0	0	0	510	509	52	0	
3	0	0	0	0	508	508	63	0	
4	0	0	0	0	509	508	65	0	
5	0	0	0	0	510	508	54	0	
6	0	0	0	0	510	508	57	0	
7	0	0	0	0	510	507	57	0	
8	0	0	0	0	510	508	59	0	
9	0	0	0	0	509	508	55	0	
10	0	0	0	0	510	507	54	0	
11	0	0	0	0	512	505	54	0	
12	0	0	0	0	514	510	54	0	
13	0	0	0	0	511	511	70	0	
14	0	0	0	0	513	510	58	0	
15	0	0	0	0	512	509	60	0	
0	0	0	0	0	511	508	62	0	
1	0	0	0	0	512	507	67	0	
2	0	0	0	0	511	507	73	0	
3	0	0	0	0	513	508	71	0	
4	0	0	0	0	511	509	74	0	
5	0	0	0	0	512	508	75	0	
6	0	0	0	0	512	508	79	0	
7	0	0	0	0	508	508	72	0	
8	0	0	0	0	511	507	79	0	
9	0	0	0	0	510	507	82	0	
10	0	0	0	0	510	508	86	0	
11	0	0	0	0	510	509	87	0	
12	0	0	0	0	511	509	86	0	
13	0	0	0	0	511	507	81	0	
14	0	0	0	0	511	511	84	0	
15	0	0	0	0	512	506	84	0	
0	0	0	0	0	512	508	82	0	
1	0	0	0	0	511	507	82	0	
2	0	0	0	0	511	509	84	0	
3	0	0	0	0	512	508	82	0	
4	0	0	0	0	511	507	83	0	
5	0	0	0	0	511	508	86	0	
6	0	0	0	0	512	508	91	0	
7	0	0	0	0	511	507	93	0	
8	0	0	0	0	512	508	91	0	
9	0	0	0	0	511	510	94	0	
10	0	0	0	0	511	508	92	0	
11	0	0	0	0	509	508	89	0	
12	0	0	0	0	511	508	92	0	
13	0	0	0	0	509	509	88	0	
14	0	0	0	0	510	506	89	0	
15	0	0	0	0	512	506	89	0	
0	0	0	0	0	508	507	87	0	
1	0	0	0	0	512	507	89	0	
2	0	0	0	0	512	508	91	0	
3	0	0	0	0	511	508	87	0	
4	0	0	0	0	512	511	83	0	
5	0	0	0	0	509	510	81	0	
6	0	0	0	0	511	508	82	0	
7	0	0	0	0	509	508	86	0	
8	0	0	0	0	513	507	91	0	
9	0	0	0	0	511	506	92	0	
10	0	0	0	0	512	508	91	0	
11	0	0	0	0	511	509	91	0	
12	0	0	0	0	513	510	92	0	
13	0	0	0	0	509	509	91	0	
14	0	0	0	0	510	508	92	0	
15	0	0	0	0	511	506	90	0	
0	0	0	0	0	512	508	92	0	
1	0	0	0	0	508	510	92	0	
2	0	0	0	0	510	507	91	0	
3	0	0	0	0	512	507	91	0	
4	0	0	0	0	510	506	94	0	
5	0	0	0	0	510	508	92	0	
6	0	0	0	0	511	506	92	0	
7	0	0	0	0	511	508	94	0	
8	0	0	0	0	512	507	92	0	
9	0	0	0	0	512	507	89	0	
10	0	0	0	0	511	508	87	0	
11	0	0	0	0	512	509	85	0	
12	0	0	0	0	512	506	85	0	
13	0	0	0	0	513	508	82	0	
14	0	0	0	0	513	508	81	0	
15	0	0	0	0	513	509	81	0	
0	0	0	0	0	511	511	81	0	
1	0	0	0	0	511	508	79	0	
2	0	0	0	0	511	508	78	0	
3	0	0	0	0	510	508	76	0	
4	0	0	0	0	509	508	76	0	
5	0	0	0	0	509	507	74	0	
6	0	0	0	0	511	508	74	0	
7	0	0	0	0	509	506	72	0	
8	0	0	0	0	510	507	71	0	
9	0	0	0	0	510	508	69	0	
10	0	0	0	0	510	508	68	0	
11	0	0	0	0	512	508	69	0	
12	0	0	0	0	510	509	69	0	
13	0	0	0	0	513	509	69	0	
14	0	0	0	0	512	508	68	0	
15	0	0	0	0	512	509	70	0	
0	0	0	0	0	511	507	69	0	
1	0	0	0	0	514	510	67	0	
2	0	0	0	0	512	508	65	0	
3	0	0	0	0	511	507	65	0	
4	0	0	0	0	513	508	63	0	
5	0	0	0	0	511	509	63	0	
6	0	0	0	0	509	507	64	0	
7	0	0	0	0	510	507	65	0	
8	0	0	0	0	510	508	62	0	
9	0	0	0	0	509	508	61	0	
10	0	0	0	0	509	510	58	0	
11	0	0	0	0	508	508	59	0	
12	0	0	0	0	509	508	63	0	
13	0	0	0	0	512	508	62	0	
14	0	0	0	0	512	508	63	0	
15	0	0	0	0	511	509	65	0	
0	0	0	0	0	511	508	62	0	
1	0	0	0	0	511	508	61	0	
2	0	0	0	0	514	508	61	0	
3	0	0	0	0	511	508	61	0	
4	0	0	0	0	512	509	60	0	
5	0	0	0	0	511	505	61	0	
6	0	0	0	0	514	508	56	0	
7	0	0	0	0	511	508	54	0	
8	0	0	0	0	511	509	57	0	
9	0	0	0	0	509	509	57	0	
10	0	0	0	0	511	507	53	0	
11	0	0	0	0	510	508	52	0	
12	0	0	0	0	510	510	58	0	
13	0	0	0	0	509	508	57	0	
14	0	0	0	0	510	507	57	0	
15	0	0	0	0	510	505	57	0	
0	0	0	0	0	510	507	54	0	
1	0	0	0	0	510	510	51	0	
2	0	0	0	0	511	508	50	0	
3	0	0	0	0	511	508	47	0	
4	0	0	0	0	512	509	46	0	
5	0	0	0	0	511	508	45	0	
6	0	0	0	0	513	508	43	0	
7	0	0	0	0	512	508	44	0	
8	0	0	0	0	513	508	43	0	
9	0	0	0	0	513	509	43	0	
10	0	0	0	0	512	508	44	0	
11	0	0	0	0	510	507	42	0	
12	0	0	0	0	510	508	39	0	
13	0	0	0	0	512	508	39	0	
14	0	0	0	0	511	508	36	0	
15	0	0	0	0	509	508	37	0	
0	0	0	0	0	510	510	36	0	
1	0	0	0	0	508	507	38	0	
2	0	0	0	0	511	509	35	0	
3	0	0	0	0	510	507	37	0	
4	0	0	0	0	511	507	35	0	
5	0	0	0	0	512	508	33	0	
6	0	0	0	0	512	508	34	0	
7	0	0	0	0	511	508	35	0	
8	0	0	0	0	511	507	32	0	
9	0	0	0	0	513	507	32	0	
10	0	0	0	0	513	509	27	0	
11	0	0	0	0	513	508	27	0	
12	0	0	0	0	511	507	29	0	
13	0	0	0	0	512	508	29	0	
14	0	0	0	0	513	508	28	0	
15	0	0	0	0	511	509	28	0	
0	0	0	0	0	512	508	19	0	
1	0	0	0	0	511	508	18	0	
2	0	0	0	0	507	507	16	0	
3	0	0	0	0	508	507	14	0	
4	0	0	0	0	511	508	13	0	
5	0	0	0	0	508	508	0	0	
6	0	0	0	0	510	505	0	0	
7	0	0	0	0	510	508	0	0	
8	0	0	0	0	509	508	0	0	
9	0	0	0	0	510	509	0	0	
10	0	0	0	0	510	509	0	0	
11	0	0	0	0	511	509	0	0	
12	0	0	0	0	513	509	0	0	
13	0	0	0	0	513	508	0	0	
14	0	0	0	0	513	508	0	0	
15	0	0	0	0	513	510	0	0	
0	0	0	0	0	512	509	0	0	
1	0	0	0	0	512	510	0	0	
2	0	0	0	0	514	507	0	0	
3	0	0	0	0	512	509	0	0	
4	0	0	0	0	511	509	0	0	
5	0	0	0	0	511	507	0	0	
6	0	0	0	0	510	507	0	0	
7	0	0	0	0	507	507	0	0	
8	0	0	0	0	510	507	0	0	
9	0	0	0	0	510	510	0	0	
10	0	0	0	0	508	509	0	0	
11	0	0	0	0	510	507	0	0	
12	0	0	0	0	511	507	0	0	
13	0	0	0	0	511	508	0	0	
14	0	0	0	0	511	508	0	0	
15	0	0	0	0	511	508	0	0	
0	0	0	0	0	512	508	0	0	
1	0	0	0	0	512	508	0	0	
2	0	0	0	0	512	508	0	0	
3	0	0	0	0	513	508	0	0	
4	0	0	0	0	513	507	0	0	
5	0	0	0	0	513	506	0	0	
6	0	0	0	0	512	507	0	0	
7	0	0	0	0	511	507	0	0	
8	0	0	0	0	511	508	0	0	
9	0	0	0	0	511	508	0	0	
10	0	0	0	0	511	508	0	0	
11	0	0	0	0	511	509	0	0	
12	0	0	0	0	510	509	0	0	
13	0	0	0	0	509	510	0	0	
14	0	0	0	0	510	508	0	0	
15	0	0	0	0	510	508	0	0	
0	0	0	0	0	510	506	0	0	
1	0	0	0	0	511	506	0	0	
2	0	0	0	0	510	507	0	0	
3	0	0	0	0	511	507	0	0	
4	0	0	0	0	511	510	0	0	
5	0	0	0	0	512	508	0	0	
6	0	0	0	0	511	509	0	0	
7	0	0	0	0	513	507	0	0	
8	0	0	0	0	513	510	0	0	
9	0	0	0	0	511	508	0	0	
10	0	0	0	0	511	507	0	0	
11	0	0	0	0	511	508	0	0	
12	0	0	0	0	510	508	0	0	
13	0	0	0	0	510	509	0	0	
14	0	0	0	0	510	508	0	0	
15	0	0	0	0	508	507	0	0	
0	0	0	0	0	512	508	0	0	
1	0	0	0	0	511	508	0	0	
2	0	0	0	0	510	508	0	0	
3	0	0	0	0	512	507	0	0	
4	0	0	0	0	510	507	0	0	
5	0	0	0	0	513	509	0	0	
6	0	0	0	0	511	509	0	0	
7	0	0	0	0	512	508	0	0	
8	0	0	0	0	512	508	0	0	
9	0	0	0	0	513	506	0	0	
10	0	0	0	0	512	509	0	0	
11	0	0	0	0	513	507	0	0	
12	0	0	0	0	512	507	0	0	
13	0	0	0	0	513	510	0	0	
14	0	0	0	0	512	508	0	0	
15	0	0	0	0	511	508	0	0	
0	0	0	0	0	511	509	0	0	
1	0	0	0	0	510	509	0	0	
2	0	0	0	0	512	507	0	0	
3	0	0	0	0	509	506	0	0	
4	0	0	0	0	511	508	0	0	
5	0	0	0	0	509	508	0	0	
6	0	0	0	0	508	508	0	0	
7	0	0	0	0	511	508	0	0	
8	0	0	0	0	510	508	0	0	
9	0	0	0	0	511	507	0	0	
10	0	0	0	0	511	508	0	0	
11	0	0	0	0	513	509	0	0	
12	0	0	0	0	512	508	0	0	
13	0	0	0	0	512	510	0	0	
14	0	0	0	0	511	508	0	0	
15	0	0	0	0	511	508	0	0	
0	0	0	0	0	513	510	0	0	
1	0	0	0	0	512	506	0	0	
2	0	0	0	0	512	507	0	0	
3	0	0	0	0	513	509	0	0	
4	0	0	0	0	511	508	0	0	
5	0	0	0	0	511	508	0	0	
6	0	0	0	0	511	508	0	0	
7	0	0	0	0	509	507	0	0	
8	0	0	0	0	509	507	0	0	
9	0	0	0	0	511	507	0	0	
10	0	0	0	0	511	509	0	0	
11	0	0	0	0	509	507	0	0	
12	0	0	0	0	511	510	0	0	
13	0	0	0	0	511	505	0	0	
14	0	0	0	0	510	508	0	0	
15	0	0	0	0	510	508	0	0	
0	0	0	0	0	514	508	0	0	
1	0	0	0	0	511	508	0	0	
2	0	0	0	0	511	506	0	0	
3	0	0	0	0	512	509	0	0	
4	0	0	0	0	514	508	0	0	
5	0	0	0	0	512	507	0	0	
6	0	0	0	0	512	508	0	0	
7	0	0	0	0	510	508	0	0	
8	0	0	0	0	509	509	0	0	
9	0	0	0	0	511	505	0	0	
10	0	0	0	0	512	506	0	0	
11	0	0	0	0	510	508	0	0	
12	0	0	0	0	510	509	0	0	
13	0	0	0	0	511	508	0	0	
14	0	0	0	0	508	508	0	0	
15	0	0	0	0	510	510	0	0	
0	0	0	0	0	508	509	0	0	
1	0	0	0	0	511	508	0	0	
2	0	0	0	0	510	509	0	0	
3	0	0	0	0	510	506	0	0	
4	0	0	0	0	512	508	0	0	
5	0	0	0	0	511	509	0	0	
6	0	0	0	0	513	507	0	0	
7	0	0	0	0	512	506	0	0	
8	0	0	0	0	513	508	0	0	
9	0	0	0	0	512	508	0	0	
10	0	0	0	0	509	508	0	0	
11	0	0	0	0	511	508	0	0	
12	0	0	0	0	513	509	0	0	
13	0	0	0	0	511	508	0	0	
14	0	0	0	0	511	509	0	0	
15	0	0	0	0	510	507	0	0	
0	0	0	0	0	509	508	0	0	
1	0	0	0	0	511	509	0	0	
2	0	0	0	0	511	508	0	0	
3	0	0	0	0	508	507	0	0	
4	0	0	0	0	509	508	0	0	
5	0	0	0	0	512	508	0	0	
6	0	0	0	0	512	509	0	0	
7	0	0	0	0	512	506	0	0	
8	0	0	0	0	511	510	0	0	
9	0	0	0	0	512	509	0	0	
10	0	0	0	0	513	508	0	0	
11	0	0	0	0	511	508	0	0	
12	0	0	0	0	512	509	0	0	
13	0	0	0	0	513	507	0	0	
14	0	0	0	0	512	507	0	0	
15	0	0	0	0	509	508	0	0	
0	0	0	0	0	510	508	0	0	
1	0	0	0	0	510	508	0	0	
2	0	0	0	0	510	506	0	0	
3	0	0	0	0	509	507	0	0	
4	0	0	0	0	508	507	0	0	
5	0	0	0	0	510	507	0	0	
6	0	0	0	0	511	508	0	0	
7	0	0	0	0	511	508	0	0	
8	0	0	0	0	510	510	0	0	
9	0	0	0	0	511	508	0	0	
10	0	0	0	0	510	509	0	0	
11	0	0	0	0	511	508	0	0	
12	0	0	0	0	512	508	0	0	
13	0	0	0	0	511	507	0	0	
14	0	0	0	0	513	507	0	0	
15	0	0	0	0	511	508	0	0	
0	0	0	0	0	511	508	0	0	
1	0	0	0	0	510	508	0	0	
2	0	0	0	0	514	507	0	0	
3	0	0	0	0	510	507	0	0	
4	0	0	0	0	513	509	0	0	
5	0	0	0	0	512	509	0	0	
6	0	0	0	0	511	507	0	0	
7	0	0	0	0	510	508	0	0	
8	0	0	0	0	508	508	0	0	
9	0	0	0	0	509	507	0	0	
10	0	0	0	0	510	506	0	0	
11	0	0	0	0	510	507	0	0	
12	0	0	0	0	509	506	0	0	
13	0	0	0	0	511	508	0	0	
14	0	0	0	0	511	507	0	0	
15	0	0	0	0	511	507	0	0	
0	0	0	0	0	513	508	0	0	
1	0	0	0	0	512	509	0	0	
2	0	0	0	0	513	508	0	0	
3	0	0	0	0	512	510	0	0	
4	0	0	0	0	512	509	0	0	
5	0	0	0	0	514	508	0	0	
6	0	0	0	0	513	507	0	0	
7	0	0	0	0	512	508	0	0	
8	0	0	0	0	512	506	0	0	
9	0	0	0	0	509	508	0	0	
10	0	0	0	0	510	507	0	0	
11	0	0	0	0	510	507	0	0	
12	0	0	0	0	508	507	0	0	
13	0	0	0	0	511	509	0	0	
14	0	0	0	0	510	508	0	0	
15	0	0	0	0	511	509	0	0	
0	0	0	0	0	511	508	0	0	
1	0	0	0	0	512	508	0	0	
2	0	0	0	0	513	508	0	0	
3	0	0	0	0	512	511	0	0	
4	0	0	0	0	510	509	0	0	
5	0	0	0	0	510	508	0	0	
6	0	0	0	0	512	508	0	0	
7	0	0	0	0	511	507	0	0	
8	0	0	0	0	512	508	0	0	
9	0	0	0	0	512	507	0	0	
10	0	0	0	0	515	508	0	0	
11	0	0	0	0	512	509	0	0	
12	0	0	0	0	511	508	0	0	
13	0	0	0	0	512	509	0	0	
14	0	0	0	0	512	508	0	0	
15	0	0	0	0	510	508	0	0	
0	0	0	0	0	510	507	0	0	
1	0	0	0	0	509	508	0	0	
2	0	0	0	0	508	508	0	0	
3	0	0	0	0	511	507	0	0	
4	0	0	0	0	511	506	0	0	
5	0	0	0	0	511	507	0	0	
6	0	0	0	0	511	509	0	0	
7	0	0	0	0	511	508	0	0	
8	0	0	0	0	512	507	0	0	
9	0	0	0	0	512	508	0	0	
10	0	0	0	0	512	509	0	0	
11	0	0	0	0	513	508	0	0	
12	0	0	0	0	511	509	0	0	
13	0	0	0	0	511	508	0	0	
14	0	0	0	0	512	508	0	0	
15	0	0	0	0	513	509	0	0	
0	0	0	0	0	511	508	0	0	
1	0	0	0	0	512	508	0	0	
2	0	0	0	0	511	508	0	0	
3	0	0	0	0	510	507	0	0	
4	0	0	0	0	509	506	0	0	
5	0	0	0	0	511	508	0	0	
6	0	0	0	0	509	509	0	0	
7	0	0	0	0	511	510	0	0	
8	0	0	0	0	511	507	0	0	
9	0	0	0	0	510	509	0	0	
10	0	0	0	0	511	510	0	0	
11	0	0	0	0	511	507	0	0	
12	0	0	0	0	513	509	0	0	
13	0	0	0	0	511	509	0	0	
14	0	0	0	0	513	507	0	0	
15	0	0	0	0	513	508	0	0	
0	0	0	0	0	511	508	0	0	
1	0	0	0	0	509	507	0	0	
2	0	0	0	0	511	508	0	0	
3	0	0	0	0	513	508	0	0	
4	0	0	0	0	511	511	0	0	
5	0	0	0	0	509	509	0	0	
6	0	0	0	0	510	507	0	0	
7	0	0	0	0	510	508	0	0	
8	0	0	0	0	508	508	0	0	
9	0	0	0	0	510	508	0	0	
10	0	0	0	0	510	508	0	0	
11	0	0	0	0	511	508	0	0	
12	0	0	0	0	510	507	0	0	
13	0	0	0	0	511	508	0	0	
14	0	0	0	0	511	506	0	0	
15	0	0	0	0	511	508	0	0	
0	0	0	0	0	511	508	0	0	
1	0	0	0	0	513	507	0	0	
2	0	0	0	0	513	507	0	0	
3	0	0	0	0	511	509	0	0	
4	0	0	0	0	511	508	0	0	
5	0	0	0	0	513	510	0	0	
6	0	0	0	0	512	509	0	0	
7	0	0	0	0	511	507	0	0	
8	0	0	0	0	512	505	0	0	
9	0	0	0	0	511	508	0	0	
10	0	0	0	0	510	507	0	0	
11	0	0	0	0	508	508	0	0	
12	0	0	0	0	510	508	0	0	
13	0	0	0	0	511	508	0	0	
14	0	0	0	0	511	507	0	0	
15	0	0	0	0	511	509	0	0	
0	0	0	0	0	510	511	0	0	
1	0	0	0	0	509	507	0	0	
2	0	0	0	0	511	508	0	0	
3	0	0	0	0	512	509	0	0	
4	0	0	0	0	512	509	0	0	
5	0	0	0	0	511	509	0	0	
6	0	0	0	0	512	507	0	0	
7	0	0	0	0	511	508	0	0	
8	0	0	0	0	513	508	0	0	
9	0	0	0	0	510	509	0	0	
10	0	0	0	0	511	507	0	0	
11	0	0	0	0	512	508	0	0	
12	0	0	0	0	511	509	0	0	
13	0	0	0	0	511	506	0	0	
14	0	0	0	0	511	508	0	0	
15	0	0	0	0	510	508	0	0	
0	0	0	0	0	509	507	0	0	
1	0	0	0	0	512	509	0	0	
2	0	0	0	0	510	510	0	0	
3	0	0	0	0	511	507	0	0	
4	0	0	0	0	511	507	0	0	
5	0	0	0	0	511	509	0	0	
6	0	0	0	0	510	507	0	0	
7	0	0	0	0	509	508	0	0	
8	0	0	0	0	511	509	0	0	
9	0	0	0	0	512	507	0	0	
10	0	0	0	0	513	508	0	0	
11	0	0	0	0	514	508	0	0	
12	0	0	0	0	512	509	0	0	
13	0	0	0	0	511	507	0	0	
14	0	0	0	0	512	509	0	0	
15	0	0	0	0	512	509	0	0	
0	0	0	0	0	511	506	0	0	
1	0	0	0	0	510	508	0	0	
2	0	0	0	0	508	506	0	0	
3	0	0	0	0	510	510	0	0	
4	0	0	0	0	511	508	0	0	
5	0	0	0	0	511	508	0	0	
6	0	0	0	0	510	508	0	0	
7	0	0	0	0	512	508	0	0	
8	0	0	0	0	508	509	0	0	
9	0	0	0	0	511	507	0	0	
10	0	0	0	0	510	507	0	0	
11	0	0	0	0	511	508	0	0	
12	0	0	0	0	511	509	0	0	
13	0	0	0	0	512	509	0	0	
14	0	0	0	0	512	508	0	0	
15	0	0	0	0	514	508	0	0	
0	0	0	0	0	511	507	0	0	
1	0	0	0	0	511	507	0	0	
2	0	0	0	0	514	510	0	0	
3	0	0	0	0	511	508	0	0	
4	0	0	0	0	510	508	0	0	
5	0	0	0	0	512	508	0	0	
6	0	0	0	0	510	507	0	0	
7	0	0	0	0	511	509	0	0	
8	0	0	0	0	508	508	0	0	
9	0	0	0	0	509	509	0	0	
10	0	0	0	0	507	510	0	0	
11	0	0	0	0	510	508	0	0	
12	0	0	0	0	510	507	0	0	
13	0	0	0	0	510	508	0	0	
14	0	0	0	0	511	508	0	0	
15	0	0	0	0	513	508	0	0	
0	0	0	0	0	512	507	0	0	
1	0	0	0	0	511	508	0	0	
2	0	0	0	0	512	509	0	0	
3	0	0	0	0	513	510	0	0	
4	0	0	0	0	512	510	0	0	
5	0	0	0	0	510	508	0	0	
6	0	0	0	0	512	508	0	0	
7	0	0	0	0	511	507	0	0	
8	0	0	0	0	513	508	0	0	
9	0	0	0	0	512	507	0	0	
10	0	0	0	0	511	508	0	0	
11	0	0	0	0	511	508	0	0	
12	0	0	0	0	511	507	0	0	
13	0	0	0	0	509	508	0	0	
14	0	0	0	0	511	507	0	0	
15	0	0	0	0	508	508	0	0	
0	0	0	0	0	510	508	0	0	
1	0	0	0	0	513	508	0	0	
2	0	0	0	0	511	508	0	0	
3	0	0	0	0	511	509	0	0	
4	0	0	0	0	511	508	0	0	
5	0	0	0	0	512	509	0	0	
6	0	0	0	0	512	509	0	0	
7	0	0	0	0	511	508	0	0	
8	0	0	0	0	511	508	0	0	
9	0	0	0	0	511	510	0	0	
10	0	0	0	0	511	506	0	0	
11	0	0	0	0	510	507	0	0	
12	0	0	0	0	512	506	0	0	
13	0	0	0	0	511	507	0	0	
14	0	0	0	0	510	509	0	0	
15	0	0	0	0	511	507	0	0	
0	0	0	0	0	512	508	0	0	
1	0	0	0	0	510	508	0	0	
2	0	0	0	0	510	508	0	0	
3	0	0	0	0	511	510	0	0	
4	0	0	0	0	510	508	0	0	
5	0	0	0	0	510	508	0	0	
6	0	0	0	0	510	508	0	0	
7	0	0	0	0	512	508	0	0	
8	0	0	0	0	511	506	0	0	
9	0	0	0	0	511	509	0	0	
10	0	0	0	0	514	508	0	0	
11	0	0	0	0	512	508	0	0	
12	0	0	0	0	511	510	0	0	
13	0	0	0	0	511	508	0	0	
14	0	0	0	0	510	507	0	0	
15	0	0	0	0	512	507	0	0	
0	0	0	0	0	511	509	0	0	
1	0	0	0	0	513	508	0	0	
2	0	0	0	0	511	508	0	0	
3	0	0	0	0	509	507	0	0	
4	0	0	0	0	511	507	0	0	
5	0	0	0	0	508	508	0	0	
6	0	0	0	0	508	508	0	0	
7	0	0	0	0	510	508	0	0	
8	0	0	0	0	511	508	0	0	
9	0	0	0	0	512	506	0	0	
10	0	0	0	0	511	505	0	0	
11	0	0	0	0	511	508	0	0	
12	0	0	0	0	512	509	0	0	
13	0	0	0	0	512	508	0	0	
14	0	0	0	0	514	509	0	0	
15	0	0	0	0	514	509	0	0	
0	0	0	0	0	513	508	0	0	
1	0	0	0	0	510	508	0	0	
2	0	0	0	0	511	507	0	0	
3	0	0	0	0	510	508	0	0	
4	0	0	0	0	510	507	0	0	
5	0	0	0	0	511	509	0	0	
6	0	0	0	0	511	508	0	0	
7	0	0	0	0	511	508	0	0	
8	0	0	0	0	509	508	0	0	
9	0	0	0	0	507	509	0	0	
10	0	0	0	0	510	507	0	0	
11	0	0	0	0	509	509	0	0	
12	0	0	0	0	509	508	0	0	
13	0	0	0	0	512	508	0	0	
14	0	0	0	0	510	506	0	0	
15	0	0	0	0	512	508	0	0	
0	0	0	0	0	511	507	0	0	
1	0	0	0	0	512	508	0	0	
2	0	0	0	0	512	509	0	0	
3	0	0	0	0	512	511	0	0	
4	0	0	0	0	513	508	0	0	
5	0	0	0	0	511	507	0	0	
6	0	0	0	0	511	507	0	0	
7	0	0	0	0	512	508	0	0	
8	0	0	0	0	508	508	0	0	
9	0	0	0	0	509	509	0	0	
10	0	0	0	0	512	508	0	0	
11	0	0	0	0	511	509	0	0	
12	0	0	0	0	511	507	0	0	
13	0	0	0	0	512	508	0	0	
14	0	0	0	0	511	506	0	0	
15	0	0	0	0	511	508	0	0	
0	0	0	0	0	511	510	0	0	
1	0	0	0	0	508	508	0	0	
2	0	0	0	0	510	507	0	0	
3	0	0	0	0	512	509	0	0	
4	0	0	0	0	512	508	0	0	
5	0	0	0	0	514	509	0	0	
6	0	0	0	0	512	509	0	0	
7	0	0	0	0	511	507	0	0	
8	0	0	0	0	514	508	0	0	
9	0	0	0	0	512	507	0	0	
10	0	0	0	0	513	508	0	0	
11	0	0	0	0	512	506	0	0	
12	0	0	0	0	511	508	0	0	
13	0	0	0	0	511	508	0	0	
14	0	0	0	0	510	508	0	0	
15	0	0	0	0	509	508	0	0	
0	0	0	0	0	508	508	0	0	
1	0	0	0	0	511	507	0	0	
2	0	0	0	0	509	507	0	0	
3	0	0	0	0	512	508	0	0	
4	0	0	0	0	512	508	0	0	
5	0	0	0	0	511	508	0	0	
6	0	0	0	0	511	509	0	0	
7	0	0	0	0	510	508	0	0	
8	0	0	0	0	512	510	0	0	
9	0	0	0	0	512	507	0	0	
10	0	0	0	0	511	509	0	0	
11	0	0	0	0	511	505	0	0	
12	0	0	0	0	513	507	0	0	
13	0	0	0	0	512	509	0	0	
14	0	0	0	0	511	507	0	0	
15	0	0	0	0	510	507	0	0	
0	0	0	0	0	511	507	0	0	
1	0	0	0	0	510	508	0	0	
2	0	0	0	0	511	508	0	0	
3	0	0	0	0	511	509	0	0	
4	0	0	0	0	510	507	0	0	
5	0	0	0	0	508	508	0	0	
6	0	0	0	0	509	509	0	0	
7	0	0	0	0	510	507	0	0	
8	0	0	0	0	510	507	0	0	
9	0	0	0	0	512	510	0	0	
10	0	0	0	0	512	509	0	0	
11	0	0	0	0	513	508	0	0	
12	0	0	0	0	511	508	0	0	
13	0	0	0	0	512	507	0	0	
14	0	0	0	0	513	509	0	0	
15	0	0	0	0	512	508	0	0	
0	0	0	0	0	512	509	0	0	
1	0	0	0	0	512	508	0	0	
2	0	0	0	0	513	508	0	0	
3	0	0	0	0	511	507	0	0	
4	0	0	0	0	512	507	0	0	
5	0	0	0	0	511	508	0	0	
6	0	0	0	0	511	508	0	0	
7	0	0	0	0	511	507	0	0	
8	0	0	0	0	509	508	0	0	
9	0	0	0	0	506	509	0	0	
10	0	0	0	0	508	508	0	0	
11	0	0	0	0	509	508	0	0	
12	0	0	0	0	509	507	0	0	
13	0	0	0	0	510	508	0	0	
14	0	0	0	0	511	506	0	0	
15	0	0	0	0	513	507	0	0	
0	0	0	0	0	512	508	0	0	
1	0	0	0	0	513	509	0	0	
2	0	0	0	0	512	509	0	0	
3	0	0	0	0	514	508	0	0	
4	0	0	0	0	511	508	0	0	
5	0	0	0	0	513	508	0	0	
6	0	0	0	0	513	508	0	0	
7	0	0	0	0	512	510	0	0	
8	0	0	0	0	511	508	0	0	
9	0	0	0	0	509	509	0	0	
10	0	0	0	0	513	509	0	0	
11	0	0	0	0	512	508	0	0	
12	0	0	0	0	510	508	0	0	
13	0	0	0	0	509	508	0	0	
14	0	0	0	0	510	507	0	0	
15	0	0	0	0	510	508	0	0	
0	0	0	0	0	508	508	0	0	
1	0	0	0	0	512	507	0	0	
2	0	0	0	0	513	510	0	0	
3	0	0	0	0	510	509	0	0	
4	0	0	0	0	511	508	0	0	
5	0	0	0	0	511	505	0	0	
6	0	0	0	0	511	507	0	0	
7	0	0	0	0	511	508	0	0	
8	0	0	0	0	511	508	0	0	
9	0	0	0	0	513	511	0	0	
10	0	0	0	0	513	507	0	0	
11	0	0	0	0	513	508	0	0	
12	0	0	0	0	511	509	0	0	
13	0	0	0	0	511	508	0	0	
14	0	0	0	0	511	508	0	0	
15	0	0	0	0	510	508	0	0	
0	0	0	0	0	508	508	0	0	
1	0	0	0	0	508	509	0	0	
2	0	0	0	0	510	509	0	0	
3	0	0	0	0	511	508	0	0	
4	0	0	0	0	511	507	0	0	
5	0	0	0	0	511	509	0	0	
6	0	0	0	0	511	508	0	0	
7	0	0	0	0	509	508	0	0	
8	0	0	0	0	513	508	0	0	
9	0	0	0	0	511	508	0	0	
10	0	0	0	0	511	507	0	0	
11	0	0	0	0	510	506	0	0	
12	0	0	0	0	513	506	0	0	
13	0	0	0	0	512	507	0	0	
14	0	0	0	0	513	508	0	0	
15	0	0	0	0	513	508	0	0	
0	0	0	0	0	512	508	0	0	
1	0	0	0	0	512	506	0	0	
2	0	0	0	0	511	508	0	0	
3	0	0	0	0	512	510	0	0	
4	0	0	0	0	509	508	0	0	
5	0	0	0	0	509	508	0	0	
6	0	0	0	0	510	508	0	0	
7	0	0	0	0	509	507	0	0	
8	0	0	0	0	509	508	0	0	
9	0	0	0	0	509	507	0	0	
10	0	0	0	0	510	509	0	0	
11	0	0	0	0	512	508	0	0	
12	0	0	0	0	513	510	0	0	
13	0	0	0	0	513	506	0	0	
14	0	0	0	0	510	510	0	0	
15	0	0	0	0	512	507	0	0	
0	0	0	0	0	511	508	0	0	
1	0	0	0	0	512	506	0	0	
2	0	0	0	0	514	508	0	0	
3	0	0	0	0	512	508	0	0	
4	0	0	0	0	510	509	0	0	
5	0	0	0	0	512	511	0	0	
6	0	0	0	0	511	509	0	0	
7	0	0	0	0	508	510	0	0	
8	0	0	0	0	510	508	0	0	
9	0	0	0	0	511	507	0	0	
10	0	0	0	0	511	508	0	0	
11	0	0	0	0	512	508	0	0	
12	0	0	0	0	509	506	0	0	
13	0	0	0	0	511	507	0	0	
14	0	0	0	0	510	507	0	0	
15	0	0	0	0	510	506	0	0	
0	0	0	0	0	512	509	0	0	
1	0	0	0	0	509	508	0	0	
2	0	0	0	0	512	509	0	0	
3	0	0	0	0	512	509	0	0	
4	0	0	0	0	513	510	0	0	
5	0	0	0	0	513	507	0	0	
6	0	0	0	0	513	508	0	0	
7	0	0	0	0	511	507	0	0	
8	0	0	0	0	511	507	0	0	
9	0	0	0	0	510	507	0	0	
10	0	0	0	0	511	508	0	0	
11	0	0	0	0	510	507	0	0	
12	0	0	0	0	509	508	0	0	
13	0	0	0	0	510	510	0	0	
14	0	0	0	0	510	508	0	0	
15	0	0	0	0	511	508	0	0	
0	0	0	0	0	511	509	0	0	
1	0	0	0	0	511	509	0	0	
2	0	0	0	0	510	508	0	0	
3	0	0	0	0	511	508	0	0	
4	0	0	0	0	513	509	0	0	
5	0	0	0	0	514	508	0	0	
6	0	0	0	0	513	508	0	0	
7	0	0	0	0	512	507	0	0	
8	0	0	0	0	513	508	0	0	
9	0	0	0	0	511	507	0	0	
10	0	0	0	0	512	506	0	0	
11	0	0	0	0	511	508	0	0	
12	0	0	0	0	511	509	0	0	
13	0	0	0	0	510	510	0	0	
14	0	0	0	0	509	507	0	0	
15	0	0	0	0	511	509	0	0	
0	0	0	0	0	509	510	0	0	
1	0	0	0	0	509	508	0	0	
2	0	0	0	0	508	508	0	0	
3	0	0	0	0	510	508	0	0	
4	0	0	0	0	512	506	0	0	
5	0	0	0	0	510	507	0	0	
6	0	0	0	0	511	506	0	0	
7	0	0	0	0	511	508	0	0	
8	0	0	0	0	513	508	0	0	
9	0	0	0	0	514	509	0	0	
10	0	0	0	0	511	509	0	0	
11	0	0	0	0	512	508	0	0	
12	0	0	0	0	515	509	0	0	
13	0	0	0	0	515	508	0	0	
14	0	0	0	0	511	509	0	0	
15	0	0	0	0	510	508	0	0	
0	0	0	0	0	513	506	0	0	
1	0	0	0	0	512	507	0	0	
2	0	0	0	0	509	507	0	0	
3	0	0	0	0	510	508	0	0	
4	0	0	0	0	510	510	0	0	
5	0	0	0	0	507	508	0	0	
6	0	0	0	0	510	509	0	0	
7	0	0	0	0	511	508	0	0	
8	0	0	0	0	511	506	0	0	
9	0	0	0	0	510	507	0	0	
10	0	0	0	0	511	507	0	0	
11	0	0	0	0	512	507	0	0	
12	0	0	0	0	511	508	0	0	
13	0	0	0	0	511	508	0	0	
14	0	0	0	0	512	505	0	0	
15	0	0	0	0	510	507	0	0	
0	0	0	0	0	511	511	0	0	
1	0	0	0	0	512	509	0	0	
2	0	0	0	0	511	508	0	0	
3	0	0	0	0	511	508	0	0	
4	0	0	0	0	511	509	0	0	
5	0	0	0	0	508	507	0	0	
6	0	0	0	0	510	507	0	0	
7	0	0	0	0	508	508	0	0	
8	0	0	0	0	512	506	0	0	
9	0	0	0	0	511	507	0	0	
10	0	0	0	0	512	509	0	0	
11	0	0	0	0	511	508	0	0	
12	0	0	0	0	509	508	0	0	
13	0	0	0	0	512	508	0	0	
14	0	0	0	0	510	510	0	0	
15	0	0	0	0	511	508	0	0	
0	0	0	0	0	513	507	0	0	
1	0	0	0	0	510	508	0	0	
2	0	0	0	0	510	511	0	0	
3	0	0	0	0	513	509	0	0	
4	0	0	0	0	512	507	0	0	
5	0	0	0	0	513	507	0	0	
6	0	0	0	0	512	505	0	0	
7	0	0	0	0	510	508	0	0	
8	0	0	0	0	510	508	0	0	
9	0	0	0	0	511	507	0	0	
10	0	0	0	0	512	508	0	0	
11	0	0	0	0	509	507	0	0	
12	0	0	0	0	511	507	0	0	
13	0	0	0	0	508	507	0	0	
14	0	0	0	0	507	509	0	0	
15	0	0	0	0	511	508	0	0	
0	0	0	0	0	509	507	0	0	
1	0	0	0	0	511	507	0	0	
2	0	0	0	0	512	508	0	0	
3	0	0	0	0	515	509	0	0	
4	0	0	0	0	513	509	0	0	
5	0	0	0	0	513	510	0	0	
6	0	0	0	0	513	510	0	0	
7	0	0	0	0	513	506	0	0	
8	0	0	0	0	511	507	0	0	
9	0	0	0	0	513	507	0	0	
10	0	0	0	0	512	508	0	0	
11	0	0	0	0	512	508	0	0	
12	0	0	0	0	511	511	0	0	
13	0	0	0	0	512	507	0	0	
14	0	0	0	0	510	508	0	0	
15	0	0	0	0	509	506	0	0	
0	0	0	0	0	508	507	0	0	
1	0	0	0	0	511	507	0	0	
2	0	0	0	0	510	508	0	0	
3	0	0	0	0	510	507	0	0	
4	0	0	0	0	511	508	0	0	
5	0	0	0	0	511	509	0	0	
6	0	0	0	0	511	510	0	0	
7	0	0	0	0	511	510	0	0	
8	0	0	0	0	513	508	0	0	
9	0	0	0	0	512	509	0	0	
10	0	0	0	0	513	507	0	0	
11	0	0	0	0	513	508	0	0	
12	0	0	0	0	513	506	0	0	
13	0	0	0	0	513	509	0	0	
14	0	0	0	0	510	506	0	0	
15	0	0	0	0	512	508	0	0	
0	0	0	0	0	509	508	0	0	
1	0	0	0	0	511	507	0	0	
2	0	0	0	0	510	508	0	0	
3	0	0	0	0	511	506	0	0	
4	0	0	0	0	509	507	0	0	
5	0	0	0	0	510	507	0	0	
6	0	0	0	0	510	508	0	0	
7	0	0	0	0	511	509	0	0	
8	0	0	0	0	510	507	0	0	
9	0	0	0	0	511	508	0	0	
10	0	0	0	0	510	508	0	0	
11	0	0	0	0	512	509	0	0	
12	0	0	0	0	512	509	0	0	
13	0	0	0	0	510	509	0	0	
14	0	0	0	0	513	508	0	0	
15	0	0	0	0	511	508	0	0	
0	0	0	0	0	511	509	0	0	
1	0	0	0	0	513	509	0	0	
2	0	0	0	0	512	508	0	0	
3	0	0	0	0	512	508	0	0	
4	0	0	0	0	512	506	0	0	
5	0	0	0	0	509	508	0	0	
6	0	0	0	0	510	509	0	0	
7	0	0	0	0	511	507	0	0	
8	0	0	0	0	511	508	0	0	
9	0	0	0	0	510	507	0	0	
10	0	0	0	0	510	508	0	0	
11	0	0	0	0	511	506	0	0	
12	0	0	0	0	510	508	0	0	
13	0	0	0	0	509	506	0	0	
14	0	0	0	0	509	507	0	0	
15	0	0	0	0	511	506	0	0	
0	0	0	0	0	513	508	0	0	
1	0	0	0	0	510	510	0	0	
2	0	0	0	0	513	508	0	0	
3	0	0	0	0	509	508	0	0	
4	0	0	0	0	511	508	0	0	
5	0	0	0	0	512	508	0	0	
6	0	0	0	0	512	508	0	0	
7	0	0	0	0	512	507	0	0	
8	0	0	0	0	511	509	0	0	
9	0	0	0	0	510	508	0	0	
10	0	0	0	0	510	508	0	0	
11	0	0	0	0	512	509	0	0	
12	0	0	0	0	510	509	0	0	
13	0	0	0	0	508	508	0	0	
14	0	0	0	0	510	509	0	0	
15	0	0	0	0	510	508	0	0	
0	0	0	0	0	510	507	0	0	
1	0	0	0	0	512	507	0	0	
2	0	0	0	0	511	507	0	0	
3	0	0	0	0	511	508	0	0	
4	0	0	0	0	513	507	0	0	
5	0	0	0	0	513	508	0	0	
6	0	0	0	0	511	507	0	0	
7	0	0	0	0	512	509	0	0	
8	0	0	0	0	512	508	0	0	
9	0	0	0	0	513	508	0	0	
10	0	0	0	0	512	508	0	0	
11	0	0	0	0	511	505	0	0	
12	0	0	0	0	512	508	0	0	
13	0	0	0	0	511	508	0	0	
14	0	0	0	0	510	509	0	0	
15	0	0	0	0	510	510	0	0	
0	0	0	0	0	510	508	0	0	
1	0	0	0	0	511	508	0	0	
2	0	0	0	0	512	509	0	0	
3	0	0	0	0	511	507	0	0	
4	0	0	0	0	509	507	0	0	
5	0	0	0	0	512	507	0	0	
6	0	0	0	0	511	508	0	0	
7	0	0	0	0	512	509	0	0	
8	0	0	0	0	512	507	0	0	
9	0	0	0	0	513	506	0	0	
10	0	0	0	0	510	508	0	0	
11	0	0	0	0	512	509	0	0	
12	0	0	0	0	512	508	0	0	
13	0	0	0	0	512	509	0	0	
14	0	0	0	0	512	509	0	0	
15	0	0	0	0	513	508	0	0	
0	0	0	0	0	511	508	0	0	
1	0	0	0	0	512	507	0	0	
2	0	0	0	0	510	510	0	0	
3	0	0	0	0	510	510	0	0	
4	0	0	0	0	511	507	0	0	
5	0	0	0	0	510	508	0	0	
6	0	0	0	0	509	507	0	0	
7	0	0	0	0	510	509	0	0	
8	0	0	0	0	510	509	0	0	
9	0	0	0	0	511	508	0	0	
10	0	0	0	0	511	507	0	0	
11	0	0	0	0	512	506	0	0	
12	0	0	0	0	514	508	0	0	
13	0	0	0	0	513	509	0	0	
14	0	0	0	0	511	509	0	0	
15	0	0	0	0	511	508	0	0	
0	0	0	0	0	511	510	0	0	
1	0	0	0	0	514	508	0	0	
2	0	0	0	0	513	509	0	0	
3	0	0	0	0	511	508	0	0	
4	0	0	0	0	512	507	0	0	
5	0	0	0	0	511	507	0	0	
6	0	0	0	0	509	508	0	0	
7	0	0	0	0	509	508	0	0	
8	0	0	0	0	508	507	0	0	
9	0	0	0	0	510	508	0	0	
10	0	0	0	0	508	508	0	0	
11	0	0	0	0	508	507	0	0	
12	0	0	0	0	509	507	0	0	
13	0	0	0	0	511	508	0	0	
14	0	0	0	0	510	508	0	0	
15	0	0	0	0	513	508	0	0	
0	0	0	0	0	511	508	0	0	
1	0	0	0	0	513	508	0	0	
2	0	0	0	0	513	508	0	0	
3	0	0	0	0	513	508	0	0	
4	0	0	0	0	514	507	0	0	
5	0	0	0	0	512	508	0	0	
6	0	0	0	0	511	510	0	0	
7	0	0	0	0	511	508	0	0	
8	0	0	0	0	511	507	0	0	
9	0	0	0	0	509	507	0	0	
10	0	0	0	0	508	506	0	0	
11	0	0	0	0	509	507	0	0	
12	0	0	0	0	510	509	0	0	
13	0	0	0	0	510	508	0	0	
14	0	0	0	0	510	508	0	0	
15	0	0	0	0	510	506	0	0	
0	0	0	0	0	510	508	0	0	
1	0	0	0	0	510	508	0	0	
2	0	0	0	0	511	507	0	0	
3	0	0	0	0	513	511	0	0	
4	0	0	0	0	512	508	0	0	
5	0	0	0	0	512	507	0	0	
6	0	0	0	0	512	508	0	0	
7	0	0	0	0	513	508	0	0	
8	0	0	0	0	514	507	0	0	
9	0	0	0	0	514	509	0	0	
10	0	0	0	0	512	509	0	0	
11	0	0	0	0	511	509	0	0	
12	0	0	0	0	512	509	0	0	
13	0	0	0	0	509	510	0	0	
14	0	0	0	0	510	508	0	0	
15	0	0	0	0	508	508	0	0	
0	0	0	0	0	512	507	0	0	
1	0	0	0	0	509	508	0	0	
2	0	0	0	0	510	508	0	0	
3	0	0	0	0	511	507	0	0	
4	0	0	0	0	511	506	0	0	
5	0	0	0	0	509	508	0	0	
6	0	0	0	0	512	508	0	0	
7	0	0	0	0	511	508	0	0	
8	0	0	0	0	511	507	0	0	
9	0	0	0	0	510	508	0	0	
10	0	0	0	0	513	507	0	0	
11	0	0	0	0	511	509	0	0	
12	0	0	0	0	513	508	0	0	
13	0	0	0	0	515	511	0	0	
14	0	0	0	0	513	508	0	0	
15	0	0	0	0	511	509	0	0	
0	0	0	0	0	510	509	0	0	
1	0	0	0	0	510	507	0	0	
2	0	0	0	0	511	508	0	0	
3	0	0	0	0	510	508	0	0	
4	0	0	0	0	508	509	0	0	
5	0	0	0	0	510	506	0	0	
6	0	0	0	0	510	507	0	0	
7	0	0	0	0	510	508	0	0	
8	0	0	0	0	511	509	0	0	
9	0	0	0	0	511	507	0	0	
10	0	0	0	0	511	510	0	0	
11	0	0	0	0	510	508	0	0	
12	0	0	0	0	512	510	0	0	
13	0	0	0	0	512	507	0	0	
14	0	0	0	0	512	508	0	0	
15	0	0	0	0	512	508	0	0	
0	0	0	0	0	512	507	0	0	
1	0	0	0	0	512	509	0	0	
2	0	0	0	0	511	509	0	0	
3	0	0	0	0	510	507	0	0	
4	0	0	0	0	512	508	0	0	
5	0	0	0	0	512	507	0	0	
6	0	0	0	0	513	508	0	0	
7	0	0	0	0	511	508	0	0	
8	0	0	0	0	511	508	0	0	
9	0	0	0	0	511	508	0	0	
10	0	0	0	0	510	508	0	0	
11	0	0	0	0	511	508	0	0	
12	0	0	0	0	511	508	0	0	
13	0	0	0	0	511	508	0	0	
14	0	0	0	0	510	507	0	0	
15	0	0	0	0	511	509	0	0	
0	0	0	0	0	511	508	0	0	
1	0	0	0	0	511	508	0	0	
2	0	0	0	0	512	508	0	0	
3	0	0	0	0	512	507	0	0	
4	0	0	0	0	513	508	0	0	
5	0	0	0	0	511	508	0	0	
6	0	0	0	0	511	510	0	0	
7	0	0	0	0	512	508	0	0	
8	0	0	0	0	511	506	0	0	
9	0	0	0	0	511	509	0	0	
10	0	0	0	0	508	508	0	0	
11	0	0	0	0	508	505	0	0	
12	0	0	0	0	511	509	0	0	
13	0	0	0	0	511	508	0	0	
14	0	0	0	0	511	508	0	0	
15	0	0	0	0	511	507	0	0	
0	0	0	0	0	511	508	0	0	
1	0	0	0	0	510	508	0	0	
2	0	0	0	0	510	508	0	0	
3	0	0	0	0	512	510	0	0	
4	0	0	0	0	510	508	0	0	
5	0	0	0	0	510	508	0	0	
6	0	0	0	0	512	508	0	0	
7	0	0	0	0	513	507	0	0	
8	0	0	0	0	512	508	0	0	
9	0	0	0	0	512	508	0	0	
10	0	0	0	0	511	508	0	0	
11	0	0	0	0	512	508	0	0	
12	0	0	0	0	511	509	0	0	
13	0	0	0	0	510	508	0	0	
14	0	0	0	0	512	508	0	0	
15	0	0	0	0	508	508	0	0	
0	0	0	0	0	511	509	0	0	
1	0	0	0	0	511	508	0	0	
2	0	0	0	0	511	508	0	0	
3	0	0	0	0	511	510	0	0	
4	0	0	0	0	511	505	0	0	
5	0	0	0	0	512	508	0	0	
6	0	0	0	0	510	506	0	0	
7	0	0	0	0	510	508	0	0	
8	0	0	0	0	510	509	0	0	
9	0	0	0	0	512	509	0	0	
10	0	0	0	0	513	508	0	0	
11	0	0	0	0	511	508	0	0	
12	0	0	0	0	512	508	0	0	
13	0	0	0	0	511	510	0	0	
14	0	0	0	0	511	507	0	0	
15	0	0	0	0	513	506	0	0	
0	0	0	0	0	512	508	0	0	
1	0	0	0	0	511	509	0	0	
2	0	0	0	0	511	507	0	0	
3	0	0	0	0	510	507	0	0	
4	0	0	0	0	510	509	0	0	
5	0	0	0	0	511	509	0	0	
6	0	0	0	0	509	508	0	0	
7	0	0	0	0	510	508	0	0	
8	0	0	0	0	510	508	0	0	
9	0	0	0	0	510	506	0	0	
10	0	0	0	0	511	507	0	0	
11	0	0	0	0	512	508	0	0	
12	0	0	0	0	511	509	0	0	
13	0	0	0	0	511	506	0	0	
14	0	0	0	0	513	508	0	0	
15	0	0	0	0	512	508	0	0	
0	0	0	0	0	513	508	0	0	
1	0	0	0	0	513	507	0	0	
2	0	0	0	0	512	507	0	0	
3	0	0	0	0	511	510	0	0	
4	0	0	0	0	509	508	0	0	
5	0	0	0	0	511	508	0	0	
6	0	0	0	0	511	508	0	0	
7	0	0	0	0	510	508	0	0	
8	0	0	0	0	511	509	0	0	
9	0	0	0	0	511	509	0	0	
10	0	0	0	0	510	510	0	0	
11	0	0	0	0	509	507	0	0	
12	0	0	0	0	509	508	0	0	
13	0	0	0	0	509	508	0	0	
14	0	0	0	0	510	508	0	0	
15	0	0	0	0	510	507	0	0	
0	0	0	0	0	511	507	0	0	
1	0	0	0	0	510	510	0	0	
2	0	0	0	0	511	509	0	0	
3	0	0	0	0	511	507	0	0	
4	0	0	0	0	511	508	0	0	
5	0	0	0	0	514	509	0	0	
6	0	0	0	0	513	508	0	0	
7	0	0	0	0	510	508	0	0	
8	0	0	0	0	512	507	0	0	
9	0	0	0	0	512	507	0	0	
10	0	0	0	0	510	508	0	0	
11	0	0	0	0	511	510	0	0	
12	0	0	0	0	508	508	0	0	
13	0	0	0	0	508	507	0	0	
14	0	0	0	0	508	508	0	0	
15	0	0	0	0	509	508	0	0	
0	0	0	0	0	511	510	0	0	
1	0	0	0	0	511	508	0	0	
2	0	0	0	0	512	508	0	0	
3	0	0	0	0	512	506	0	0	
4	0	0	0	0	512	510	0	0	
5	0	0	0	0	513	508	0	0	
6	0	0	0	0	513	507	0	0	
7	0	0	0	0	511	507	0	0	
8	0	0	0	0	515	508	0	0	
9	0	0	0	0	512	510	0	0	
10	0	0	0	0	513	508	0	0	
11	0	0	0	0	512	508	0	0	
12	0	0	0	0	510	507	0	0	
13	0	0	0	0	511	508	0	0	
14	0	0	0	0	513	510	0	0	
15	0	0	0	0	512	506	0	0	
0	0	0	0	0	512	508	0	0	
1	0	0	0	0	508	508	0	0	
2	0	0	0	0	509	510	0	0	
3	0	0	0	0	510	510	0	0	
4	0	0	0	0	510	509	0	0	
5	0	0	0	0	510	506	0	0	
6	0	0	0	0	511	506	0	0	
7	0	0	0	0	512	509	0	0	
8	0	0	0	0	510	507	0	0	
9	0	0	0	0	512	508	0	0	
10	0	0	0	0	512	508	0	0	
11	0	0	0	0	512	511	0	0	
12	0	0	0	0	514	509	0	0	
13	0	0	0	0	513	507	0	0	
14	0	0	0	0	512	507	0	0	
15	0	0	0	0	510	509	0	0	
0	0	0	0	0	511	508	0	0	
1	0	0	0	0	511	508	0	0	
2	0	0	0	0	511	506	0	0	
3	0	0	0	0	509	508	0	0	
4	0	0	0	0	510	507	0	0	
5	0	0	0	0	508	509	0	0	
6	0	0	0	0	510	508	0	0	
7	0	0	0	0	511	508	0	0	
8	0	0	0	0	508	508	0	0	
9	0	0	0	0	510	508	0	0	
10	0	0	0	0	513	508	0	0	
11	0	0	0	0	510	508	0	0	
12	0	0	0	0	510	509	0	0	
13	0	0	0	0	512	507	0	0	
14	0	0	0	0	513	508	0	0	
15	0	0	0	0	513	509	0	0	
0	0	0	0	0	511	508	0	0	
1	0	0	0	0	512	507	0	0	
2	0	0	0	0	511	509	0	0	
3	0	0	0	0	513	507	0	0	
4	0	0	0	0	514	508	0	0	
5	0	0	0	0	512	509	0	0	
6	0	0	0	0	510	506	0	0	
7	0	0	0	0	511	508	0	0	
8	0	0	0	0	509	508	0	0	
9	0	0	0	0	510	508	0	0	
10	0	0	0	0	511	509	0	0	
11	0	0	0	0	510	507	0	0	
12	0	0	0	0	509	509	0	0	
13	0	0	0	0	510	508	0	0	
14	0	0	0	0	513	506	0	0	
15	0	0	0	0	511	508	0	0	
0	0	0	0	0	511	508	0	0	
1	0	0	0	0	512	508	0	0	
2	0	0	0	0	510	508	0	0	
3	0	0	0	0	511	507	0	0	
4	0	0	0	0	514	507	0	0	
5	0	0	0	0	513	509	0	0	
6	0	0	0	0	512	509	0	0	
7	0	0	0	0	513	508	0	0	
8	0	0	0	0	513	508	0	0	
9	0	0	0	0	510	507	0	0	
10	0	0	0	0	512	507	0	0	
11	0	0	0	0	510	508	0	0	
12	0	0	0	0	509	506	0	0	
13	0	0	0	0	510	509	0	0	
14	0	0	0	0	512	509	0	0	
15	0	0	0	0	510	508	0	0	
0	0	0	0	0	510	508	0	0	
1	0	0	0	0	511	509	0	0	
2	0	0	0	0	508	507	0	0	
3	0	0	0	0	513	508	0	0	
4	0	0	0	0	515	508	0	0	
5	0	0	0	0	511	509	0	0	
6	0	0	0	0	512	509	0	0	
7	0	0	0	0	513	508	0	0	
8	0	0	0	0	513	507	0	0	
9	0	0	0	0	513	508	0	0	
10	0	0	0	0	511	510	0	0	
11	0	0	0	0	508	507	0	0	
12	0	0	0	0	511	508	0	0	
13	0	0	0	0	511	507	0	0	
14	0	0	0	0	511	508	0	0	
15	0	0	0	0	509	507	0	0	
0	0	0	0	0	510	509	0	0	
1	0	0	0	0	507	508	0	0	
2	0	0	0	0	508	508	0	0	
3	0	0	0	0	514	508	0	0	
4	0	0	0	0	511	508	0	0	
5	0	0	0	0	512	510	0	0	
6	0	0	0	0	511	507	0	0	
7	0	0	0	0	510	506	0	0	
8	0	0	0	0	514	507	0	0	
9	0	0	0	0	510	508	0	0	
10	0	0	0	0	514	509	0	0	
11	0	0	0	0	513	508	0	0	
12	0	0	0	0	513	508	0	0	
13	0	0	0	0	513	508	0	0	
14	0	0	0	0	511	505	0	0	
15	0	0	0	0	511	508	0	0	
0	0	0	0	0	511	508	0	0	
1	0	0	0	0	511	511	0	0	
2	0	0	0	0	509	509	0	0	
3	0	0	0	0	511	507	0	0	
4	0	0	0	0	509	508	0	0	
5	0	0	0	0	511	509	0	0	
6	0	0	0	0	510	509	0	0	
7	0	0	0	0	510	508	0	0	
8	0	0	0	0	511	508	0	0	
9	0	0	0	0	511	508	0	0	
10	0	0	0	0	513	507	0	0	
11	0	0	0	0	511	507	0	0	
12	0	0	0	0	513	507	0	0	
13	0	0	0	0	512	508	0	0	
14	0	0	0	0	511	509	0	0	
15	0	0	0	0	513	509	0	0	
0	0	0	0	0	510	508	0	0	
1	0	0	0	0	512	508	0	0	
2	0	0	0	0	511	508	0	0	
3	0	0	0	0	511	505	0	0	
4	0	0	0	0	511	509	0	0	
5	0	0	0	0	511	507	0	0	
6	0	0	0	0	512	507	0	0	
7	0	0	0	0	510	508	0	0	
8	0	0	0	0	510	509	0	0	
9	0	0	0	0	507	505	0	0	
10	0	0	0	0	511	508	0	0	
11	0	0	0	0	512	507	0	0	
12	0	0	0	0	510	508	0	0	
13	0	0	0	0	511	508	0	0	
14	0	0	0	0	511	508	0	0	
15	0	0	0	0	510	509	0	0	
0	0	0	0	0	512	507	0	0	
1	0	0	0	0	511	507	0	0	
2	0	0	0	0	510	508	0	0	
3	0	0	0	0	510	509	0	0	
4	0	0	0	0	511	507	0	0	
5	0	0	0	0	514	509	0	0	
6	0	0	0	0	513	508	0	0	
7	0	0	0	0	511	509	0	0	
8	0	0	0	0	509	506	0	0	
9	0	0	0	0	511	507	0	0	
10	0	0	0	0	511	510	0	0	
11	0	0	0	0	511	507	0	0	
12	0	0	0	0	510	506	0	0	
13	0	0	0	0	509	508	0	0	
14	0	0	0	0	511	509	0	0	
15	0	0	0	0	508	509	0	0	
0	0	0	0	0	511	508	0	0	
1	0	0	0	0	511	505	0	0	
2	0	0	0	0	512	509	0	0	
3	0	0	0	0	512	511	0	0	
4	0	0	0	0	511	508	0	0	
5	0	0	0	0	512	507	0	0	
6	0	0	0	0	515	509	0	0	
7	0	0	0	0	513	509	0	0	
8	0	0	0	0	513	509	0	0	
9	0	0	0	0	511	508	0	0	
10	0	0	0	0	512	509	0	0	
11	0	0	0	0	512	508	0	0	
12	0	0	0	0	511	509	0	0	
13	0	0	0	0	510	506	0	0	
14	0	0	0	0	510	508	0	0	
15	0	0	0	0	511	508	0	0	
0	0	0	0	0	511	507	0	0	
1	0	0	0	0	509	508	0	0	
2	0	0	0	0	510	508	0	0	
3	0	0	0	0	511	509	0	0	
4	0	0	0	0	511	507	0	0	
5	0	0	0	0	510	506	0	0	
6	0	0	0	0	512	509	0	0	
7	0	0	0	0	512	508	0	0	
8	0	0	0	0	511	507	0	0	
9	0	0	0	0	512	506	0	0	
10	0	0	0	0	509	507	0	0	
11	0	0	0	0	511	509	0	0	
12	0	0	0	0	512	509	0	0	
13	0	0	0	0	513	510	0	0	
14	0	0	0	0	513	510	0	0	
15	0	0	0	0	510	508	0	0	
0	0	0	0	0	512	508	0	0	
1	0	0	0	0	510	508	0	0	
2	0	0	0	0	510	507	0	0	
3	0	0	0	0	512	507	0	0	
4	0	0	0	0	509	507	0	0	
5	0	0	0	0	511	508	0	0	
6	0	0	0	0	510	508	0	0	
7	0	0	0	0	511	509	0	0	
8	0	0	0	0	512	507	0	0	
9	0	0	0	0	510	507	0	0	
10	0	0	0	0	511	509	0	0	
11	0	0	0	0	511	508	0	0	
12	0	0	0	0	512	509	0	0	
13	0	0	0	0	513	509	0	0	
14	0	0	0	0	511	507	0	0	
15	0	0	0	0	511	508	0	0	
0	0	0	0	0	513	507	0	0	
1	0	0	0	0	511	510	0	0	
2	0	0	0	0	511	508	0	0	
3	0	0	0	0	512	506	0	0	
4	0	0	0	0	511	504	0	0	
5	0	0	0	0	510	508	0	0	
6	0	0	0	0	511	509	0	0	
7	0	0	0	0	510	509	0	0	
8	0	0	0	0	511	508	0	0	
9	0	0	0	0	509	508	0	0	
10	0	0	0	0	509	507	0	0	
11	0	0	0	0	510	508	0	0	
12	0	0	0	0	511	507	0	0	
13	0	0	0	0	510	508	0	0	
14	0	0	0	0	510	506	0	0	
15	0	0	0	0	511	508	0	0	
0	0	0	0	0	511	509	0	0	
1	0	0	0	0	512	508	0	0	
2	0	0	0	0	511	508	0	0	
3	0	0	0	0	513	508	0	0	
4	0	0	0	0	515	510	0	0	
5	0	0	0	0	513	508	0	0	
6	0	0	0	0	511	508	0	0	
7	0	0	0	0	512	509	0	0	
8	0	0	0	0	511	507	0	0	
9	0	0	0	0	510	508	0	0	
10	0	0	0	0	512	508	0	0	
11	0	0	0	0	512	508	0	0	
12	0	0	0	0	508	507	0	0	
13	0	0	0	0	510	507	0	0	
14	0	0	0	0	509	508	0	0	
15	0	0	0	0	510	511	0	0	
0	0	0	0	0	508	509	0	0	
1	0	0	0	0	510	508	0	0	
2	0	0	0	0	511	510	0	0	
3	0	0	0	0	512	507	0	0	
4	0	0	0	0	514	508	0	0	
5	0	0	0	0	513	508	0	0	
6	0	0	0	0	513	506	0	0	
7	0	0	0	0	515	509	0	0	
8	0	0	0	0	511	510	0	0	
9	0	0	0	0	513	509	0	0	
10	0	0	0	0	511	508	0	0	
11	0	0	0	0	510	508	0	0	
12	0	0	0	0	511	508	0	0	
13	0	0	0	0	511	507	0	0	
14	0	0	0	0	512	509	0	0	
15	0	0	0	0	511	507	0	0	
0	0	0	0	0	511	507	0	0	
1	0	0	0	0	510	508	0	0	
2	0	0	0	0	511	508	0	0	
3	0	0	0	0	511	510	0	0	
4	0	0	0	0	510	508	0	0	
5	0	0	0	0	511	508	0	0	
6	0	0	0	0	511	509	0	0	
7	0	0	0	0	510	506	0	0	
8	0	0	0	0	512	506	0	0	
9	0	0	0	0	512	510	0	0	
10	0	0	0	0	511	509	0	0	
11	0	0	0	0	514	508	0	0	
12	0	0	0	0	513	508	0	0	
13	0	0	0	0	511	510	0	0	
14	0	0	0	0	510	508	0	0	
15	0	0	0	0	512	508	0	0	
0	0	0	0	0	510	504	0	0	
1	0	0	0	0	510	507	0	0	
2	0	0	0	0	510	509	0	0	
3	0	0	0	0	511	508	0	0	
4	0	0	0	0	512	508	0	0	
5	0	0	0	0	508	508	0	0	
6	0	0	0	0	509	506	0	0	
7	0	0	0	0	508	507	0	0	
8	0	0	0	0	511	509	0	0	
9	0	0	0	0	511	508	0	0	
10	0	0	0	0	511	507	0	0	
11	0	0	0	0	509	507	0	0	
12	0	0	0	0	511	508	0	0	
13	0	0	0	0	512	509	0	0	
14	0	0	0	0	513	508	0	0	
15	0	0	0	0	511	511	0	0	
0	0	0	0	0	511	508	0	0	
1	0	0	0	0	513	506	0	0	
2	0	0	0	0	511	506	0	0	
3	0	0	0	0	512	509	0	0	
4	0	0	0	0	513	508	0	0	
5	0	0	0	0	509	507	0	0	
6	0	0	0	0	512	507	0	0	
7	0	0	0	0	511	507	0	0	
8	0	0	0	0	510	508	0	0	
9	0	0	0	0	508	507	0	0	
10	0	0	0	0	510	508	0	0	
11	0	0	0	0	509	508	0	0	
12	0	0	0	0	510	509	0	0	
13	0	0	0	0	510	507	0	0	
14	0	0	0	0	510	508	0	0	
15	0	0	0	0	511	508	0	0	
0	0	0	0	0	511	508	0	0	
1	0	0	0	0	511	509	0	0	
2	0	0	0	0	514	509	0	0	
3	0	0	0	0	512	508	0	0	
4	0	0	0	0	515	508	0	0	
5	0	0	0	0	512	508	0	0	
6	0	0	0	0	510	508	0	0	
7	0	0	0	0	511	508	0	0	
8	0	0	0	0	511	508	0	0	
9	0	0	0	0	507	507	0	0	
10	0	0	0	0	507	505	0	0	
11	0	0	0	0	509	507	0	0	
12	0	0	0	0	511	508	0	0	
13	0	0	0	0	510	510	0	0	
14	0	0	0	0	511	507	0	0	
15	0	0	0	0	511	510	0	0	
0	0	0	0	0	512	507	0	0	
1	0	0	0	0	510	507	0	0	
2	0	0	0	0	512	508	0	0	
3	0	0	0	0	511	507	0	0	
4	0	0	0	0	512	510	0	0	
5	0	0	0	0	511	509	0	0	
6	0	0	0	0	512	509	0	0	
7	0	0	0	0	512	508	0	0	
8	0	0	0	0	513	507	0	0	
9	0	0	0	0	513	508	0	0	
10	0	0	0	0	512	509	0	0	
11	0	0	0	0	511	509	0	0	
12	0	0	0	0	510	508	0	0	
13	0	0	0	0	511	508	0	0	
14	0	0	0	0	510	507	0	0	
15	0	0	0	0	508	507	0	0	
0	0	0	0	0	511	508	0	0	
1	0	0	0	0	509	506	0	0	
2	0	0	0	0	511	508	0	0	
3	0	0	0	0	510	509	0	0	
4	0	0	0	0	508	506	0	0	
5	0	0	0	0	511	509	0	0	
6	0	0	0	0	511	510	0	0	
7	0	0	0	0	512	510	0	0	
8	0	0	0	0	512	508	0	0	
9	0	0	0	0	511	510	0	0	
10	0	0	0	0	511	508	0	0	
11	0	0	0	0	513	507	0	0	
12	0	0	0	0	513	508	0	0	
13	0	0	0	0	514	509	0	0	
14	0	0	0	0	511	508	0	0	
15	0	0	0	0	511	509	0	0	
0	0	0	0	0	510	506	0	0	
1	0	0	0	0	510	508	0	0	
2	0	0	0	0	508	509	0	0	
3	0	0	0	0	509	508	0	0	
4	0	0	0	0	510	509	0	0	
5	0	0	0	0	509	508	0	0	
6	0	0	0	0	511	507	0	0	
7	0	0	0	0	511	509	0	0	
8	0	0	0	0	511	509	0	0	
9	0	0	0	0	512	508	0	0	
10	0	0	0	0	509	509	0	0	
11	0	0	0	0	509	508	0	0	
12	0	0	0	0	512	508	0	0	
13	0	0	0	0	511	508	0	0	
14	0	0	0	0	512	507	0	0	
15	0	0	0	0	513	508	0	0	
0	0	0	0	0	515	509	0	0	
1	0	0	0	0	512	509	0	0	
2	0	0	0	0	512	509	0	0	
3	0	0	0	0	511	508	0	0	
4	0	0	0	0	511	508	0	0	
5	0	0	0	0	511	508	0	0	
6	0	0	0	0	508	506	0	0	
7	0	0	0	0	509	508	0	0	
8	0	0	0	0	511	505	0	0	
9	0	0	0	0	511	506	0	0	
10	0	0	0	0	511	508	0	0	
11	0	0	0	0	511	510	0	0	
12	0	0	0	0	511	509	0	0	
13	0	0	0	0	512	507	0	0	
14	0	0	0	0	509	507	0	0	
15	0	0	0	0	511	509	0	0	
0	0	0	0	0	514	508	0	0	
1	0	0	0	0	513	508	0	0	
2	0	0	0	0	512	508	0	0	
3	0	0	0	0	513	508	0	0	
4	0	0	0	0	512	507	0	0	
5	0	0	0	0	511	510	0	0	
6	0	0	0	0	513	508	0	0	
7	0	0	0	0	512	507	0	0	
8	0	0	0	0	512	509	0	0	
9	0	0	0	0	510	508	0	0	
10	0	0	0	0	511	510	0	0	
11	0	0	0	0	511	505	0	0	
12	0	0	0	0	511	505	0	0	
13	0	0	0	0	510	508	0	0	
14	0	0	0	0	509	508	0	0	
15	0	0	0	0	509	508	0	0	
0	0	0	0	0	510	507	0	0	
1	0	0	0	0	510	508	0	0	
2	0	0	0	0	510	509	0	0	
3	0	0	0	0	511	507	0	0	
4	0	0	0	0	512	506	0	0	
5	0	0	0	0	512	507	0	0	
6	0	0	0	0	514	508	0	0	
7	0	0	0	0	512	508	0	0	
8	0	0	0	0	512	510	0	0	
9	0	0	0	0	514	508	0	0	
10	0	0	0	0	510	507	0	0	
11	0	0	0	0	513	507	0	0	
12	0	0	0	0	512	508	0	0	
13	0	0	0	0	510	508	0	0	
14	0	0	0	0	511	508	0	0	
15	0	0	0	0	511	509	0	0	
0	0	0	0	0	511	509	0	0	
1	0	0	0	0	508	508	0	0	
2	0	0	0	0	509	508	0	0	
3	0	0	0	0	507	508	0	0	
4	0	0	0	0	509	508	0	0	
5	0	0	0	0	512	507	0	0	
6	0	0	0	0	512	507	0	0	
7	0	0	0	0	511	508	0	0	
8	0	0	0	0	511	507	0	0	
9	0	0	0	0	512	507	0	0	
10	0	0	0	0	511	508	0	0	
11	0	0	0	0	513	509	0	0	
12	0	0	0	0	512	509	0	0	
13	0	0	0	0	513	509	0	0	
14	0	0	0	0	512	508	0	0	
15	0	0	0	0	511	508	0	0	
0	0	0	0	0	511	504	0	0	
1	0	0	0	0	513	506	0	0	
2	0	0	0	0	509	509	0	0	
3	0	0	0	0	510	509	0	0	
4	0	0	0	0	511	508	0	0	
5	0	0	0	0	507	508	0	0	
6	0	0	0	0	509	510	0	0	
7	0	0	0	0	510	507	0	0	
8	0	0	0	0	510	508	0	0	
9	0	0	0	0	510	509	0	0	
10	0	0	0	0	510	508	0	0	
11	0	0	0	0	512	507	0	0	
12	0	0	0	0	512	507	0	0	
13	0	0	0	0	512	508	0	0	
14	0	0	0	0	512	507	0	0	
15	0	0	0	0	511	508	0	0	
0	0	0	0	0	514	506	0	0	
1	0	0	0	0	513	509	0	0	
2	0	0	0	0	513	510	0	0	
3	0	0	0	0	511	507	0	0	
4	0	0	0	0	511	510	0	0	
5	0	0	0	0	512	508	0	0	
6	0	0	0	0	511	508	0	0	
7	0	0	0	0	510	508	0	0	
8	0	0	0	0	510	508	0	0	
9	0	0	0	0	510	509	0	0	
10	0	0	0	0	508	509	0	0	
11	0	0	0	0	510	509	0	0	
12	0	0	0	0	508	506	0	0	
13	0	0	0	0	509	508	0	0	
14	0	0	0	0	510	510	0	0	
15	0	0	0	0	513	509	0	0	
0	0	0	0	0	513	507	0	0	
1	0	0	0	0	509	507	0	0	
2	0	0	0	0	512	510	0	0	
3	0	0	0	0	513	509	0	0	
4	0	0	0	0	512	508	0	0	
5	0	0	0	0	512	508	0	0	
6	0	0	0	0	515	506	0	0	
7	0	0	0	0	512	508	0	0	
8	0	0	0	0	510	508	0	0	
9	0	0	0	0	512	508	0	0	
10	0	0	0	0	511	507	0	0	
11	0	0	0	0	509	509	0	0	
12	0	0	0	0	511	510	0	0	
13	0	0	0	0	510	505	0	0	
14	0	0	0	0	511	508	0	0	
15	0	0	0	0	511	508	0	0	
0	0	0	0	0	512	508	0	0	
1	0	0	0	0	510	507	0	0	
2	0	0	0	0	508	508	0	0	
3	0	0	0	0	512	507	0	0	
4	0	0	0	0	514	508	0	0	
5	0	0	0	0	512	508	0	0	
6	0	0	0	0	511	509	0	0	
7	0	0	0	0	511	507	0	0	
8	0	0	0	0	512	509	0	0	
9	0	0	0	0	511	508	0	0	
10	0	0	0	0	511	508	0	0	
11	0	0	0	0	511	508	0	0	
12	0	0	0	0	512	508	0	0	
13	0	0	0	0	512	507	0	0	
14	0	0	0	0	509	507	0	0	
15	0	0	0	0	510	507	0	0	
0	0	0	0	0	510	508	0	0	
1	0	0	0	0	510	508	0	0	
2	0	0	0	0	510	508	0	0	
3	0	0	0	0	509	509	0	0	
4	0	0	0	0	512	509	0	0	
5	0	0	0	0	512	506	0	0	
6	0	0	0	0	512	508	0	0	
7	0	0	0	0	511	508	0	0	
8	0	0	0	0	511	510	0	0	
9	0	0	0	0	511	509	0	0	
10	0	0	0	0	513	506	0	0	
11	0	0	0	0	510	507	0	0	
12	0	0	0	0	512	507	0	0	
13	0	0	0	0	511	508	0	0	
14	0	0	0	0	510	507	0	0	
15	0	0	0	0	511	508	0	0	
0	0	0	0	0	511	506	0	0	
1	0	0	0	0	511	507	0	0	
2	0	0	0	0	513	507	0	0	
3	0	0	0	0	511	512	0	0	
4	0	0	0	0	511	508	0	0	
5	0	0	0	0	512	508	0	0	
6	0	0	0	0	510	508	0	0	
7	0	0	0	0	510	508	0	0	
8	0	0	0	0	508	509	0	0	
9	0	0	0	0	510	508	0	0	
10	0	0	0	0	511	505	0	0	
11	0	0	0	0	512	508	0	0	
12	0	0	0	0	512	509	0	0	
13	0	0	0	0	513	509	0	0	
14	0	0	0	0	514	510	0	0	
15	0	0	0	0	512	509	0	0	
0	0	0	0	0	513	509	0	0	
1	0	0	0	0	511	507	0	0	
2	0	0	0	0	511	507	0	0	
3	0	0	0	0	512	508	0	0	
4	0	0	0	0	511	507	0	0	
5	0	0	0	0	511	508	0	0	
6	0	0	0	0	510	508	0	0	
7	0	0	0	0	510	508	0	0	
8	0	0	0	0	511	508	0	0	
9	0	0	0	0	510	508	0	0	
10	0	0	0	0	511	507	0	0	
11	0	0	0	0	509	510	0	0	
12	0	0	0	0	509	508	0	0	
13	0	0	0	0	511	508	0	0	
14	0	0	0	0	510	507	0	0	
15	0	0	0	0	510	507	0	0	
0	0	0	0	0	513	509	0	0	
1	0	0	0	0	511	508	0	0	
2	0	0	0	0	512	508	0	0	
3	0	0	0	0	510	507	0	0	
4	0	0	0	0	512	508	0	0	
5	0	0	0	0	513	508	0	0	
6	0	0	0	0	513	509	0	0	
7	0	0	0	0	511	509	0	0	
8	0	0	0	0	511	505	0	0	
9	0	0	0	0	509	508	0	0	
10	0	0	0	0	511	509	0	0	
11	0	0	0	0	513	509	0	0	
12	0	0	0	0	511	507	0	0	
13	0	0	0	0	510	508	0	0	
14	0	0	0	0	509	508	0	0	
15	0	0	0	0	510	508	0	0	
0	0	0	0	0	510	508	0	0	
1	0	0	0	0	511	508	0	0	
2	0	0	0	0	511	508	0	0	
3	0	0	0	0	511	508	0	0	
4	0	0	0	0	513	508	0	0	
5	0	0	0	0	512	509	0	0	
6	0	0	0	0	511	508	0	0	
7	0	0	0	0	511	507	0	0	
8	0	0	0	0	513	507	0	0	
9	0	0	0	0	512	508	0	0	
10	0	0	0	0	513	508	0	0	
11	0	0	0	0	512	510	0	0	
12	0	0	0	0	512	508	0	0	
13	0	0	0	0	511	506	0	0	
14	0	0	0	0	511	508	0	0	
15	0	0	0	0	510	509	0	0	
0	0	0	0	0	512	508	0	0	
1	0	0	0	0	508	508	0	0	
2	0	0	0	0	509	507	0	0	
3	0	0	0	0	509	508	0	0	
4	0	0	0	0	510	508	0	0	
5	0	0	0	0	510	508	0	0	
6	0	0	0	0	510	508	0	0	
7	0	0	0	0	510	508	0	0	
8	0	0	0	0	510	508	0	0	
9	0	0	0	0	513	507	0	0	
10	0	0	0	0	514	508	0	0	
11	0	0	0	0	512	507	0	0	
12	0	0	0	0	514	508	0	0	
13	0	0	0	0	511	506	0	0	
14	0	0	0	0	511	505	0	0	
15	0	0	0	0	510	508	0	0	
0	0	0	0	0	511	509	0	0	
1	0	0	0	0	513	511	0	0	
2	0	0	0	0	511	509	0	0	
3	0	0	0	0	508	508	0	0	
4	0	0	0	0	511	507	0	0	
5	0	0	0	0	511	507	0	0	
6	0	0	0	0	511	508	0	0	
7	0	0	0	0	510	508	0	0	
8	0	0	0	0	511	509	0	0	
9	0	0	0	0	511	508	0	0	
10	0	0	0	0	510	508	0	0	
11	0	0	0	0	512	508	0	0	
12	0	0	0	0	512	508	0	0	
13	0	0	0	0	511	508	0	0	
14	0	0	0	0	510	506	0	0	
15	0	0	0	0	510	508	0	0	
0	0	0	0	0	511	507	0	0	
1	0	0	0	0	511	509	0	0	
2	0	0	0	0	512	510	0	0	
3	0	0	0	0	514	510	0	0	
4	0	0	0	0	512	509	0	0	
5	0	0	0	0	513	507	0	0	
6	0	0	0	0	510	505	0	0	
7	0	0	0	0	509	509	0	0	
8	0	0	0	0	511	510	0	0	
9	0	0	0	0	509	505	0	0	
10	0	0	0	0	509	507	0	0	
11	0	0	0	0	510	508	0	0	
12	0	0	0	0	508	507	0	0	
13	0	0	0	0	511	507	0	0	
14	0	0	0	0	511	507	0	0	
15	0	0	0	0	511	509	0	0	
0	0	0	0	0	513	508	0	0	
1	0	0	0	0	511	508	0	0	
2	0	0	0	0	510	510	0	0	
3	0	0	0	0	514	509	0	0	
4	0	0	0	0	512	508	0	0	
5	0	0	0	0	511	508	0	0	
6	0	0	0	0	511	508	0	0	
7	0	0	0	0	512	507	0	0	
8	0	0	0	0	512	507	0	0	
9	0	0	0	0	511	508	0	0	
10	0	0	0	0	511	510	0	0	
11	0	0	0	0	510	510	0	0	
12	0	0	0	0	512	508	0	0	
13	0	0	0	0	511	509	0	0	
14	0	0	0	0	508	506	0	0	
15	0	0	0	0	510	507	0	0	
0	0	0	0	0	512	508	0	0	
1	0	0	0	0	511	506	0	0	
2	0	0	0	0	509	509	0	0	
3	0	0	0	0	511	508	0	0	
4	0	0	0	0	512	507	0	0	
5	0	0	0	0	513	508	0	0	
6	0	0	0	0	512	506	0	0	
7	0	0	0	0	512	508	0	0	
8	0	0	0	0	510	509	0	0	
9	0	0	0	0	511	508	0	0	
10	0	0	0	0	512	510	0	0	
11	0	0	0	0	513	506	0	0	
12	0	0	0	0	510	508	0	0	
13	0	0	0	0	511	509	0	0	
14	0	0	0	0	511	507	0	0	
15	0	0	0	0	509	508	0	0	
0	0	0	0	0	510	508	0	0	
1	0	0	0	0	510	508	0	0	
2	0	0	0	0	510	508	0	0	
3	0	0	0	0	509	509	0	0	
4	0	0	0	0	512	509	0	0	
5	0	0	0	0	510	505	0	0	
6	0	0	0	0	509	508	0	0	
7	0	0	0	0	510	508	0	0	
8	0	0	0	0	512	508	0	0	
9	0	0	0	0	512	509	0	0	
10	0	0	0	0	514	508	0	0	
11	0	0	0	0	512	507	0	0	
12	0	0	0	0	512	508	0	0	
13	0	0	0	0	512	508	0	0	
14	0	0	0	0	513	507	0	0	
15	0	0	0	0	512	509	0	0	
0	0	0	0	0	511	506	0	0	
1	0	0	0	0	510	507	0	0	
2	0	0	0	0	510	509	0	0	
3	0	0	0	0	510	508	0	0	
4	0	0	0	0	509	510	0	0	
5	0	0	0	0	511	505	0	0	
6	0	0	0	0	511	507	0	0	
7	0	0	0	0	510	508	0	0	
8	0	0	0	0	511	506	0	0	
9	0	0	0	0	508	509	0	0	
10	0	0	0	0	509	509	0	0	
11	0	0	0	0	511	508	0	0	
12	0	0	0	0	513	507	0	0	
13	0	0	0	0	511	510	0	0	
14	0	0	0	0	512	507	0	0	
15	0	0	0	0	511	508	0	0	
0	0	0	0	0	510	508	0	0	
1	0	0	0	0	511	507	0	0	
2	0	0	0	0	511	505	0	0	
3	0	0	0	0	512	508	0	0	
4	0	0	0	0	511	509	0	0	
5	0	0	0	0	511	508	0	0	
6	0	0	0	0	512	507	0	0	
7	0	0	0	0	511	508	0	0	
8	0	0	0	0	510	508	0	0	
9	0	0	0	0	511	508	0	0	
10	0	0	0	0	512	507	0	0	
11	0	0	0	0	512	509	0	0	
12	0	0	0	0	511	508	0	0	
13	0	0	0	0	513	508	0	0	
14	0	0	0	0	509	508	0	0	
15	0	0	0	0	512	507	0	0	
0	0	0	0	0	512	509	0	0	
1	0	0	0	0	511	508	0	0	
2	0	0	0	0	511	508	0	0	
3	0	0	0	0	511	507	0	0	
4	0	0	0	0	512	508	0	0	
5	0	0	0	0	514	508	0	0	
6	0	0	0	0	511	509	0	0	
7	0	0	0	0	511	508	0	0	
8	0	0	0	0	512	509	0	0	
9	0	0	0	0	512	508	0	0	
10	0	0	0	0	509	508	0	0	
11	0	0	0	0	511	508	0	0	
12	0	0	0	0	512	508	0	0	
13	0	0	0	0	511	508	0	0	
14	0	0	0	0	509	508	0	0	
15	0	0	0	0	508	507	0	0	
0	0	0	0	0	510	507	0	0	
1	0	0	0	0	512	509	0	0	
2	0	0	0	0	511	509	0	0	
3	0	0	0	0	511	505	0	0	
4	0	0	0	0	511	509	0	0	
5	0	0	0	0	511	507	0	0	
6	0	0	0	0	512	509	0	0	
7	0	0	0	0	513	507	0	0	
8	0	0	0	0	513	508	0	0	
9	0	0	0	0	511	511	0	0	
10	0	0	0	0	511	507	0	0	
11	0	0	0	0	513	508	0	0	
12	0	0	0	0	512	508	0	0	
13	0	0	0	0	512	508	0	0	
14	0	0	0	0	511	508	0	0	
15	0	0	0	0	511	508	0	0	
0	0	0	0	0	511	507	0	0	
1	0	0	0	0	509	507	0	0	
2	0	0	0	0	511	508	0	0	
3	0	0	0	0	510	508	0	0	
4	0	0	0	0	511	507	0	0	
5	0	0	0	0	511	510	0	0	
6	0	0	0	0	511	508	0	0	
7	0	0	0	0	512	509	0	0	
8	0	0	0	0	511	507	0	0	
9	0	0	0	0	512	507	0	0	
10	0	0	0	0	513	510	0	0	
11	0	0	0	0	512	508	0	0	
12	0	0	0	0	512	508	0	0	
13	0	0	0	0	512	507	0	0	
14	0	0	0	0	512	507	0	0	
15	0	0	0	0	513	509	0	0	
0	0	0	0	0	510	507	0	0	
1	0	0	0	0	511	509	0	0	
2	0	0	0	0	512	509	0	0	
3	0	0	0	0	511	509	0	0	
4	0	0	0	0	509	507	0	0	
5	0	0	0	0	510	506	0	0	
6	0	0	0	0	508	508	0	0	
7	0	0	0	0	508	509	0	0	
8	0	0	0	0	508	507	0	0	
9	0	0	0	0	510	509	0	0	
10	0	0	0	0	508	508	0	0	
11	0	0	0	0	511	507	0	0	
12	0	0	0	0	512	507	0	0	
13	0	0	0	0	511	507	0	0	
14	0	0	0	0	514	509	0	0	
15	0	0	0	0	511	507	0	0	
0	0	0	0	0	512	509	0	0	
1	0	0	0	0	513	506	0	0	
2	0	0	0	0	515	509	0	0	
3	0	0	0	0	511	507	0	0	
4	0	0	0	0	513	507	0	0	
5	0	0	0	0	511	509	0	0	
6	0	0	0	0	510	508	0	0	
7	0	0	0	0	509	505	0	0	
8	0	0	0	0	509	508	0	0	
9	0	0	0	0	511	508	0	0	
10	0	0	0	0	510	508	0	0	
11	0	0	0	0	509	508	0	0	
12	0	0	0	0	510	508	0	0	
13	0	0	0	0	510	510	0	0	
14	0	0	0	0	511	506	0	0	
15	0	0	0	0	512	510	0	0	
0	0	0	0	0	511	506	0	0	
1	0	0	0	0	512	509	0	0	
2	0	0	0	0	512	508	0	0	
3	0	0	0	0	512	507	0	0	
4	0	0	0	0	513	510	0	0	
5	0	0	0	0	514	508	0	0	
6	0	0	0	0	512	508	0	0	
7	0	0	0	0	510	507	0	0	
8	0	0	0	0	510	506	0	0	
9	0	0	0	0	512	511	0	0	
10	0	0	0	0	510	509	0	0	
11	0	0	0	0	510	507	0	0	
12	0	0	0	0	510	508	0	0	
13	0	0	0	0	510	508	0	0	
14	0	0	0	0	509	508	0	0	
15	0	0	0	0	511	507	0	0	
0	0	0	0	0	510	507	0	0	
1	0	0	0	0	510	507	0	0	
2	0	0	0	0	511	507	0	0	
3	0	0	0	0	510	509	0	0	
4	0	0	0	0	510	508	0	0	
5	0	0	0	0	512	507	0	0	
6	0	0	0	0	514	508	0	0	
7	0	0	0	0	511	507	0	0	
8	0	0	0	0	512	507	0	0	
9	0	0	0	0	512	508	0	0	
10	0	0	0	0	513	509	0	0	
11	0	0	0	0	513	508	0	0	
12	0	0	0	0	511	507	0	0	
13	0	0	0	0	510	508	0	0	
14	0	0	0	0	510	509	0	0	
15	0	0	0	0	509	509	0	0	
0	0	0	0	0	510	508	0	0	
1	0	0	0	0	509	508	0	0	
2	0	0	0	0	508	507	0	0	
3	0	0	0	0	509	505	0	0	
4	0	0	0	0	508	507	0	0	
5	0	0	0	0	511	506	0	0	
6	0	0	0	0	513	508	0	0	
7	0	0	0	0	510	508	0	0	
8	0	0	0	0	513	510	0	0	
9	0	0	0	0	511	508	0	0	
10	0	0	0	0	512	507	0	0	
11	0	0	0	0	512	509	0	0	
12	0	0	0	0	513	507	0	0	
13	0	0	0	0	511	508	0	0	
14	0	0	0	0	513	507	0	0	
15	0	0	0	0	512	509	0	0	
0	0	0	0	0	513	508	0	0	
1	0	0	0	0	512	508	0	0	
2	0	0	0	0	512	508	0	0	
3	0	0	0	0	511	509	0	0	
4	0	0	0	0	509	508	0	0	
5	0	0	0	0	509	509	0	0	
6	0	0	0	0	509	508	0	0	
7	0	0	0	0	510	507	0	0	
8	0	0	0	0	510	507	0	0	
9	0	0	0	0	511	506	0	0	
10	0	0	0	0	509	508	0	0	
11	0	0	0	0	510	509	0	0	
12	0	0	0	0	512	511	0	0	
13	0	0	0	0	511	509	0	0	
14	0	0	0	0	512	508	0	0	
15	0	0	0	0	511	509	0	0	
0	0	0	0	0	512	509	0	0	
1	0	0	0	0	513	508	0	0	
2	0	0	0	0	512	507	0	0	
3	0	0	0	0	511	510	0	0	
4	0	0	0	0	511	505	0	0	
5	0	0	0	0	511	508	0	0	
6	0	0	0	0	511	508	0	0	
7	0	0	0	0	508	508	0	0	
8	0	0	0	0	511	507	0	0	
9	0	0	0	0	508	508	0	0	
10	0	0	0	0	508	508	0	0	
11	0	0	0	0	511	508	0	0	
12	0	0	0	0	511	507	0	0	
13	0	0	0	0	512	507	0	0	
14	0	0	0	0	510	508	0	0	
15	0	0	0	0	511	508	0	0	
0	0	0	0	0	514	509	0	0	
1	0	0	0	0	511	509	0	0	
2	0	0	0	0	513	505	0	0	
3	0	0	0	0	513	510	0	0	
4	0	0	0	0	511	508	0	0	
5	0	0	0	0	512	509	0	0	
6	0	0	0	0	511	507	0	0	
7	0	0	0	0	511	507	0	0	
8	0	0	0	0	512	508	0	0	
9	0	0	0	0	510	508	0	0	
10	0	0	0	0	510	507	0	0	
11	0	0	0	0	510	507	0	0	
12	0	0	0	0	509	509	0	0	
13	0	0	0	0	511	507	0	0	
14	0	0	0	0	509	507	0	0	
15	0	0	0	0	511	508	0	0	
0	0	0	0	0	510	508	0	0	
1	0	0	0	0	510	507	0	0	
2	0	0	0	0	512	508	0	0	
3	0	0	0	0	511	509	0	0	
4	0	0	0	0	512	507	0	0	
5	0	0	0	0	512	508	0	0	
6	0	0	0	0	513	509	0	0	
7	0	0	0	0	515	507	0	0	
8	0	0	0	0	511	509	0	0	
9	0	0	0	0	511	508	0	0	
10	0	0	0	0	511	509	0	0	
11	0	0	0	0	511	505	0	0	
12	0	0	0	0	511	508	0	0	
13	0	0	0	0	513	508	0	0	
14	0	0	0	0	509	510	0	0	
15	0	0	0	0	509	508	0	0	
0	0	0	0	0	511	508	0	0	
1	0	0	0	0	510	508	0	0	
2	0	0	0	0	509	508	0	0	
3	0	0	0	0	510	507	0	0	
4	0	0	0	0	510	508	0	0	
5	0	0	0	0	511	509	0	0	
6	0	0	0	0	510	507	0	0	
7	0	0	0	0	511	507	0	0	
8	0	0	0	0	511	509	0	0	
9	0	0	0	0	513	509	0	0	
10	0	0	0	0	511	510	0	0	
11	0	0	0	0	513	508	0	0	
12	0	0	0	0	513	508	0	0	
13	0	0	0	0	512	510	0	0	
14	0	0	0	0	512	509	0	0	
15	0	0	0	0	512	508	0	0	
0	0	0	0	0	511	508	0	0	
1	0	0	0	0	513	507	0	0	
2	0	0	0	0	511	507	0	0	
3	0	0	0	0	510	507	0	0	
4	0	0	0	0	509	508	0	0	
5	0	0	0	0	509	508	0	0	
6	0	0	0	0	510	508	0	0	
7	0	0	0	0	509	508	0	0	
8	0	0	0	0	510	507	0	0	
9	0	0	0	0	511	507	0	0	
10	0	0	0	0	511	510	0	0	
11	0	0	0	0	511	510	0	0	
12	0	0	0	0	511	510	0	0	
13	0	0	0	0	512	509	0	0	
14	0	0	0	0	512	508	0	0	
15	0	0	0	0	511	507	0	0	
0	0	0	0	0	513	508	0	0	
1	0	0	0	0	512	508	0	0	
2	0	0	0	0	512	508	0	0	
3	0	0	0	0	512	509	0	0	
4	0	0	0	0	509	507	0	0	
5	0	0	0	0	509	507	0	0	
6	0	0	0	0	511	508	0	0	
7	0	0	0	0	510	508	0	0	
8	0	0	0	0	511	511	0	0	
9	0	0	0	0	511	508	0	0	
10	0	0	0	0	511	508	0	0	
11	0	0	0	0	509	507	0	0	
12	0	0	0	0	514	508	0	0	
13	0	0	0	0	511	508	0	0	
14	0	0	0	0	511	509	0	0	
15	0	0	0	0	511	508	0	0	
0	0	0	0	0	511	509	0	0	
1	0	0	0	0	512	508	0	0	
2	0	0	0	0	512	509	0	0	
3	0	0	0	0	510	508	0	0	
4	0	0	0	0	512	510	0	0	
5	0	0	0	0	513	508	0	0	
6	0	0	0	0	512	507	0	0	
7	0	0	0	0	511	508	0	0	
8	0	0	0	0	513	508	0	0	
9	0	0	0	0	511	508	0	0	
10	0	0	0	0	511	507	0	0	
11	0	0	0	0	510	506	0	0	
12	0	0	0	0	511	508	0	0	
13	0	0	0	0	511	509	0	0	
14	0	0	0	0	512	507	0	0	
15	0	0	0	0	510	507	0	0	
0	0	0	0	0	509	509	0	0	
1	0	0	0	0	508	508	0	0	
2	0	0	0	0	510	509	0	0	
3	0	0	0	0	511	508	0	0	
4	0	0	0	0	513	506	0	0	
5	0	0	0	0	510	507	0	0	
6	0	0	0	0	509	509	0	0	
7	0	0	0	0	513	508	0	0	
8	0	0	0	0	512	507	0	0	
9	0	0	0	0	512	509	0	0	
10	0	0	0	0	514	507	0	0	
11	0	0	0	0	512	507	0	0	
12	0	0	0	0	510	508	0	0	
13	0	0	0	0	510	508	0	0	
14	0	0	0	0	510	509	0	0	
15	0	0	0	0	511	510	0	0	
0	0	0	0	0	511	508	0	0	
1	0	0	0	0	509	509	0	0	
2	0	0	0	0	511	506	0	0	
3	0	0	0	0	510	508	0	0	
4	0	0	0	0	510	507	0	0	
5	0	0	0	0	511	508	0	0	
6	0	0	0	0	510	507	0	0	
7	0	0	0	0	512	508	0	0	
8	0	0	0	0	511	509	0	0	
9	0	0	0	0	513	507	0	0	
10	0	0	0	0	511	507	0	0	
11	0	0	0	0	512	508	0	0	
12	0	0	0	0	511	508	0	0	
13	0	0	0	0	513	509	0	0	
14	0	0	0	0	511	507	0	0	
15	0	0	0	0	509	508	0	0	
0	0	0	0	0	512	508	0	0	
1	0	0	0	0	512	509	0	0	
2	0	0	0	0	512	508	0	0	
3	0	0	0	0	509	507	0	0	
4	0	0	0	0	510	507	0	0	
5	0	0	0	0	510	509	0	0	
6	0	0	0	0	509	508	0	0	
7	0	0	0	0	511	508	0	0	
8	0	0	0	0	509	508	0	0	
9	0	0	0	0	510	508	0	0	
10	0	0	0	0	510	509	0	0	
11	0	0	0	0	513	508	0	0	
12	0	0	0	0	512	508	0	0	
13	0	0	0	0	512	508	0	0	
14	0	0	0	0	513	509	0	0	
15	0	0	0	0	513	506	0	0	
0	0	0	0	0	510	508	0	0	
1	0	0	0	0	510	506	0	0	
2	0	0	0	0	512	508	0	0	
3	0	0	0	0	512	509	0	0	
4	0	0	0	0	512	508	0	0	
5	0	0	0	0	512	508	0	0	
6	0	0	0	0	513	508	0	0	
7	0	0	0	0	512	508	0	0	
8	0	0	0	0	511	508	0	0	
9	0	0	0	0	511	508	0	0	
10	0	0	0	0	510	508	0	0	
11	0	0	0	0	509	510	0	0	
12	0	0	0	0	511	509	0	0	
13	0	0	0	0	511	509	0	0	
14	0	0	0	0	511	507	0	0	
15	0	0	0	0	511	508	0	0	
0	0	0	0	0	512	509	0	0	
1	0	0	0	0	512	508	0	0	
2	0	0	0	0	511	508	0	0	
3	0	0	0	0	513	508	0	0	
4	0	0	0	0	514	508	0	0	
5	0	0	0	0	512	509	0	0	
6	0	0	0	0	511	508	0	0	
7	0	0	0	0	512	510	0	0	
8	0	0	0	0	510	508	0	0	
9	0	0	0	0	511	506	0	0	
10	0	0	0	0	509	507	0	0	
11	0	0	0	0	509	507	0	0	
12	0	0	0	0	508	508	0	0	
13	0	0	0	0	510	508	0	0	
14	0	0	0	0	510	505	0	0	
15	0	0	0	0	508	508	0	0	
0	0	0	0	0	508	505	0	0	
1	0	0	0	0	510	508	0	0	
2	0	0	0	0	510	509	0	0	
3	0	0	0	0	515	510	0	0	
4	0	0	0	0	510	510	0	0	
5	0	0	0	0	511	508	0	0	
6	0	0	0	0	512	509	0	0	
7	0	0	0	0	511	507	0	0	
8	0	0	0	0	512	507	0	0	
9	0	0	0	0	511	509	0	0	
10	0	0	0	0	511	508	0	0	
11	0	0	0	0	511	508	0	0	
12	0	0	0	0	512	508	0	0	
13	0	0	0	0	512	508	0	0	
14	0	0	0	0	511	508	0	0	
15	0	0	0	0	511	508	0	0	
0	0	0	0	0	512	508	0	0	
1	0	0	0	0	511	507	0	0	
2	0	0	0	0	511	508	0	0	
3	0	0	0	0	510	507	0	0	
4	0	0	0	0	511	508	0	0	
5	0	0	0	0	511	509	0	0	
6	0	0	0	0	510	508	0	0	
7	0	0	0	0	510	508	0	0	
8	0	0	0	0	511	508	0	0	
9	0	0	0	0	513	507	0	0	
10	0	0	0	0	512	507	0	0	
11	0	0	0	0	514	511	0	0	
12	0	0	0	0	511	509	0	0	
13	0	0	0	0	513	507	0	0	
14	0	0	0	0	512	507	0	0	
15	0	0	0	0	511	508	0	0	
0	0	0	0	0	511	508	0	0	
1	0	0	0	0	509	507	0	0	
2	0	0	0	0	510	508	0	0	
3	0	0	0	0	513	509	0	0	
4	0	0	0	0	512	508	0	0	
5	0	0	0	0	510	508	0	0	
6	0	0	0	0	509	508	0	0	
7	0	0	0	0	510	507	0	0	
8	0	0	0	0	511	508	0	0	
9	0	0	0	0	510	507	0	0	
10	0	0	0	0	512	507	0	0	
11	0	0	0	0	510	505	0	0	
12	0	0	0	0	510	507	0	0	
13	0	0	0	0	511	508	0	0	
14	0	0	0	0	511	509	0	0	
15	0	0	0	0	513	509	0	0	
0	0	0	0	0	514	508	0	0	
1	0	0	0	0	513	509	0	0	
2	0	0	0	0	512	508	0	0	
3	0	0	0	0	511	509	0	0	
4	0	0	0	0	511	510	0	0	
5	0	0	0	0	511	508	0	0	
6	0	0	0	0	508	508	0	0	
7	0	0	0	0	510	506	0	0	
8	0	0	0	0	509	509	0	0	
9	0	0	0	0	511	509	0	0	
10	0	0	0	0	511	510	0	0	
11	0	0	0	0	511	509	0	0	
12	0	0	0	0	510	505	0	0	
13	0	0	0	0	511	507	0	0	
14	0	0	0	0	509	509	0	0	
15	0	0	0	0	510	508	0	0	
0	0	0	0	0	510	507	0	0	
1	0	0	0	0	511	508	0	0	
2	0	0	0	0	513	509	0	0	
3	0	0	0	0	514	506	0	0	
4	0	0	0	0	511	508	0	0	
5	0	0	0	0	512	509	0	0	
6	0	0	0	0	511	508	0	0	
7	0	0	0	0	512	507	0	0	
8	0	0	0	0	513	507	0	0	
9	0	0	0	0	511	511	0	0	
10	0	0	0	0	512	507	0	0	
11	0	0	0	0	511	508	0	0	
12	0	0	0	0	510	505	0	0	
13	0	0	0	0	508	508	0	0	
14	0	0	0	0	510	510	0	0	
15	0	0	0	0	508	508	0	0	
0	0	0	0	0	510	507	0	0	
1	0	0	0	0	510	508	0	0	
2	0	0	0	0	508	509	0	0	
3	0	0	0	0	512	507	0	0	
4	0	0	0	0	511	508	0	0	
5	0	0	0	0	513	508	0	0	
6	0	0	0	0	514	509	0	0	
7	0	0	0	0	513	506	0	0	
8	0	0	0	0	515	508	0	0	
9	0	0	0	0	515	508	0	0	
10	0	0	0	0	513	508	0	0	
11	0	0	0	0	513	509	0	0	
12	0	0	0	0	512	507	0	0	
13	0	0	0	0	510	506	0	0	
14	0	0	0	0	512	509	0	0	
15	0	0	0	0	511	510	0	0	
0	0	0	0	0	509	508	0	0	
1	0	0	0	0	508	508	0	0	
2	0	0	0	0	510	509	0	0	
3	0	0	0	0	508	508	0	0	
4	0	0	0	0	512	509	0	0	
5	0	0	0	0	510	507	0	0	
6	0	0	0	0	511	508	0	0	
7	0	0	0	0	510	509	0	0	
8	0	0	0	0	511	507	0	0	
9	0	0	0	0	510	508	0	0	
10	0	0	0	0	513	508	0	0	
11	0	0	0	0	512	507	0	0	
12	0	0	0	0	512	508	0	0	
13	0	0	0	0	513	507	0	0	
14	0	0	0	0	511	508	0	0	
15	0	0	0	0	513	509	0	0	
0	0	0	0	0	512	509	0	0	
1	0	0	0	0	512	509	0	0	
2	0	0	0	0	509	507	0	0	
3	0	0	0	0	509	508	0	0	
4	0	0	0	0	511	508	0	0	
5	0	0	0	0	511	506	0	0	
6	0	0	0	0	511	509	0	0	
7	0	0	0	0	509	509	0	0	
8	0	0	0	0	510	508	0	0	
9	0	0	0	0	510	508	0	0	
10	0	0	0	0	511	508	0	0	
11	0	0	0	0	512	508	0	0	
12	0	0	0	0	512	508	0	0	
13	0	0	0	0	513	507	0	0	
14	0	0	0	0	512	510	0	0	
15	0	0	0	0	512	508	0	0	
0	0	0	0	0	513	507	0	0	
1	0	0	0	0	512	508	0	0	
2	0	0	0	0	511	508	0	0	
3	0	0	0	0	510	508	0	0	
4	0	0	0	0	510	508	0	0	
5	0	0	0	0	511	508	0	0	
6	0	0	0	0	511	505	0	0	
7	0	0	0	0	510	506	0	0	
8	0	0	0	0	510	509	0	0	
9	0	0	0	0	510	508	0	0	
10	0	0	0	0	511	508	0	0	
11	0	0	0	0	508	511	0	0	
12	0	0	0	0	511	508	0	0	
13	0	0	0	0	512	508	0	0	
14	0	0	0	0	511	505	0	0	
15	0	0	0	0	511	508	0	0	
0	0	0	0	0	513	508	0	0	
1	0	0	0	0	512	507	0	0	
2	0	0	0	0	511	508	0	0	
3	0	0	0	0	513	508	0	0	
4	0	0	0	0	513	507	0	0	
5	0	0	0	0	513	505	0	0	
6	0	0	0	0	510	506	0	0	
7	0	0	0	0	512	508	0	0	
8	0	0	0	0	512	509	0	0	
9	0	0	0	0	508	511	0	0	
10	0	0	0	0	509	508	0	0	
11	0	0	0	0	511	508	0	0	
12	0	0	0	0	510	509	0	0	
13	0	0	0	0	509	509	0	0	
14	0	0	0	0	509	507	0	0	
15	0	0	0	0	509	508	0	0	
0	0	0	0	0	511	507	0	0	
1	0	0	0	0	509	508	0	0	
2	0	0	0	0	511	510	0	0	
3	0	0	0	0	510	508	0	0	
4	0	0	0	0	513	507	0	0	
5	0	0	0	0	514	508	0	0	
6	0	0	0	0	512	509	0	0	
7	0	0	0	0	511	509	0	0	
8	0	0	0	0	511	508	0	0	
9	0	0	0	0	513	509	0	0	
10	0	0	0	0	513	508	0	0	
11	0	0	0	0	512	506	0	0	
12	0	0	0	0	510	509	0	0	
13	0	0	0	0	511	507	0	0	
14	0	0	0	0	509	509	0	0	
15	0	0	0	0	508	509	0	0	
0	0	0	0	0	511	509	0	0	
1	0	0	0	0	510	506	0	0	
2	0	0	0	0	510	508	0	0	
3	0	0	0	0	511	508	0	0	
4	0	0	0	0	509	508	0	0	
5	0	0	0	0	512	508	0	0	
6	0	0	0	0	511	505	0	0	
7	0	0	0	0	510	507	0	0	
8	0	0	0	0	513	510	0	0	
9	0	0	0	0	515	509	0	0	
10	0	0	0	0	512	507	0	0	
11	0	0	0	0	512	508	0	0	
12	0	0	0	0	513	508	0	0	
13	0	0	0	0	512	510	0	0	
14	0	0	0	0	512	508	0	0	
15	0	0	0	0	511	508	0	0	
0	0	0	0	0	511	507	0	0	
1	0	0	0	0	511	507	0	0	
2	0	0	0	0	511	507	0	0	
3	0	0	0	0	509	507	0	0	
4	0	0	0	0	512	506	0	0	
5	0	0	0	0	511	507	0	0	
6	0	0	0	0	508	509	0	0	
7	0	0	0	0	510	509	0	0	
8	0	0	0	0	508	507	0	0	
9	0	0	0	0	509	507	0	0	
10	0	0	0	0	510	508	0	0	
11	0	0	0	0	512	508	0	0	
12	0	0	0	0	513	509	0	0	
13	0	0	0	0	512	508	0	0	
14	0	0	0	0	512	507	0	0	
15	0	0	0	0	512	509	0	0	
0	0	0	0	0	511	508	0	0	
1	0	0	0	0	513	508	0	0	
2	0	0	0	0	511	507	0	0	
3	0	0	0	0	511	510	0	0	
4	0	0	0	0	511	508	0	0	
5	0	0	0	0	511	508	0	0	
6	0	0	0	0	512	508	0	0	
7	0	0	0	0	511	509	0	0	
8	0	0	0	0	510	507	0	0	
9	0	0	0	0	509	508	0	0	
10	0	0	0	0	510	507	0	0	
11	0	0	0	0	508	508	0	0	
12	0	0	0	0	509	507	0	0	
13	0	0	0	0	511	510	0	0	
14	0	0	0	0	512	508	0	0	
15	0	0	0	0	512	508	0	0	
0	0	0	0	0	508	509	0	0	
1	0	0	0	0	511	508	0	0	
2	0	0	0	0	511	508	0	0	
3	0	0	0	0	510	507	0	0	
4	0	0	0	0	511	509	0	0	
5	0	0	0	0	513	507	0	0	
6	0	0	0	0	511	508	0	0	
7	0	0	0	0	512	509	0	0	
8	0	0	0	0	511	508	0	0	
9	0	0	0	0	511	508	0	0	
10	0	0	0	0	511	508	0	0	
11	0	0	0	0	509	508	0	0	
12	0	0	0	0	509	508	0	0	
13	0	0	0	0	512	508	0	0	
14	0	0	0	0	511	508	0	0	
15	0	0	0	0	511	508	0	0	
0	0	0	0	0	512	510	0	0	
1	0	0	0	0	510	508	0	0	
2	0	0	0	0	511	508	0	0	
3	0	0	0	0	511	508	0	0	
4	0	0	0	0	511	510	0	0	
5	0	0	0	0	511	509	0	0	
6	0	0	0	0	513	506	0	0	
7	0	0	0	0	511	507	0	0	
8	0	0	0	0	512	508	0	0	
9	0	0	0	0	512	507	0	0	
10	0	0	0	0	514	508	0	0	
11	0	0	0	0	512	507	0	0	
12	0	0	0	0	512	510	0	0	
13	0	0	0	0	511	505	0	0	
14	0	0	0	0	511	508	0	0	
15	0	0	0	0	509	508	0	0	
0	0	0	0	0	510	508	0	0	
1	0	0	0	0	512	509	0	0	
2	0	0	0	0	510	508	0	0	
3	0	0	0	0	510	508	0	0	
4	0	0	0	0	506	507	0	0	
5	0	0	0	0	510	509	0	0	
6	0	0	0	0	511	508	0	0	
7	0	0	0	0	511	508	0	0	
8	0	0	0	0	511	508	0	0	
9	0	0	0	0	512	507	0	0	
10	0	0	0	0	512	506	0	0	
11	0	0	0	0	515	509	0	0	
12	0	0	0	0	515	508	0	0	
13	0	0	0	0	512	508	0	0	
14	0	0	0	0	512	508	0	0	
15	0	0	0	0	511	508	0	0	
0	0	0	0	0	513	509	0	0	
1	0	0	0	0	511	509	0	0	
2	0	0	0	0	511	508	0	0	
3	0	0	0	0	508	508	0	0	
4	0	0	0	0	509	507	0	0	
5	0	0	0	0	509	508	0	0	
6	0	0	0	0	510	508	0	0	
7	0	0	0	0	508	507	0	0	
8	0	0	0	0	509	505	0	0	
9	0	0	0	0	510	509	0	0	
10	0	0	0	0	510	508	0	0	
11	0	0	0	0	511	510	0	0	
12	0	0	0	0	511	506	0	0	
13	0	0	0	0	510	508	0	0	
14	0	0	0	0	513	508	0	0	
15	0	0	0	0	513	509	0	0	
0	0	0	0	0	512	509	0	0	
1	0	0	0	0	513	508	0	0	
2	0	0	0	0	512	508	0	0	
3	0	0	0	0	513	506	0	0	
4	0	0	0	0	511	508	0	0	
5	0	0	0	0	510	510	0	0	
6	0	0	0	0	512	508	0	0	
7	0	0	0	0	508	510	0	0	
8	0	0	0	0	511	508	0	0	
9	0	0	0	0	508	509	0	0	
10	0	0	0	0	510	506	0	0	
11	0	0	0	0	509	509	0	0	
12	0	0	0	0	510	508	0	0	
13	0	0	0	0	512	508	0	0	
14	0	0	0	0	510	506	0	0	
15	0	0	0	0	510	508	0	0	
0	0	0	0	0	513	507	0	0	
1	0	0	0	0	511	508	0	0	
2	0	0	0	0	513	509	0	0	
3	0	0	0	0	512	509	0	0	
4	0	0	0	0	511	508	0	0	
5	0	0	0	0	512	508	0	0	
6	0	0	0	0	512	508	0	0	
7	0	0	0	0	512	508	0	0	
8	0	0	0	0	511	509	0	0	
9	0	0	0	0	509	507	0	0	
10	0	0	0	0	511	508	0	0	
11	0	0	0	0	510	509	0	0	
12	0	0	0	0	511	507	0	0	
13	0	0	0	0	510	508	0	0	
14	0	0	0	0	512	508	0	0	
15	0	0	0	0	511	507	0	0	
0	0	0	0	0	511	508	0	0	
1	0	0	0	0	511	509	0	0	
2	0	0	0	0	511	508	0	0	
3	0	0	0	0	510	508	0	0	
4	0	0	0	0	510	509	0	0	
5	0	0	0	0	509	507	0	0	
6	0	0	0	0	511	506	0	0	
7	0	0	0	0	513	510	0	0	
8	0	0	0	0	513	508	0	0	
9	0	0	0	0	513	508	0	0	
10	0	0	0	0	511	506	0	0	
11	0	0	0	0	511	509	0	0	
12	0	0	0	0	513	507	0	0	
13	0	0	0	0	511	508	0	0	
14	0	0	0	0	512	510	0	0	
15	0	0	0	0	508	509	0	0	
0	0	0	0	0	511	509	0	0	
1	0	0	0	0	510	508	0	0	
2	0	0	0	0	510	505	0	0	
3	0	0	0	0	510	507	0	0	
4	0	0	0	0	511	508	0	0	
5	0	0	0	0	511	508	0	0	
6	0	0	0	0	510	508	0	0	
7	0	0	0	0	511	510	0	0	
8	0	0	0	0	510	508	0	0	
9	0	0	0	0	512	507	0	0	
10	0	0	0	0	511	508	0	0	
11	0	0	0	0	511	507	0	0	
12	0	0	0	0	511	509	0	0	
13	0	0	0	0	513	508	0	0	
14	0	0	0	0	515	508	0	0	
15	0	0	0	0	512	507	0	0	
0	0	0	0	0	512	510	0	0	
1	0	0	0	0	509	508	0	0	
2	0	0	0	0	511	509	0	0	
3	0	0	0	0	510	506	0	0	
4	0	0	0	0	511	508	0	0	
5	0	0	0	0	511	505	0	0	
6	0	0	0	0	508	509	0	0	
7	0	0	0	0	511	510	0	0	
8	0	0	0	0	512	507	0	0	
9	0	0	0	0	510	508	0	0	
10	0	0	0	0	511	508	0	0	
11	0	0	0	0	513	509	0	0	
12	0	0	0	0	511	508	0	0	
13	0	0	0	0	510	507	0	0	
14	0	0	0	0	509	507	0	0	
