# OpenSignals Text File Format. Version 1
# {"20:18:06:13:21:78": {"position": 0, "device": "bitalino_rev", "device name": "20:18:06:13:21:78", "device connection": "BTH20:18:06:13:21:78", "sampling rate": 1000, "resolution": [4, 1, 1, 1, 1, 10, 10, 10, 10], "firmware version": 1281, "comments": "", "keywords": "", "mode": 0, "sync interval": 2, "date": "2023-6-5", "time": "19:51:6.856", "channels": [1, 2, 3, 4], "sensor": ["EMGBITREV", "EMGBITREV", "RAW", "RAW"], "label": ["A1", "A2", "A3", "A4"], "column": ["nSeq", "I1", "I2", "O1", "O2", "A1", "A2", "A3", "A4"], "special": [{}, {}, {}, {}], "digital IO": [0, 0, 1, 1]}}
# EndOfHeader
0	0	0	0	0	510	506	0	0	
1	0	0	0	0	508	508	0	0	
2	0	0	0	0	511	507	0	0	
3	0	0	0	0	511	508	0	0	
4	0	0	0	0	510	508	0	0	
5	0	0	0	0	509	505	0	0	
6	0	0	0	0	511	508	0	0	
7	0	0	0	0	509	508	0	0	
8	0	0	0	0	512	507	0	0	
9	0	0	0	0	512	508	0	0	
10	0	0	0	0	513	507	0	0	
11	0	0	0	0	513	508	0	0	
12	0	0	0	0	512	508	0	0	
13	0	0	0	0	512	509	0	0	
14	0	0	0	0	513	508	0	0	
15	0	0	0	0	510	508	0	0	
0	0	0	0	0	512	509	0	0	
1	0	0	0	0	512	509	0	0	
2	0	0	0	0	509	509	0	0	
3	0	0	0	0	510	508	0	0	
4	0	0	0	0	512	508	0	0	
5	0	0	0	0	510	507	0	0	
6	0	0	0	0	509	507	0	0	
7	0	0	0	0	511	508	0	0	
8	0	0	0	0	510	504	0	0	
9	0	0	0	0	511	507	0	0	
10	0	0	0	0	512	507	0	0	
11	0	0	0	0	511	509	0	0	
12	0	0	0	0	513	510	0	0	
13	0	0	0	0	511	509	0	0	
14	0	0	0	0	511	508	0	0	
15	0	0	0	0	512	510	0	0	
0	0	0	0	0	511	505	0	0	
1	0	0	0	0	510	508	0	0	
2	0	0	0	0	513	508	0	0	
3	0	0	0	0	511	508	0	0	
4	0	0	0	0	511	510	0	0	
5	0	0	0	0	512	507	0	0	
6	0	0	0	0	511	508	0	0	
7	0	0	0	0	510	506	0	0	
8	0	0	0	0	510	507	0	0	
9	0	0	0	0	509	508	0	0	
10	0	0	0	0	511	507	0	0	
11	0	0	0	0	511	506	0	0	
12	0	0	0	0	511	507	0	0	
13	0	0	0	0	510	508	0	0	
14	0	0	0	0	512	508	0	0	
15	0	0	0	0	511	506	0	0	
0	0	0	0	0	511	509	0	0	
1	0	0	0	0	512	508	0	0	
2	0	0	0	0	511	508	0	0	
3	0	0	0	0	512	509	0	0	
4	0	0	0	0	511	508	0	0	
5	0	0	0	0	512	508	0	0	
6	0	0	0	0	511	509	0	0	
7	0	0	0	0	511	509	0	0	
8	0	0	0	0	512	508	0	0	
9	0	0	0	0	507	508	0	0	
10	0	0	0	0	510	510	0	0	
11	0	0	0	0	508	507	0	0	
12	0	0	0	0	508	509	0	0	
13	0	0	0	0	510	507	0	0	
14	0	0	0	0	510	505	0	0	
15	0	0	0	0	509	510	0	0	
0	0	0	0	0	510	508	0	0	
1	0	0	0	0	510	507	0	0	
2	0	0	0	0	512	506	0	0	
3	0	0	0	0	512	508	0	0	
4	0	0	0	0	511	508	0	0	
5	0	0	0	0	514	509	0	0	
6	0	0	0	0	513	511	0	0	
7	0	0	0	0	513	508	0	0	
8	0	0	0	0	512	508	0	0	
9	0	0	0	0	513	509	0	0	
10	0	0	0	0	514	509	0	0	
11	0	0	0	0	512	509	0	0	
12	0	0	0	0	510	508	0	0	
13	0	0	0	0	511	508	0	0	
14	0	0	0	0	511	510	0	0	
15	0	0	0	0	511	510	0	0	
0	0	0	0	0	509	508	0	0	
1	0	0	0	0	510	507	0	0	
2	0	0	0	0	506	508	0	0	
3	0	0	0	0	509	508	0	0	
4	0	0	0	0	509	508	0	0	
5	0	0	0	0	510	505	0	0	
6	0	0	0	0	511	506	0	0	
7	0	0	0	0	513	508	0	0	
8	0	0	0	0	513	507	0	0	
9	0	0	0	0	513	509	0	0	
10	0	0	0	0	511	508	0	0	
11	0	0	0	0	511	507	0	0	
12	0	0	0	0	513	508	0	0	
13	0	0	0	0	515	508	0	0	
14	0	0	0	0	511	511	0	0	
15	0	0	0	0	512	508	0	0	
0	0	0	0	0	512	507	0	0	
1	0	0	0	0	509	508	0	0	
2	0	0	0	0	509	507	0	0	
3	0	0	0	0	508	507	0	0	
4	0	0	0	0	510	509	0	0	
5	0	0	0	0	510	507	0	0	
6	0	0	0	0	509	508	0	0	
7	0	0	0	0	512	508	0	0	
8	0	0	0	0	511	509	0	0	
9	0	0	0	0	510	506	0	0	
10	0	0	0	0	512	509	0	0	
11	0	0	0	0	512	507	0	0	
12	0	0	0	0	513	506	0	0	
13	0	0	0	0	514	506	0	0	
14	0	0	0	0	512	509	0	0	
15	0	0	0	0	511	509	0	0	
0	0	0	0	0	513	507	0	0	
1	0	0	0	0	512	508	0	0	
2	0	0	0	0	511	509	0	0	
3	0	0	0	0	512	507	0	0	
4	0	0	0	0	511	508	0	0	
5	0	0	0	0	510	508	0	0	
6	0	0	0	0	508	509	0	0	
7	0	0	0	0	508	507	0	0	
8	0	0	0	0	508	509	0	0	
9	0	0	0	0	510	509	0	0	
10	0	0	0	0	510	508	0	0	
11	0	0	0	0	508	508	0	0	
12	0	0	0	0	511	508	0	0	
13	0	0	0	0	511	507	0	0	
14	0	0	0	0	511	508	0	0	
15	0	0	0	0	512	506	0	0	
0	0	0	0	0	512	507	0	0	
1	0	0	0	0	512	508	0	0	
2	0	0	0	0	513	508	0	0	
3	0	0	0	0	513	505	0	0	
4	0	0	0	0	514	507	0	0	
5	0	0	0	0	512	509	0	0	
6	0	0	0	0	511	510	0	0	
7	0	0	0	0	510	509	0	0	
8	0	0	0	0	511	507	0	0	
9	0	0	0	0	512	510	0	0	
10	0	0	0	0	511	508	0	0	
11	0	0	0	0	511	508	0	0	
12	0	0	0	0	511	508	0	0	
13	0	0	0	0	509	508	0	0	
14	0	0	0	0	509	506	0	0	
15	0	0	0	0	511	509	0	0	
0	0	0	0	0	510	507	0	0	
1	0	0	0	0	510	507	0	0	
2	0	0	0	0	511	508	0	0	
3	0	0	0	0	511	508	0	0	
4	0	0	0	0	512	507	0	0	
5	0	0	0	0	512	510	0	0	
6	0	0	0	0	512	510	0	0	
7	0	0	0	0	513	509	0	0	
8	0	0	0	0	513	506	0	0	
9	0	0	0	0	511	506	0	0	
10	0	0	0	0	511	508	0	0	
11	0	0	0	0	510	507	0	0	
12	0	0	0	0	509	506	0	0	
13	0	0	0	0	510	508	0	0	
14	0	0	0	0	509	508	0	0	
15	0	0	0	0	509	508	0	0	
0	0	0	0	0	510	509	0	0	
1	0	0	0	0	509	509	0	0	
2	0	0	0	0	511	507	0	0	
3	0	0	0	0	512	506	0	0	
4	0	0	0	0	511	504	0	0	
5	0	0	0	0	511	506	0	0	
6	0	0	0	0	510	509	0	0	
7	0	0	0	0	511	511	0	0	
8	0	0	0	0	512	510	0	0	
9	0	0	0	0	513	507	0	0	
10	0	0	0	0	513	508	0	0	
11	0	0	0	0	512	509	0	0	
12	0	0	0	0	512	508	0	0	
13	0	0	0	0	513	510	0	0	
14	0	0	0	0	512	510	0	0	
15	0	0	0	0	512	507	0	0	
0	0	0	0	0	509	507	0	0	
1	0	0	0	0	508	507	0	0	
2	0	0	0	0	510	508	0	0	
3	0	0	0	0	510	509	0	0	
4	0	0	0	0	510	508	0	0	
5	0	0	0	0	512	508	0	0	
6	0	0	0	0	510	507	0	0	
7	0	0	0	0	508	506	0	0	
8	0	0	0	0	510	507	0	0	
9	0	0	0	0	511	508	0	0	
10	0	0	0	0	511	508	0	0	
11	0	0	0	0	510	508	0	0	
12	0	0	0	0	512	507	0	0	
13	0	0	0	0	513	508	0	0	
14	0	0	0	0	514	508	0	0	
15	0	0	0	0	514	509	0	0	
0	0	0	0	0	512	509	0	0	
1	0	0	0	0	511	508	0	0	
2	0	0	0	0	511	509	0	0	
3	0	0	0	0	513	509	0	0	
4	0	0	0	0	511	511	0	0	
5	0	0	0	0	509	509	0	0	
6	0	0	0	0	510	508	0	0	
7	0	0	0	0	510	507	0	0	
8	0	0	0	0	510	508	0	0	
9	0	0	0	0	511	507	0	0	
10	0	0	0	0	509	507	0	0	
11	0	0	0	0	511	506	0	0	
12	0	0	0	0	511	507	0	0	
13	0	0	0	0	512	508	0	0	
14	0	0	0	0	513	508	0	0	
15	0	0	0	0	513	507	0	0	
0	0	0	0	0	512	508	0	0	
1	0	0	0	0	512	507	0	0	
2	0	0	0	0	509	508	0	0	
3	0	0	0	0	511	509	0	0	
4	0	0	0	0	512	510	0	0	
5	0	0	0	0	513	507	0	0	
6	0	0	0	0	512	508	0	0	
7	0	0	0	0	513	508	0	0	
8	0	0	0	0	511	508	0	0	
9	0	0	0	0	511	510	0	0	
10	0	0	0	0	510	507	0	0	
11	0	0	0	0	510	508	0	0	
12	0	0	0	0	510	510	0	0	
13	0	0	0	0	511	505	0	0	
14	0	0	0	0	511	508	0	0	
15	0	0	0	0	511	507	0	0	
0	0	0	0	0	511	508	0	0	
1	0	0	0	0	510	509	0	0	
2	0	0	0	0	510	510	0	0	
3	0	0	0	0	511	508	0	0	
4	0	0	0	0	512	506	0	0	
5	0	0	0	0	512	508	0	0	
6	0	0	0	0	510	507	0	0	
7	0	0	0	0	513	509	0	0	
8	0	0	0	0	513	507	0	0	
9	0	0	0	0	511	508	0	0	
10	0	0	0	0	512	509	0	0	
11	0	0	0	0	511	508	0	0	
12	0	0	0	0	511	508	0	0	
13	0	0	0	0	508	507	0	0	
14	0	0	0	0	511	507	0	0	
15	0	0	0	0	511	507	0	0	
0	0	0	0	0	511	508	0	0	
1	0	0	0	0	512	505	0	0	
2	0	0	0	0	511	508	0	0	
3	0	0	0	0	510	508	0	0	
4	0	0	0	0	511	508	0	0	
5	0	0	0	0	512	508	0	0	
6	0	0	0	0	511	508	0	0	
7	0	0	0	0	512	506	0	0	
8	0	0	0	0	510	508	0	0	
9	0	0	0	0	512	508	0	0	
10	0	0	0	0	512	509	0	0	
11	0	0	0	0	512	508	0	0	
12	0	0	0	0	511	510	0	0	
13	0	0	0	0	511	508	0	0	
14	0	0	0	0	512	508	0	0	
15	0	0	0	0	512	509	0	0	
0	0	0	0	0	513	508	0	0	
1	0	0	0	0	511	507	0	0	
2	0	0	0	0	511	509	0	0	
3	0	0	0	0	511	508	0	0	
4	0	0	0	0	510	507	0	0	
5	0	0	0	0	511	508	0	0	
6	0	0	0	0	509	508	0	0	
7	0	0	0	0	509	508	0	0	
8	0	0	0	0	509	508	0	0	
9	0	0	0	0	511	507	0	0	
10	0	0	0	0	509	506	0	0	
11	0	0	0	0	511	508	0	0	
12	0	0	0	0	511	507	0	0	
13	0	0	0	0	513	508	0	0	
14	0	0	0	0	512	509	0	0	
15	0	0	0	0	512	508	0	0	
0	0	0	0	0	511	508	0	0	
1	0	0	0	0	513	508	0	0	
2	0	0	0	0	512	508	0	0	
3	0	0	0	0	514	507	0	0	
4	0	0	0	0	512	508	0	0	
5	0	0	0	0	514	509	0	0	
6	0	0	0	0	512	509	0	0	
7	0	0	0	0	510	508	0	0	
8	0	0	0	0	509	509	0	0	
9	0	0	0	0	508	508	0	0	
10	0	0	0	0	508	505	0	0	
11	0	0	0	0	509	509	0	0	
12	0	0	0	0	509	508	0	0	
13	0	0	0	0	509	507	0	0	
14	0	0	0	0	511	508	0	0	
15	0	0	0	0	510	508	0	0	
0	0	0	0	0	512	509	0	0	
1	0	0	0	0	510	508	0	0	
2	0	0	0	0	511	508	0	0	
3	0	0	0	0	511	509	0	0	
4	0	0	0	0	513	508	0	0	
5	0	0	0	0	512	508	0	0	
6	0	0	0	0	511	510	0	0	
7	0	0	0	0	514	507	0	0	
8	0	0	0	0	513	509	0	0	
9	0	0	0	0	513	508	0	0	
10	0	0	0	0	511	508	0	0	
11	0	0	0	0	512	508	0	0	
12	0	0	0	0	508	510	0	0	
13	0	0	0	0	511	508	0	0	
14	0	0	0	0	508	506	0	0	
15	0	0	0	0	511	507	0	0	
0	0	0	0	0	511	507	0	0	
1	0	0	0	0	510	506	0	0	
2	0	0	0	0	510	506	0	0	
3	0	0	0	0	511	507	0	0	
4	0	0	0	0	511	508	0	0	
5	0	0	0	0	511	507	0	0	
6	0	0	0	0	511	508	0	0	
7	0	0	0	0	513	510	0	0	
8	0	0	0	0	513	509	0	0	
9	0	0	0	0	512	507	0	0	
10	0	0	0	0	509	507	0	0	
11	0	0	0	0	512	508	0	0	
12	0	0	0	0	512	509	0	0	
13	0	0	0	0	512	507	0	0	
14	0	0	0	0	511	507	0	0	
15	0	0	0	0	510	508	0	0	
0	0	0	0	0	508	509	0	0	
1	0	0	0	0	510	509	0	0	
2	0	0	0	0	509	509	0	0	
3	0	0	0	0	510	508	0	0	
4	0	0	0	0	511	508	0	0	
5	0	0	0	0	508	509	0	0	
6	0	0	0	0	511	507	0	0	
7	0	0	0	0	511	508	0	0	
8	0	0	0	0	513	508	0	0	
9	0	0	0	0	511	507	0	0	
10	0	0	0	0	511	507	0	0	
11	0	0	0	0	512	510	0	0	
12	0	0	0	0	513	508	0	0	
13	0	0	0	0	511	508	0	0	
14	0	0	0	0	514	509	0	0	
15	0	0	0	0	513	507	0	0	
0	0	0	0	0	513	508	0	0	
1	0	0	0	0	511	509	0	0	
2	0	0	0	0	510	508	0	0	
3	0	0	0	0	509	510	0	0	
4	0	0	0	0	510	507	0	0	
5	0	0	0	0	509	508	0	0	
6	0	0	0	0	509	507	0	0	
7	0	0	0	0	509	507	0	0	
8	0	0	0	0	509	507	0	0	
9	0	0	0	0	511	507	0	0	
10	0	0	0	0	508	509	0	0	
11	0	0	0	0	510	507	0	0	
12	0	0	0	0	510	508	0	0	
13	0	0	0	0	512	510	0	0	
14	0	0	0	0	512	509	0	0	
15	0	0	0	0	512	509	0	0	
0	0	0	0	0	514	509	0	0	
1	0	0	0	0	515	509	0	0	
2	0	0	0	0	511	507	0	0	
3	0	0	0	0	513	507	0	0	
4	0	0	0	0	511	508	0	0	
5	0	0	0	0	511	510	0	0	
6	0	0	0	0	511	509	0	0	
7	0	0	0	0	510	509	0	0	
8	0	0	0	0	511	507	0	0	
9	0	0	0	0	508	507	0	0	
10	0	0	0	0	509	504	0	0	
11	0	0	0	0	510	508	0	0	
12	0	0	0	0	508	507	0	0	
13	0	0	0	0	508	508	0	0	
14	0	0	0	0	508	508	0	0	
15	0	0	0	0	513	508	0	0	
0	0	0	0	0	512	507	0	0	
1	0	0	0	0	512	505	0	0	
2	0	0	0	0	512	507	0	0	
3	0	0	0	0	512	508	0	0	
4	0	0	0	0	512	508	0	0	
5	0	0	0	0	513	508	0	0	
6	0	0	0	0	514	507	0	0	
7	0	0	0	0	513	510	0	0	
8	0	0	0	0	512	508	0	0	
9	0	0	0	0	511	509	0	0	
10	0	0	0	0	512	507	0	0	
11	0	0	0	0	511	507	0	0	
12	0	0	0	0	510	507	0	0	
13	0	0	0	0	510	508	0	0	
14	0	0	0	0	511	508	0	0	
15	0	0	0	0	508	506	0	0	
0	0	0	0	0	509	507	0	0	
1	0	0	0	0	510	510	0	0	
2	0	0	0	0	508	507	0	0	
3	0	0	0	0	511	508	0	0	
4	0	0	0	0	509	508	0	0	
5	0	0	0	0	511	508	0	0	
6	0	0	0	0	511	508	0	0	
7	0	0	0	0	514	508	0	0	
8	0	0	0	0	511	508	0	0	
9	0	0	0	0	512	509	0	0	
10	0	0	0	0	513	509	0	0	
11	0	0	0	0	514	508	0	0	
12	0	0	0	0	511	507	0	0	
13	0	0	0	0	514	507	0	0	
14	0	0	0	0	508	508	0	0	
15	0	0	0	0	511	509	0	0	
0	0	0	0	0	510	507	0	0	
1	0	0	0	0	511	508	0	0	
2	0	0	0	0	510	507	0	0	
3	0	0	0	0	510	508	0	0	
4	0	0	0	0	510	507	0	0	
5	0	0	0	0	511	508	0	0	
6	0	0	0	0	511	509	0	0	
7	0	0	0	0	509	508	0	0	
8	0	0	0	0	511	508	0	0	
9	0	0	0	0	511	507	0	0	
10	0	0	0	0	513	507	0	0	
11	0	0	0	0	511	507	0	0	
12	0	0	0	0	512	508	0	0	
13	0	0	0	0	512	508	0	0	
14	0	0	0	0	514	509	0	0	
15	0	0	0	0	515	509	0	0	
0	0	0	0	0	513	507	0	0	
1	0	0	0	0	512	510	0	0	
2	0	0	0	0	512	508	0	0	
3	0	0	0	0	510	507	0	0	
4	0	0	0	0	511	507	0	0	
5	0	0	0	0	510	510	0	0	
6	0	0	0	0	507	506	0	0	
7	0	0	0	0	508	508	0	0	
8	0	0	0	0	510	507	0	0	
9	0	0	0	0	509	508	0	0	
10	0	0	0	0	511	508	0	0	
11	0	0	0	0	510	508	0	0	
12	0	0	0	0	509	508	0	0	
13	0	0	0	0	510	509	0	0	
14	0	0	0	0	510	507	0	0	
15	0	0	0	0	514	508	0	0	
0	0	0	0	0	513	508	0	0	
1	0	0	0	0	515	510	0	0	
2	0	0	0	0	513	508	0	0	
3	0	0	0	0	513	507	0	0	
4	0	0	0	0	513	508	0	0	
5	0	0	0	0	513	508	0	0	
6	0	0	0	0	512	508	0	0	
7	0	0	0	0	509	508	0	0	
8	0	0	0	0	510	505	0	0	
9	0	0	0	0	508	507	0	0	
10	0	0	0	0	507	505	0	0	
11	0	0	0	0	507	508	0	0	
12	0	0	0	0	508	508	0	0	
13	0	0	0	0	509	508	0	0	
14	0	0	0	0	508	508	0	0	
15	0	0	0	0	511	507	0	0	
0	0	0	0	0	515	509	0	0	
1	0	0	0	0	512	508	0	0	
2	0	0	0	0	510	508	0	0	
3	0	0	0	0	513	508	0	0	
4	0	0	0	0	513	506	0	0	
5	0	0	0	0	514	507	0	0	
6	0	0	0	0	512	509	0	0	
7	0	0	0	0	514	508	0	0	
8	0	0	0	0	511	509	0	0	
9	0	0	0	0	513	508	0	0	
10	0	0	0	0	511	510	0	0	
11	0	0	0	0	509	507	0	0	
12	0	0	0	0	511	507	0	0	
13	0	0	0	0	511	508	0	0	
14	0	0	0	0	509	508	0	0	
15	0	0	0	0	508	507	0	0	
0	0	0	0	0	510	506	0	0	
1	0	0	0	0	510	508	0	0	
2	0	0	0	0	509	509	0	0	
3	0	0	0	0	509	507	0	0	
4	0	0	0	0	510	508	0	0	
5	0	0	0	0	513	508	0	0	
6	0	0	0	0	514	507	0	0	
7	0	0	0	0	512	508	0	0	
8	0	0	0	0	511	509	0	0	
9	0	0	0	0	512	508	0	0	
10	0	0	0	0	516	509	0	0	
11	0	0	0	0	512	506	0	0	
12	0	0	0	0	513	508	0	0	
13	0	0	0	0	511	508	0	0	
14	0	0	0	0	512	510	0	0	
15	0	0	0	0	512	508	0	0	
0	0	0	0	0	508	509	0	0	
1	0	0	0	0	511	508	0	0	
2	0	0	0	0	509	507	0	0	
3	0	0	0	0	508	508	0	0	
4	0	0	0	0	507	508	0	0	
5	0	0	0	0	510	508	0	0	
6	0	0	0	0	511	506	0	0	
7	0	0	0	0	508	505	0	0	
8	0	0	0	0	510	506	0	0	
9	0	0	0	0	511	508	0	0	
10	0	0	0	0	512	509	0	0	
11	0	0	0	0	513	509	0	0	
12	0	0	0	0	513	508	0	0	
13	0	0	0	0	512	508	0	0	
14	0	0	0	0	513	509	0	0	
15	0	0	0	0	513	508	0	0	
0	0	0	0	0	511	509	0	0	
1	0	0	0	0	509	509	0	0	
2	0	0	0	0	511	508	0	0	
3	0	0	0	0	509	510	0	0	
4	0	0	0	0	510	508	0	0	
5	0	0	0	0	510	508	0	0	
6	0	0	0	0	510	508	0	0	
7	0	0	0	0	509	507	0	0	
8	0	0	0	0	509	505	0	0	
9	0	0	0	0	512	507	0	0	
10	0	0	0	0	511	505	0	0	
11	0	0	0	0	511	507	0	0	
12	0	0	0	0	511	507	0	0	
13	0	0	0	0	510	508	0	0	
14	0	0	0	0	511	508	0	0	
15	0	0	0	0	513	508	0	0	
0	0	0	0	0	511	509	0	0	
1	0	0	0	0	515	508	0	0	
2	0	0	0	0	513	511	0	0	
3	0	0	0	0	514	507	0	0	
4	0	0	0	0	515	508	0	0	
5	0	0	0	0	514	507	0	0	
6	0	0	0	0	511	508	0	0	
7	0	0	0	0	508	508	0	0	
8	0	0	0	0	512	508	0	0	
9	0	0	0	0	509	509	0	0	
10	0	0	0	0	507	509	0	0	
11	0	0	0	0	509	507	0	0	
12	0	0	0	0	509	508	0	0	
13	0	0	0	0	511	507	0	0	
14	0	0	0	0	511	507	0	0	
15	0	0	0	0	511	508	0	0	
0	0	0	0	0	508	507	0	0	
1	0	0	0	0	509	509	0	0	
2	0	0	0	0	511	507	0	0	
3	0	0	0	0	512	508	0	0	
4	0	0	0	0	512	510	0	0	
5	0	0	0	0	514	508	0	0	
6	0	0	0	0	514	509	0	0	
7	0	0	0	0	512	508	0	0	
8	0	0	0	0	514	509	0	0	
9	0	0	0	0	514	509	0	0	
10	0	0	0	0	511	508	0	0	
11	0	0	0	0	510	509	0	0	
12	0	0	0	0	511	509	0	0	
13	0	0	0	0	509	507	0	0	
14	0	0	0	0	508	508	0	0	
15	0	0	0	0	509	508	0	0	
0	0	0	0	0	508	506	0	0	
1	0	0	0	0	508	506	0	0	
2	0	0	0	0	510	507	0	0	
3	0	0	0	0	512	507	0	0	
4	0	0	0	0	512	508	0	0	
5	0	0	0	0	513	510	0	0	
6	0	0	0	0	512	507	0	0	
7	0	0	0	0	514	506	0	0	
8	0	0	0	0	515	510	0	0	
9	0	0	0	0	513	507	0	0	
10	0	0	0	0	515	508	0	0	
11	0	0	0	0	514	507	0	0	
12	0	0	0	0	512	509	0	0	
13	0	0	0	0	511	508	0	0	
14	0	0	0	0	510	508	0	0	
15	0	0	0	0	509	508	0	0	
0	0	0	0	0	509	509	0	0	
1	0	0	0	0	508	508	0	0	
2	0	0	0	0	508	508	0	0	
3	0	0	0	0	507	507	0	0	
4	0	0	0	0	511	508	0	0	
5	0	0	0	0	508	506	0	0	
6	0	0	0	0	510	507	0	0	
7	0	0	0	0	510	506	0	0	
8	0	0	0	0	512	508	0	0	
9	0	0	0	0	512	508	0	0	
10	0	0	0	0	513	508	0	0	
11	0	0	0	0	512	508	0	0	
12	0	0	0	0	513	509	0	0	
13	0	0	0	0	511	509	0	0	
14	0	0	0	0	511	508	0	0	
15	0	0	0	0	515	506	0	0	
0	0	0	0	0	513	509	0	0	
1	0	0	0	0	511	507	0	0	
2	0	0	0	0	512	507	0	0	
3	0	0	0	0	510	508	0	0	
4	0	0	0	0	511	509	0	0	
5	0	0	0	0	510	508	0	0	
6	0	0	0	0	509	508	0	0	
7	0	0	0	0	508	509	0	0	
8	0	0	0	0	510	509	0	0	
9	0	0	0	0	508	509	0	0	
10	0	0	0	0	508	507	0	0	
11	0	0	0	0	510	508	0	0	
12	0	0	0	0	511	507	0	0	
13	0	0	0	0	513	508	0	0	
14	0	0	0	0	513	507	0	0	
15	0	0	0	0	509	507	0	0	
0	0	0	0	0	513	510	0	0	
1	0	0	0	0	513	508	0	0	
2	0	0	0	0	513	508	0	0	
3	0	0	0	0	511	507	0	0	
4	0	0	0	0	513	508	0	0	
5	0	0	0	0	510	507	0	0	
6	0	0	0	0	511	508	0	0	
7	0	0	0	0	511	509	0	0	
8	0	0	0	0	512	508	0	0	
9	0	0	0	0	511	510	0	0	
10	0	0	0	0	510	508	0	0	
11	0	0	0	0	510	505	0	0	
12	0	0	0	0	508	508	0	0	
13	0	0	0	0	506	508	0	0	
14	0	0	0	0	511	508	0	0	
15	0	0	0	0	509	507	0	0	
0	0	0	0	0	512	507	0	0	
1	0	0	0	0	513	507	0	0	
2	0	0	0	0	510	510	0	0	
3	0	0	0	0	512	509	0	0	
4	0	0	0	0	512	510	0	0	
5	0	0	0	0	514	508	0	0	
6	0	0	0	0	511	508	0	0	
7	0	0	0	0	512	509	0	0	
8	0	0	0	0	514	509	0	0	
9	0	0	0	0	510	507	0	0	
10	0	0	0	0	514	509	0	0	
11	0	0	0	0	511	510	0	0	
12	0	0	0	0	508	508	0	0	
13	0	0	0	0	508	509	0	0	
14	0	0	0	0	508	508	0	0	
15	0	0	0	0	511	508	0	0	
0	0	0	0	0	509	506	0	0	
1	0	0	0	0	508	508	0	0	
2	0	0	0	0	509	507	0	0	
3	0	0	0	0	506	507	0	0	
4	0	0	0	0	509	508	0	0	
5	0	0	0	0	512	508	0	0	
6	0	0	0	0	512	507	0	0	
7	0	0	0	0	513	509	0	0	
8	0	0	0	0	515	506	0	0	
9	0	0	0	0	511	509	0	0	
10	0	0	0	0	514	507	0	0	
11	0	0	0	0	514	507	0	0	
12	0	0	0	0	512	509	0	0	
13	0	0	0	0	513	509	0	0	
14	0	0	0	0	511	507	0	0	
15	0	0	0	0	511	508	0	0	
0	0	0	0	0	511	507	0	0	
1	0	0	0	0	509	507	0	0	
2	0	0	0	0	509	508	0	0	
3	0	0	0	0	508	508	0	0	
4	0	0	0	0	506	508	0	0	
5	0	0	0	0	508	509	0	0	
6	0	0	0	0	511	507	0	0	
7	0	0	0	0	512	506	0	0	
8	0	0	0	0	509	508	0	0	
9	0	0	0	0	511	508	0	0	
10	0	0	0	0	512	509	0	0	
11	0	0	0	0	513	508	0	0	
12	0	0	0	0	514	508	0	0	
13	0	0	0	0	514	507	0	0	
14	0	0	0	0	514	508	0	0	
15	0	0	0	0	512	507	0	0	
0	0	0	0	0	512	510	0	0	
1	0	0	0	0	512	508	0	0	
2	0	0	0	0	513	507	0	0	
3	0	0	0	0	511	507	0	0	
4	0	0	0	0	508	507	0	0	
5	0	0	0	0	510	508	0	0	
6	0	0	0	0	510	508	0	0	
7	0	0	0	0	509	509	0	0	
8	0	0	0	0	507	508	0	0	
9	0	0	0	0	510	507	0	0	
10	0	0	0	0	510	507	0	0	
11	0	0	0	0	511	508	0	0	
12	0	0	0	0	512	506	0	0	
13	0	0	0	0	513	508	0	0	
14	0	0	0	0	511	509	0	0	
15	0	0	0	0	514	507	0	0	
0	0	0	0	0	513	507	0	0	
1	0	0	0	0	512	507	0	0	
2	0	0	0	0	511	509	0	0	
3	0	0	0	0	514	510	0	0	
4	0	0	0	0	512	508	0	0	
5	0	0	0	0	511	510	0	0	
6	0	0	0	0	513	509	0	0	
7	0	0	0	0	507	508	0	0	
8	0	0	0	0	508	508	0	0	
9	0	0	0	0	510	507	0	0	
10	0	0	0	0	511	508	0	0	
11	0	0	0	0	508	507	0	0	
12	0	0	0	0	509	509	0	0	
13	0	0	0	0	509	508	0	0	
14	0	0	0	0	511	505	0	0	
15	0	0	0	0	511	505	0	0	
0	0	0	0	0	510	509	0	0	
1	0	0	0	0	513	508	0	0	
2	0	0	0	0	511	509	0	0	
3	0	0	0	0	512	509	0	0	
4	0	0	0	0	512	508	0	0	
5	0	0	0	0	515	510	0	0	
6	0	0	0	0	515	506	0	0	
7	0	0	0	0	514	509	0	0	
8	0	0	0	0	511	509	0	0	
9	0	0	0	0	510	506	0	0	
10	0	0	0	0	511	508	0	0	
11	0	0	0	0	513	508	0	0	
12	0	0	0	0	510	510	0	0	
13	0	0	0	0	508	507	0	0	
14	0	0	0	0	511	508	0	0	
15	0	0	0	0	509	507	0	0	
0	0	0	0	0	509	507	0	0	
1	0	0	0	0	507	508	0	0	
2	0	0	0	0	508	509	0	0	
3	0	0	0	0	509	508	0	0	
4	0	0	0	0	510	506	0	0	
5	0	0	0	0	511	508	0	0	
6	0	0	0	0	514	508	0	0	
7	0	0	0	0	511	508	0	0	
8	0	0	0	0	513	506	0	0	
9	0	0	0	0	511	508	0	0	
10	0	0	0	0	513	510	0	0	
11	0	0	0	0	515	508	0	0	
12	0	0	0	0	513	507	0	0	
13	0	0	0	0	512	508	0	0	
14	0	0	0	0	513	507	0	0	
15	0	0	0	0	512	508	0	0	
0	0	0	0	0	511	509	0	0	
1	0	0	0	0	508	509	0	0	
2	0	0	0	0	510	508	0	0	
3	0	0	0	0	508	508	0	0	
4	0	0	0	0	509	506	0	0	
5	0	0	0	0	508	508	0	0	
6	0	0	0	0	511	508	0	0	
7	0	0	0	0	512	508	0	0	
8	0	0	0	0	511	507	0	0	
9	0	0	0	0	513	508	0	0	
10	0	0	0	0	512	508	0	0	
11	0	0	0	0	513	508	0	0	
12	0	0	0	0	512	508	0	0	
13	0	0	0	0	513	509	0	0	
14	0	0	0	0	513	510	0	0	
15	0	0	0	0	512	510	0	0	
0	0	0	0	0	513	508	0	0	
1	0	0	0	0	512	507	0	0	
2	0	0	0	0	510	509	0	0	
3	0	0	0	0	511	508	0	0	
4	0	0	0	0	509	508	0	0	
5	0	0	0	0	509	506	0	0	
6	0	0	0	0	508	505	0	0	
7	0	0	0	0	510	506	0	0	
8	0	0	0	0	510	507	0	0	
9	0	0	0	0	508	509	0	0	
10	0	0	0	0	507	508	0	0	
11	0	0	0	0	509	509	0	0	
12	0	0	0	0	509	508	0	0	
13	0	0	0	0	513	508	0	0	
14	0	0	0	0	513	508	0	0	
15	0	0	0	0	515	509	0	0	
0	0	0	0	0	516	507	0	0	
1	0	0	0	0	513	510	0	0	
2	0	0	0	0	512	509	0	0	
3	0	0	0	0	513	508	0	0	
4	0	0	0	0	515	509	0	0	
5	0	0	0	0	513	507	0	0	
6	0	0	0	0	512	508	0	0	
7	0	0	0	0	510	508	0	0	
8	0	0	0	0	509	508	0	0	
9	0	0	0	0	508	506	0	0	
10	0	0	0	0	509	507	0	0	
11	0	0	0	0	509	510	0	0	
12	0	0	0	0	507	508	0	0	
13	0	0	0	0	509	507	0	0	
14	0	0	0	0	507	509	0	0	
15	0	0	0	0	511	508	0	0	
0	0	0	0	0	511	507	0	0	
1	0	0	0	0	511	509	0	0	
2	0	0	0	0	512	507	0	0	
3	0	0	0	0	513	506	0	0	
4	0	0	0	0	512	509	0	0	
5	0	0	0	0	513	511	0	0	
6	0	0	0	0	513	510	0	0	
7	0	0	0	0	513	509	0	0	
8	0	0	0	0	512	508	0	0	
9	0	0	0	0	511	508	0	0	
10	0	0	0	0	511	507	0	0	
11	0	0	0	0	510	508	0	0	
12	0	0	0	0	511	508	0	0	
13	0	0	0	0	510	508	0	0	
14	0	0	0	0	507	507	0	0	
15	0	0	0	0	511	507	0	0	
0	0	0	0	0	509	507	0	0	
1	0	0	0	0	508	507	0	0	
2	0	0	0	0	510	507	0	0	
3	0	0	0	0	509	510	0	0	
4	0	0	0	0	509	509	0	0	
5	0	0	0	0	511	508	0	0	
6	0	0	0	0	512	509	0	0	
7	0	0	0	0	513	507	0	0	
8	0	0	0	0	512	508	0	0	
9	0	0	0	0	512	510	0	0	
10	0	0	0	0	513	510	0	0	
11	0	0	0	0	512	507	0	0	
12	0	0	0	0	514	508	0	0	
13	0	0	0	0	514	508	0	0	
14	0	0	0	0	512	508	0	0	
15	0	0	0	0	509	507	0	0	
0	0	0	0	0	510	508	0	0	
1	0	0	0	0	509	506	0	0	
2	0	0	0	0	509	507	0	0	
3	0	0	0	0	511	508	0	0	
4	0	0	0	0	510	506	0	0	
5	0	0	0	0	510	505	0	0	
6	0	0	0	0	509	508	0	0	
7	0	0	0	0	510	507	0	0	
8	0	0	0	0	509	507	0	0	
9	0	0	0	0	511	508	0	0	
10	0	0	0	0	510	507	0	0	
11	0	0	0	0	514	508	0	0	
12	0	0	0	0	513	508	0	0	
13	0	0	0	0	515	510	0	0	
14	0	0	0	0	513	507	0	0	
15	0	0	0	0	515	508	0	0	
0	0	0	0	0	511	508	0	0	
1	0	0	0	0	514	509	0	0	
2	0	0	0	0	508	509	0	0	
3	0	0	0	0	511	508	0	0	
4	0	0	0	0	510	509	0	0	
5	0	0	0	0	509	508	0	0	
6	0	0	0	0	509	508	0	0	
7	0	0	0	0	510	506	0	0	
8	0	0	0	0	508	508	0	0	
9	0	0	0	0	506	507	0	0	
10	0	0	0	0	509	509	0	0	
11	0	0	0	0	510	508	0	0	
12	0	0	0	0	511	506	0	0	
13	0	0	0	0	511	509	0	0	
14	0	0	0	0	513	507	0	0	
15	0	0	0	0	512	509	0	0	
0	0	0	0	0	512	508	0	0	
1	0	0	0	0	512	508	0	0	
2	0	0	0	0	512	507	0	0	
3	0	0	0	0	516	509	0	0	
4	0	0	0	0	513	508	0	0	
5	0	0	0	0	511	508	0	0	
6	0	0	0	0	512	508	0	0	
7	0	0	0	0	509	508	0	0	
8	0	0	0	0	511	508	0	0	
9	0	0	0	0	510	508	0	0	
10	0	0	0	0	508	507	0	0	
11	0	0	0	0	508	507	0	0	
12	0	0	0	0	507	509	0	0	
13	0	0	0	0	509	506	0	0	
14	0	0	0	0	511	508	0	0	
15	0	0	0	0	513	509	0	0	
0	0	0	0	0	509	507	0	0	
1	0	0	0	0	512	508	0	0	
2	0	0	0	0	511	508	0	0	
3	0	0	0	0	513	508	0	0	
4	0	0	0	0	513	508	0	0	
5	0	0	0	0	512	509	0	0	
6	0	0	0	0	512	508	0	0	
7	0	0	0	0	515	507	0	0	
8	0	0	0	0	513	507	0	0	
9	0	0	0	0	512	509	0	0	
10	0	0	0	0	511	508	0	0	
11	0	0	0	0	509	508	0	0	
12	0	0	0	0	509	508	0	0	
13	0	0	0	0	511	509	0	0	
14	0	0	0	0	509	506	0	0	
15	0	0	0	0	508	506	0	0	
0	0	0	0	0	510	510	0	0	
1	0	0	0	0	508	508	0	0	
2	0	0	0	0	509	508	0	0	
3	0	0	0	0	510	510	0	0	
4	0	0	0	0	509	507	0	0	
5	0	0	0	0	511	508	0	0	
6	0	0	0	0	513	509	0	0	
7	0	0	0	0	514	508	0	0	
8	0	0	0	0	511	509	0	0	
9	0	0	0	0	513	507	0	0	
10	0	0	0	0	514	509	0	0	
11	0	0	0	0	514	508	0	0	
12	0	0	0	0	513	508	0	0	
13	0	0	0	0	511	507	0	0	
14	0	0	0	0	511	507	0	0	
15	0	0	0	0	510	508	0	0	
0	0	0	0	0	511	510	0	0	
1	0	0	0	0	510	507	0	0	
2	0	0	0	0	509	506	0	0	
3	0	0	0	0	509	508	0	0	
4	0	0	0	0	509	507	0	0	
5	0	0	0	0	509	507	0	0	
6	0	0	0	0	509	508	0	0	
7	0	0	0	0	512	507	0	0	
8	0	0	0	0	511	509	0	0	
9	0	0	0	0	511	507	0	0	
10	0	0	0	0	511	508	0	0	
11	0	0	0	0	512	509	0	0	
12	0	0	0	0	513	509	0	0	
13	0	0	0	0	512	509	0	0	
14	0	0	0	0	513	509	0	0	
15	0	0	0	0	513	508	0	0	
0	0	0	0	0	514	507	0	0	
1	0	0	0	0	515	509	0	0	
2	0	0	0	0	510	507	0	0	
3	0	0	0	0	511	508	0	0	
4	0	0	0	0	509	507	0	0	
5	0	0	0	0	507	506	0	0	
6	0	0	0	0	509	509	0	0	
7	0	0	0	0	510	505	0	0	
8	0	0	0	0	510	508	0	0	
9	0	0	0	0	510	507	0	0	
10	0	0	0	0	509	508	0	0	
11	0	0	0	0	510	507	0	0	
12	0	0	0	0	512	507	0	0	
13	0	0	0	0	511	508	0	0	
14	0	0	0	0	511	507	0	0	
15	0	0	0	0	512	508	0	0	
0	0	0	0	0	513	506	0	0	
1	0	0	0	0	513	510	0	0	
2	0	0	0	0	512	508	0	0	
3	0	0	0	0	511	510	0	0	
4	0	0	0	0	512	508	0	0	
5	0	0	0	0	513	509	0	0	
6	0	0	0	0	513	508	0	0	
7	0	0	0	0	511	507	0	0	
8	0	0	0	0	510	508	0	0	
9	0	0	0	0	510	508	0	0	
10	0	0	0	0	509	507	0	0	
11	0	0	0	0	508	508	0	0	
12	0	0	0	0	508	509	0	0	
13	0	0	0	0	508	506	0	0	
14	0	0	0	0	508	509	0	0	
15	0	0	0	0	510	509	0	0	
0	0	0	0	0	512	508	0	0	
1	0	0	0	0	512	507	0	0	
2	0	0	0	0	511	511	0	0	
3	0	0	0	0	513	508	0	0	
4	0	0	0	0	514	505	0	0	
5	0	0	0	0	511	508	0	0	
6	0	0	0	0	513	508	0	0	
7	0	0	0	0	513	508	0	0	
8	0	0	0	0	514	508	0	0	
9	0	0	0	0	513	508	0	0	
10	0	0	0	0	511	509	0	0	
11	0	0	0	0	509	510	0	0	
12	0	0	0	0	509	507	0	0	
13	0	0	0	0	509	506	0	0	
14	0	0	0	0	508	508	0	0	
15	0	0	0	0	509	507	0	0	
0	0	0	0	0	509	508	0	0	
1	0	0	0	0	508	507	0	0	
2	0	0	0	0	509	510	0	0	
3	0	0	0	0	511	508	0	0	
4	0	0	0	0	509	510	0	0	
5	0	0	0	0	508	507	0	0	
6	0	0	0	0	512	507	0	0	
7	0	0	0	0	514	508	0	0	
8	0	0	0	0	514	507	0	0	
9	0	0	0	0	515	509	0	0	
10	0	0	0	0	514	508	0	0	
11	0	0	0	0	513	507	0	0	
12	0	0	0	0	513	508	0	0	
13	0	0	0	0	511	510	0	0	
14	0	0	0	0	511	508	0	0	
15	0	0	0	0	510	508	0	0	
0	0	0	0	0	511	509	0	0	
1	0	0	0	0	510	506	0	0	
2	0	0	0	0	511	508	0	0	
3	0	0	0	0	508	508	0	0	
4	0	0	0	0	508	507	0	0	
5	0	0	0	0	509	508	0	0	
6	0	0	0	0	508	506	0	0	
7	0	0	0	0	509	508	0	0	
8	0	0	0	0	511	509	0	0	
9	0	0	0	0	512	508	0	0	
10	0	0	0	0	512	509	0	0	
11	0	0	0	0	515	508	0	0	
12	0	0	0	0	514	509	0	0	
13	0	0	0	0	512	508	0	0	
14	0	0	0	0	513	507	0	0	
15	0	0	0	0	515	509	0	0	
0	0	0	0	0	513	509	0	0	
1	0	0	0	0	513	509	0	0	
2	0	0	0	0	512	508	0	0	
3	0	0	0	0	511	508	0	0	
4	0	0	0	0	511	508	0	0	
5	0	0	0	0	511	507	0	0	
6	0	0	0	0	506	508	0	0	
7	0	0	0	0	508	506	0	0	
8	0	0	0	0	507	507	0	0	
9	0	0	0	0	508	509	0	0	
10	0	0	0	0	511	508	0	0	
11	0	0	0	0	512	507	0	0	
12	0	0	0	0	510	507	0	0	
13	0	0	0	0	511	509	0	0	
14	0	0	0	0	511	509	0	0	
15	0	0	0	0	512	508	0	0	
0	0	0	0	0	512	508	0	0	
1	0	0	0	0	513	508	0	0	
2	0	0	0	0	512	508	0	0	
3	0	0	0	0	513	510	0	0	
4	0	0	0	0	513	510	0	0	
5	0	0	0	0	512	509	0	0	
6	0	0	0	0	511	508	0	0	
7	0	0	0	0	512	506	0	0	
8	0	0	0	0	510	508	0	0	
9	0	0	0	0	508	507	0	0	
10	0	0	0	0	509	507	0	0	
11	0	0	0	0	511	508	0	0	
12	0	0	0	0	509	508	0	0	
13	0	0	0	0	508	508	0	0	
14	0	0	0	0	509	509	0	0	
15	0	0	0	0	507	508	0	0	
0	0	0	0	0	511	507	0	0	
1	0	0	0	0	512	510	0	0	
2	0	0	0	0	512	508	0	0	
3	0	0	0	0	512	510	0	0	
4	0	0	0	0	513	508	0	0	
5	0	0	0	0	513	508	0	0	
6	0	0	0	0	514	507	0	0	
7	0	0	0	0	515	506	0	0	
8	0	0	0	0	511	508	0	0	
9	0	0	0	0	513	508	0	0	
10	0	0	0	0	513	507	0	0	
11	0	0	0	0	511	509	0	0	
12	0	0	0	0	508	508	0	0	
13	0	0	0	0	509	508	0	0	
14	0	0	0	0	508	507	0	0	
15	0	0	0	0	508	507	0	0	
0	0	0	0	0	508	510	0	0	
1	0	0	0	0	509	504	0	0	
2	0	0	0	0	509	509	0	0	
3	0	0	0	0	510	508	0	0	
4	0	0	0	0	510	509	0	0	
5	0	0	0	0	512	509	0	0	
6	0	0	0	0	511	508	0	0	
7	0	0	0	0	512	509	0	0	
8	0	0	0	0	514	509	0	0	
9	0	0	0	0	513	508	0	0	
10	0	0	0	0	513	506	0	0	
11	0	0	0	0	516	510	0	0	
12	0	0	0	0	512	508	0	0	
13	0	0	0	0	511	507	0	0	
14	0	0	0	0	512	508	0	0	
15	0	0	0	0	511	507	0	0	
0	0	0	0	0	510	508	0	0	
1	0	0	0	0	508	510	0	0	
2	0	0	0	0	508	510	0	0	
3	0	0	0	0	510	508	0	0	
4	0	0	0	0	509	509	0	0	
5	0	0	0	0	509	508	0	0	
6	0	0	0	0	509	507	0	0	
7	0	0	0	0	510	508	0	0	
8	0	0	0	0	512	509	0	0	
9	0	0	0	0	511	508	0	0	
10	0	0	0	0	510	507	0	0	
11	0	0	0	0	511	507	0	0	
12	0	0	0	0	514	508	0	0	
13	0	0	0	0	512	508	0	0	
14	0	0	0	0	515	511	0	0	
15	0	0	0	0	513	508	0	0	
0	0	0	0	0	513	508	0	0	
1	0	0	0	0	513	508	0	0	
2	0	0	0	0	512	508	0	0	
3	0	0	0	0	513	507	0	0	
4	0	0	0	0	510	507	0	0	
5	0	0	0	0	509	507	0	0	
6	0	0	0	0	507	507	0	0	
7	0	0	0	0	511	507	0	0	
8	0	0	0	0	508	506	0	0	
9	0	0	0	0	509	509	0	0	
10	0	0	0	0	509	507	0	0	
11	0	0	0	0	509	507	0	0	
12	0	0	0	0	510	508	0	0	
13	0	0	0	0	511	508	0	0	
14	0	0	0	0	513	508	0	0	
15	0	0	0	0	514	508	0	0	
0	0	0	0	0	515	507	0	0	
1	0	0	0	0	514	507	0	0	
2	0	0	0	0	513	509	0	0	
3	0	0	0	0	513	508	0	0	
4	0	0	0	0	513	507	0	0	
5	0	0	0	0	512	508	0	0	
6	0	0	0	0	511	507	0	0	
7	0	0	0	0	511	510	0	0	
8	0	0	0	0	509	509	0	0	
9	0	0	0	0	510	508	0	0	
10	0	0	0	0	510	508	0	0	
11	0	0	0	0	507	508	0	0	
12	0	0	0	0	507	508	0	0	
13	0	0	0	0	509	506	0	0	
14	0	0	0	0	509	507	0	0	
15	0	0	0	0	512	506	0	0	
0	0	0	0	0	507	508	0	0	
1	0	0	0	0	511	509	0	0	
2	0	0	0	0	512	509	0	0	
3	0	0	0	0	512	509	0	0	
4	0	0	0	0	513	508	0	0	
5	0	0	0	0	512	509	0	0	
6	0	0	0	0	513	507	0	0	
7	0	0	0	0	514	508	0	0	
8	0	0	0	0	513	508	0	0	
9	0	0	0	0	513	509	0	0	
10	0	0	0	0	510	509	0	0	
11	0	0	0	0	508	508	0	0	
12	0	0	0	0	508	507	0	0	
13	0	0	0	0	512	510	0	0	
14	0	0	0	0	510	508	0	0	
15	0	0	0	0	511	507	0	0	
0	0	0	0	0	508	508	0	0	
1	0	0	0	0	508	507	0	0	
2	0	0	0	0	507	508	0	0	
3	0	0	0	0	509	508	0	0	
4	0	0	0	0	509	507	0	0	
5	0	0	0	0	509	508	0	0	
6	0	0	0	0	511	508	0	0	
7	0	0	0	0	515	508	0	0	
8	0	0	0	0	514	510	0	0	
9	0	0	0	0	515	509	0	0	
10	0	0	0	0	514	508	0	0	
11	0	0	0	0	516	509	0	0	
12	0	0	0	0	514	508	0	0	
13	0	0	0	0	512	507	0	0	
14	0	0	0	0	513	509	0	0	
15	0	0	0	0	510	506	0	0	
0	0	0	0	0	509	508	0	0	
1	0	0	0	0	511	510	0	0	
2	0	0	0	0	509	506	0	0	
3	0	0	0	0	507	506	0	0	
4	0	0	0	0	509	507	0	0	
5	0	0	0	0	508	509	0	0	
6	0	0	0	0	510	509	0	0	
7	0	0	0	0	509	508	0	0	
8	0	0	0	0	508	507	0	0	
9	0	0	0	0	511	509	0	0	
10	0	0	0	0	512	508	0	0	
11	0	0	0	0	512	510	0	0	
12	0	0	0	0	513	507	0	0	
13	0	0	0	0	511	507	0	0	
14	0	0	0	0	513	509	0	0	
15	0	0	0	0	515	509	0	0	
0	0	0	0	0	514	508	0	0	
1	0	0	0	0	511	508	0	0	
2	0	0	0	0	513	507	0	0	
3	0	0	0	0	511	507	0	0	
4	0	0	0	0	508	509	0	0	
5	0	0	0	0	509	508	0	0	
6	0	0	0	0	508	508	0	0	
7	0	0	0	0	510	507	0	0	
8	0	0	0	0	508	507	0	0	
9	0	0	0	0	508	508	0	0	
10	0	0	0	0	510	507	0	0	
11	0	0	0	0	511	508	0	0	
12	0	0	0	0	513	507	0	0	
13	0	0	0	0	510	508	0	0	
14	0	0	0	0	512	509	0	0	
15	0	0	0	0	515	509	0	0	
0	0	0	0	0	513	508	0	0	
1	0	0	0	0	512	508	0	0	
2	0	0	0	0	514	510	0	0	
3	0	0	0	0	514	507	0	0	
4	0	0	0	0	512	508	0	0	
5	0	0	0	0	510	508	0	0	
6	0	0	0	0	511	507	0	0	
7	0	0	0	0	512	507	0	0	
8	0	0	0	0	510	507	0	0	
9	0	0	0	0	509	510	0	0	
10	0	0	0	0	508	508	0	0	
11	0	0	0	0	510	508	0	0	
12	0	0	0	0	511	507	0	0	
13	0	0	0	0	509	508	0	0	
14	0	0	0	0	511	508	0	0	
15	0	0	0	0	511	508	0	0	
0	0	0	0	0	512	507	0	0	
1	0	0	0	0	511	507	0	0	
2	0	0	0	0	512	508	0	0	
3	0	0	0	0	512	508	0	0	
4	0	0	0	0	512	508	0	0	
5	0	0	0	0	513	508	0	0	
6	0	0	0	0	514	508	0	0	
7	0	0	0	0	513	508	0	0	
8	0	0	0	0	512	508	0	0	
9	0	0	0	0	513	510	0	0	
10	0	0	0	0	513	507	0	0	
11	0	0	0	0	511	508	0	0	
12	0	0	0	0	509	508	0	0	
13	0	0	0	0	510	508	0	0	
14	0	0	0	0	510	508	0	0	
15	0	0	0	0	509	510	0	0	
0	0	0	0	0	507	508	0	0	
1	0	0	0	0	509	506	0	0	
2	0	0	0	0	510	509	0	0	
3	0	0	0	0	508	508	0	0	
4	0	0	0	0	508	510	0	0	
5	0	0	0	0	510	508	0	0	
6	0	0	0	0	511	508	0	0	
7	0	0	0	0	512	507	0	0	
8	0	0	0	0	515	508	0	0	
9	0	0	0	0	514	508	0	0	
10	0	0	0	0	512	507	0	0	
11	0	0	0	0	513	508	0	0	
12	0	0	0	0	513	511	0	0	
13	0	0	0	0	513	508	0	0	
14	0	0	0	0	514	508	0	0	
15	0	0	0	0	511	508	0	0	
0	0	0	0	0	509	508	0	0	
1	0	0	0	0	510	507	0	0	
2	0	0	0	0	509	507	0	0	
3	0	0	0	0	509	509	0	0	
4	0	0	0	0	507	508	0	0	
5	0	0	0	0	508	507	0	0	
6	0	0	0	0	511	508	0	0	
7	0	0	0	0	510	508	0	0	
8	0	0	0	0	511	509	0	0	
9	0	0	0	0	510	507	0	0	
10	0	0	0	0	512	507	0	0	
11	0	0	0	0	515	506	0	0	
12	0	0	0	0	513	509	0	0	
13	0	0	0	0	514	510	0	0	
14	0	0	0	0	513	511	0	0	
15	0	0	0	0	513	508	0	0	
0	0	0	0	0	512	507	0	0	
1	0	0	0	0	512	508	0	0	
2	0	0	0	0	511	508	0	0	
3	0	0	0	0	511	508	0	0	
4	0	0	0	0	509	506	0	0	
5	0	0	0	0	508	508	0	0	
6	0	0	0	0	509	506	0	0	
7	0	0	0	0	508	506	0	0	
8	0	0	0	0	508	509	0	0	
9	0	0	0	0	508	508	0	0	
10	0	0	0	0	507	508	0	0	
11	0	0	0	0	510	508	0	0	
12	0	0	0	0	511	506	0	0	
13	0	0	0	0	511	506	0	0	
14	0	0	0	0	512	508	0	0	
15	0	0	0	0	513	509	0	0	
0	0	0	0	0	512	508	0	0	
1	0	0	0	0	513	510	0	0	
2	0	0	0	0	512	508	0	0	
3	0	0	0	0	513	508	0	0	
4	0	0	0	0	515	510	0	0	
5	0	0	0	0	515	507	0	0	
6	0	0	0	0	513	508	0	0	
7	0	0	0	0	510	507	0	0	
8	0	0	0	0	510	507	0	0	
9	0	0	0	0	511	509	0	0	
10	0	0	0	0	508	509	0	0	
11	0	0	0	0	509	508	0	0	
12	0	0	0	0	510	507	0	0	
13	0	0	0	0	506	506	0	0	
14	0	0	0	0	508	507	0	0	
15	0	0	0	0	510	509	0	0	
0	0	0	0	0	511	510	0	0	
1	0	0	0	0	513	509	0	0	
2	0	0	0	0	513	509	0	0	
3	0	0	0	0	513	508	0	0	
4	0	0	0	0	513	510	0	0	
5	0	0	0	0	515	504	0	0	
6	0	0	0	0	515	508	0	0	
7	0	0	0	0	513	507	0	0	
8	0	0	0	0	512	507	0	0	
9	0	0	0	0	513	510	0	0	
10	0	0	0	0	512	507	0	0	
11	0	0	0	0	510	510	0	0	
12	0	0	0	0	511	509	0	0	
13	0	0	0	0	510	508	0	0	
14	0	0	0	0	507	508	0	0	
15	0	0	0	0	510	506	0	0	
0	0	0	0	0	507	508	0	0	
1	0	0	0	0	508	505	0	0	
2	0	0	0	0	511	507	0	0	
3	0	0	0	0	509	507	0	0	
4	0	0	0	0	510	506	0	0	
5	0	0	0	0	510	508	0	0	
6	0	0	0	0	511	508	0	0	
7	0	0	0	0	512	507	0	0	
8	0	0	0	0	511	509	0	0	
9	0	0	0	0	512	508	0	0	
10	0	0	0	0	514	508	0	0	
11	0	0	0	0	513	508	0	0	
12	0	0	0	0	515	509	0	0	
13	0	0	0	0	512	509	0	0	
14	0	0	0	0	512	509	0	0	
15	0	0	0	0	509	508	0	0	
0	0	0	0	0	511	508	0	0	
1	0	0	0	0	511	509	0	0	
2	0	0	0	0	509	507	0	0	
3	0	0	0	0	509	508	0	0	
4	0	0	0	0	507	508	0	0	
5	0	0	0	0	509	509	0	0	
6	0	0	0	0	511	506	0	0	
7	0	0	0	0	510	507	0	0	
8	0	0	0	0	510	507	0	0	
9	0	0	0	0	510	508	0	0	
10	0	0	0	0	511	508	0	0	
11	0	0	0	0	513	508	0	0	
12	0	0	0	0	513	510	0	0	
13	0	0	0	0	512	510	0	0	
14	0	0	0	0	512	508	0	0	
15	0	0	0	0	513	504	0	0	
0	0	0	0	0	511	507	0	0	
1	0	0	0	0	513	508	0	0	
2	0	0	0	0	512	507	0	0	
3	0	0	0	0	510	507	0	0	
4	0	0	0	0	508	508	0	0	
5	0	0	0	0	510	507	0	0	
6	0	0	0	0	507	508	0	0	
7	0	0	0	0	508	509	0	0	
8	0	0	0	0	510	510	0	0	
9	0	0	0	0	509	507	0	0	
10	0	0	0	0	510	507	0	0	
11	0	0	0	0	509	508	0	0	
12	0	0	0	0	511	509	0	0	
13	0	0	0	0	512	509	0	0	
14	0	0	0	0	511	508	0	0	
15	0	0	0	0	511	509	0	0	
0	0	0	0	0	515	509	0	0	
1	0	0	0	0	511	510	0	0	
2	0	0	0	0	515	509	0	0	
3	0	0	0	0	515	509	0	0	
4	0	0	0	0	514	507	0	0	
5	0	0	0	0	512	507	0	0	
6	0	0	0	0	512	508	0	0	
7	0	0	0	0	509	507	0	0	
8	0	0	0	0	511	508	0	0	
9	0	0	0	0	511	509	0	0	
10	0	0	0	0	510	507	0	0	
11	0	0	0	0	509	505	0	0	
12	0	0	0	0	510	507	0	0	
13	0	0	0	0	509	508	0	0	
14	0	0	0	0	509	509	0	0	
15	0	0	0	0	511	508	0	0	
0	0	0	0	0	511	508	0	0	
1	0	0	0	0	511	508	0	0	
2	0	0	0	0	511	507	0	0	
3	0	0	0	0	512	508	0	0	
4	0	0	0	0	514	508	0	0	
5	0	0	0	0	515	508	0	0	
6	0	0	0	0	513	508	0	0	
7	0	0	0	0	514	508	0	0	
8	0	0	0	0	513	509	0	0	
9	0	0	0	0	511	509	0	0	
10	0	0	0	0	513	508	0	0	
11	0	0	0	0	509	508	0	0	
12	0	0	0	0	508	507	0	0	
13	0	0	0	0	508	507	0	0	
14	0	0	0	0	507	507	0	0	
15	0	0	0	0	511	508	0	0	
0	0	0	0	0	510	509	0	0	
1	0	0	0	0	509	507	0	0	
2	0	0	0	0	508	508	0	0	
3	0	0	0	0	511	508	0	0	
4	0	0	0	0	511	508	0	0	
5	0	0	0	0	510	508	0	0	
6	0	0	0	0	511	508	0	0	
7	0	0	0	0	511	510	0	0	
8	0	0	0	0	515	509	0	0	
9	0	0	0	0	514	508	0	0	
10	0	0	0	0	512	507	0	0	
11	0	0	0	0	513	508	0	0	
12	0	0	0	0	513	508	0	0	
13	0	0	0	0	515	509	0	0	
14	0	0	0	0	512	508	0	0	
15	0	0	0	0	510	508	0	0	
0	0	0	0	0	511	507	0	0	
1	0	0	0	0	511	507	0	0	
2	0	0	0	0	508	507	0	0	
3	0	0	0	0	508	507	0	0	
4	0	0	0	0	507	508	0	0	
5	0	0	0	0	508	507	0	0	
6	0	0	0	0	508	508	0	0	
7	0	0	0	0	510	508	0	0	
8	0	0	0	0	511	509	0	0	
9	0	0	0	0	510	509	0	0	
10	0	0	0	0	511	508	0	0	
11	0	0	0	0	513	508	0	0	
12	0	0	0	0	516	509	0	0	
13	0	0	0	0	514	508	0	0	
14	0	0	0	0	515	508	0	0	
15	0	0	0	0	514	509	0	0	
0	0	0	0	0	514	509	0	0	
1	0	0	0	0	512	506	0	0	
2	0	0	0	0	511	507	0	0	
3	0	0	0	0	509	508	0	0	
4	0	0	0	0	510	510	0	0	
5	0	0	0	0	509	508	0	0	
6	0	0	0	0	510	507	0	0	
7	0	0	0	0	511	505	0	0	
8	0	0	0	0	510	508	0	0	
9	0	0	0	0	509	507	0	0	
10	0	0	0	0	508	508	0	0	
11	0	0	0	0	507	508	0	0	
12	0	0	0	0	512	507	0	0	
13	0	0	0	0	509	509	0	0	
14	0	0	0	0	510	508	0	0	
15	0	0	0	0	512	508	0	0	
0	0	0	0	0	513	507	0	0	
1	0	0	0	0	513	509	0	0	
2	0	0	0	0	516	508	0	0	
3	0	0	0	0	514	509	0	0	
4	0	0	0	0	513	507	0	0	
5	0	0	0	0	513	506	0	0	
6	0	0	0	0	511	508	0	0	
7	0	0	0	0	510	512	0	0	
8	0	0	0	0	509	508	0	0	
9	0	0	0	0	510	509	0	0	
10	0	0	0	0	508	509	0	0	
11	0	0	0	0	511	507	0	0	
12	0	0	0	0	511	507	0	0	
13	0	0	0	0	511	507	0	0	
14	0	0	0	0	508	508	0	0	
15	0	0	0	0	510	506	0	0	
0	0	0	0	0	511	507	0	0	
1	0	0	0	0	511	507	0	0	
2	0	0	0	0	512	509	0	0	
3	0	0	0	0	513	509	0	0	
4	0	0	0	0	515	508	0	0	
5	0	0	0	0	514	508	0	0	
6	0	0	0	0	512	509	0	0	
7	0	0	0	0	514	508	0	0	
8	0	0	0	0	511	507	0	0	
9	0	0	0	0	511	507	0	0	
10	0	0	0	0	512	508	0	0	
11	0	0	0	0	511	508	0	0	
12	0	0	0	0	510	507	0	0	
13	0	0	0	0	509	507	0	0	
14	0	0	0	0	509	508	0	0	
15	0	0	0	0	509	507	0	0	
0	0	0	0	0	508	510	0	0	
1	0	0	0	0	508	507	0	0	
2	0	0	0	0	508	507	0	0	
3	0	0	0	0	511	509	0	0	
4	0	0	0	0	511	508	0	0	
5	0	0	0	0	511	508	0	0	
6	0	0	0	0	513	508	0	0	
7	0	0	0	0	512	508	0	0	
8	0	0	0	0	514	507	0	0	
9	0	0	0	0	514	507	0	0	
10	0	0	0	0	514	507	0	0	
11	0	0	0	0	514	509	0	0	
12	0	0	0	0	514	507	0	0	
13	0	0	0	0	513	508	0	0	
14	0	0	0	0	512	509	0	0	
15	0	0	0	0	508	510	0	0	
0	0	0	0	0	508	507	0	0	
1	0	0	0	0	508	507	0	0	
2	0	0	0	0	510	508	0	0	
3	0	0	0	0	508	507	0	0	
4	0	0	0	0	508	508	0	0	
5	0	0	0	0	507	508	0	0	
6	0	0	0	0	510	509	0	0	
7	0	0	0	0	511	508	0	0	
8	0	0	0	0	511	507	0	0	
9	0	0	0	0	510	509	0	0	
10	0	0	0	0	512	508	0	0	
11	0	0	0	0	513	508	0	0	
12	0	0	0	0	514	507	0	0	
13	0	0	0	0	514	507	0	0	
14	0	0	0	0	514	508	0	0	
15	0	0	0	0	516	510	0	0	
0	0	0	0	0	513	507	0	0	
1	0	0	0	0	512	506	0	0	
2	0	0	0	0	511	506	0	0	
3	0	0	0	0	511	509	0	0	
4	0	0	0	0	508	508	0	0	
5	0	0	0	0	510	507	0	0	
6	0	0	0	0	508	507	0	0	
7	0	0	0	0	507	509	0	0	
8	0	0	0	0	508	507	0	0	
9	0	0	0	0	505	506	0	0	
10	0	0	0	0	508	508	0	0	
11	0	0	0	0	509	507	0	0	
12	0	0	0	0	510	507	0	0	
13	0	0	0	0	512	509	0	0	
14	0	0	0	0	512	507	0	0	
15	0	0	0	0	511	509	0	0	
0	0	0	0	0	514	508	0	0	
1	0	0	0	0	514	510	0	0	
2	0	0	0	0	512	511	0	0	
3	0	0	0	0	513	508	0	0	
4	0	0	0	0	513	507	0	0	
5	0	0	0	0	514	508	0	0	
6	0	0	0	0	513	508	0	0	
7	0	0	0	0	510	509	0	0	
8	0	0	0	0	509	509	0	0	
9	0	0	0	0	511	505	0	0	
10	0	0	0	0	509	506	0	0	
11	0	0	0	0	509	508	0	0	
12	0	0	0	0	510	509	0	0	
13	0	0	0	0	506	507	0	0	
14	0	0	0	0	510	511	0	0	
15	0	0	0	0	511	508	0	0	
0	0	0	0	0	510	509	0	0	
1	0	0	0	0	511	507	0	0	
2	0	0	0	0	510	507	0	0	
3	0	0	0	0	513	508	0	0	
4	0	0	0	0	514	509	0	0	
5	0	0	0	0	513	508	0	0	
6	0	0	0	0	513	508	0	0	
7	0	0	0	0	513	508	0	0	
8	0	0	0	0	514	509	0	0	
9	0	0	0	0	514	507	0	0	
10	0	0	0	0	512	510	0	0	
11	0	0	0	0	510	507	0	0	
12	0	0	0	0	508	507	0	0	
13	0	0	0	0	508	508	0	0	
14	0	0	0	0	506	508	0	0	
15	0	0	0	0	508	508	0	0	
0	0	0	0	0	508	508	0	0	
1	0	0	0	0	507	507	0	0	
2	0	0	0	0	508	508	0	0	
3	0	0	0	0	509	508	0	0	
4	0	0	0	0	511	508	0	0	
5	0	0	0	0	511	508	0	0	
6	0	0	0	0	511	508	0	0	
7	0	0	0	0	513	508	0	0	
8	0	0	0	0	512	510	0	0	
9	0	0	0	0	515	508	0	0	
10	0	0	0	0	513	508	0	0	
11	0	0	0	0	513	508	0	0	
12	0	0	0	0	514	508	0	0	
13	0	0	0	0	511	508	0	0	
14	0	0	0	0	511	507	0	0	
15	0	0	0	0	511	508	0	0	
0	0	0	0	0	509	509	0	0	
1	0	0	0	0	510	507	0	0	
2	0	0	0	0	508	508	0	0	
3	0	0	0	0	509	509	0	0	
4	0	0	0	0	508	509	0	0	
5	0	0	0	0	508	507	0	0	
6	0	0	0	0	508	507	0	0	
7	0	0	0	0	510	507	0	0	
8	0	0	0	0	511	509	0	0	
9	0	0	0	0	511	508	0	0	
10	0	0	0	0	514	508	0	0	
11	0	0	0	0	511	506	0	0	
12	0	0	0	0	514	510	0	0	
13	0	0	0	0	515	508	0	0	
14	0	0	0	0	514	508	0	0	
15	0	0	0	0	513	508	0	0	
0	0	0	0	0	514	507	0	0	
1	0	0	0	0	511	508	0	0	
2	0	0	0	0	511	507	0	0	
3	0	0	0	0	510	508	0	0	
4	0	0	0	0	511	508	0	0	
5	0	0	0	0	511	507	0	0	
6	0	0	0	0	508	508	0	0	
7	0	0	0	0	510	508	0	0	
8	0	0	0	0	507	506	0	0	
9	0	0	0	0	511	508	0	0	
10	0	0	0	0	509	509	0	0	
11	0	0	0	0	512	508	0	0	
12	0	0	0	0	508	508	0	0	
13	0	0	0	0	510	508	0	0	
14	0	0	0	0	511	509	0	0	
15	0	0	0	0	513	508	0	0	
0	0	0	0	0	513	507	0	0	
1	0	0	0	0	515	508	0	0	
2	0	0	0	0	513	508	0	0	
3	0	0	0	0	515	507	0	0	
4	0	0	0	0	513	506	0	0	
5	0	0	0	0	513	508	0	0	
6	0	0	0	0	512	507	0	0	
7	0	0	0	0	510	508	0	0	
8	0	0	0	0	509	506	0	0	
9	0	0	0	0	513	509	0	0	
10	0	0	0	0	508	508	0	0	
11	0	0	0	0	508	509	0	0	
12	0	0	0	0	508	507	0	0	
13	0	0	0	0	510	510	0	0	
14	0	0	0	0	509	508	0	0	
15	0	0	0	0	509	506	0	0	
0	0	0	0	0	510	508	0	0	
1	0	0	0	0	509	507	0	0	
2	0	0	0	0	511	507	0	0	
3	0	0	0	0	513	509	0	0	
4	0	0	0	0	513	508	0	0	
5	0	0	0	0	513	508	0	0	
6	0	0	0	0	513	508	0	0	
7	0	0	0	0	515	508	0	0	
8	0	0	0	0	513	507	0	0	
9	0	0	0	0	513	508	0	0	
10	0	0	0	0	512	509	0	0	
11	0	0	0	0	511	507	0	0	
12	0	0	0	0	510	509	0	0	
13	0	0	0	0	508	508	0	0	
14	0	0	0	0	506	506	0	0	
15	0	0	0	0	507	508	0	0	
0	0	0	0	0	507	508	0	0	
1	0	0	0	0	508	507	0	0	
2	0	0	0	0	509	509	0	0	
3	0	0	0	0	508	507	0	0	
4	0	0	0	0	510	508	0	0	
5	0	0	0	0	511	508	0	0	
6	0	0	0	0	511	506	0	0	
7	0	0	0	0	512	508	0	0	
8	0	0	0	0	515	508	0	0	
9	0	0	0	0	515	508	0	0	
10	0	0	0	0	514	511	0	0	
11	0	0	0	0	515	510	0	0	
12	0	0	0	0	515	508	0	0	
13	0	0	0	0	513	507	0	0	
14	0	0	0	0	512	508	0	0	
15	0	0	0	0	512	507	0	0	
0	0	0	0	0	511	508	0	0	
1	0	0	0	0	508	508	0	0	
2	0	0	0	0	509	507	0	0	
3	0	0	0	0	509	509	0	0	
4	0	0	0	0	508	508	0	0	
5	0	0	0	0	508	508	0	0	
6	0	0	0	0	510	508	0	0	
7	0	0	0	0	510	508	0	0	
8	0	0	0	0	509	508	0	0	
9	0	0	0	0	510	509	0	0	
10	0	0	0	0	513	507	0	0	
11	0	0	0	0	511	508	0	0	
12	0	0	0	0	512	510	0	0	
13	0	0	0	0	513	507	0	0	
14	0	0	0	0	512	511	0	0	
15	0	0	0	0	515	507	0	0	
0	0	0	0	0	514	506	0	0	
1	0	0	0	0	512	505	0	0	
2	0	0	0	0	513	508	0	0	
3	0	0	0	0	512	508	0	0	
4	0	0	0	0	509	508	0	0	
5	0	0	0	0	508	509	0	0	
6	0	0	0	0	507	508	0	0	
7	0	0	0	0	509	508	0	0	
8	0	0	0	0	510	508	0	0	
9	0	0	0	0	508	508	0	0	
10	0	0	0	0	510	507	0	0	
11	0	0	0	0	509	508	0	0	
12	0	0	0	0	509	509	0	0	
13	0	0	0	0	511	510	0	0	
14	0	0	0	0	511	510	0	0	
15	0	0	0	0	512	506	0	0	
0	0	0	0	0	514	509	0	0	
1	0	0	0	0	512	508	0	0	
2	0	0	0	0	517	508	0	0	
3	0	0	0	0	515	508	0	0	
4	0	0	0	0	511	509	0	0	
5	0	0	0	0	512	508	0	0	
6	0	0	0	0	512	508	0	0	
7	0	0	0	0	511	508	0	0	
8	0	0	0	0	508	507	0	0	
9	0	0	0	0	508	507	0	0	
10	0	0	0	0	509	508	0	0	
11	0	0	0	0	508	507	0	0	
12	0	0	0	0	508	509	0	0	
13	0	0	0	0	508	507	0	0	
14	0	0	0	0	507	506	0	0	
15	0	0	0	0	508	508	0	0	
0	0	0	0	0	510	508	0	0	
1	0	0	0	0	511	507	0	0	
2	0	0	0	0	514	510	0	0	
3	0	0	0	0	513	508	0	0	
4	0	0	0	0	515	510	0	0	
5	0	0	0	0	511	509	0	0	
6	0	0	0	0	513	509	0	0	
7	0	0	0	0	515	509	0	0	
8	0	0	0	0	511	506	0	0	
9	0	0	0	0	513	508	0	0	
10	0	0	0	0	512	508	0	0	
11	0	0	0	0	512	506	0	0	
12	0	0	0	0	509	508	0	0	
13	0	0	0	0	509	508	0	0	
14	0	0	0	0	506	507	0	0	
15	0	0	0	0	508	504	0	0	
0	0	0	0	0	508	506	0	0	
1	0	0	0	0	509	508	0	0	
2	0	0	0	0	512	508	0	0	
3	0	0	0	0	510	508	0	0	
4	0	0	0	0	509	507	0	0	
5	0	0	0	0	511	507	0	0	
6	0	0	0	0	511	510	0	0	
7	0	0	0	0	514	509	0	0	
8	0	0	0	0	515	508	0	0	
9	0	0	0	0	512	508	0	0	
10	0	0	0	0	515	508	0	0	
11	0	0	0	0	514	509	0	0	
12	0	0	0	0	512	508	0	0	
13	0	0	0	0	512	508	0	0	
14	0	0	0	0	512	508	0	0	
15	0	0	0	0	510	510	0	0	
0	0	0	0	0	509	506	0	0	
1	0	0	0	0	510	507	0	0	
2	0	0	0	0	510	508	0	0	
3	0	0	0	0	510	508	0	0	
4	0	0	0	0	510	508	0	0	
5	0	0	0	0	508	505	0	0	
6	0	0	0	0	509	508	0	0	
7	0	0	0	0	509	509	0	0	
8	0	0	0	0	512	506	0	0	
9	0	0	0	0	510	508	0	0	
10	0	0	0	0	510	507	0	0	
11	0	0	0	0	511	508	0	0	
12	0	0	0	0	512	508	0	0	
13	0	0	0	0	514	510	0	0	
14	0	0	0	0	515	509	0	0	
15	0	0	0	0	514	508	0	0	
0	0	0	0	0	511	508	0	0	
1	0	0	0	0	512	507	0	0	
2	0	0	0	0	511	508	0	0	
3	0	0	0	0	511	508	0	0	
4	0	0	0	0	508	508	0	0	
5	0	0	0	0	507	508	0	0	
6	0	0	0	0	510	507	0	0	
7	0	0	0	0	510	509	0	0	
8	0	0	0	0	510	507	0	0	
9	0	0	0	0	508	507	0	0	
10	0	0	0	0	509	508	0	0	
11	0	0	0	0	509	509	0	0	
12	0	0	0	0	510	509	0	0	
13	0	0	0	0	510	507	0	0	
14	0	0	0	0	512	506	0	0	
15	0	0	0	0	512	507	0	0	
0	0	0	0	0	513	507	0	0	
1	0	0	0	0	512	506	0	0	
2	0	0	0	0	513	510	0	0	
3	0	0	0	0	513	510	0	0	
4	0	0	0	0	514	509	0	0	
5	0	0	0	0	512	509	0	0	
6	0	0	0	0	512	508	0	0	
7	0	0	0	0	512	508	0	0	
8	0	0	0	0	511	507	0	0	
9	0	0	0	0	510	508	0	0	
10	0	0	0	0	508	508	0	0	
11	0	0	0	0	508	508	0	0	
12	0	0	0	0	510	507	0	0	
13	0	0	0	0	510	507	0	0	
14	0	0	0	0	509	506	0	0	
15	0	0	0	0	509	509	0	0	
0	0	0	0	0	510	508	0	0	
1	0	0	0	0	512	508	0	0	
2	0	0	0	0	511	507	0	0	
3	0	0	0	0	512	508	0	0	
4	0	0	0	0	511	508	0	0	
5	0	0	0	0	512	508	0	0	
6	0	0	0	0	513	508	0	0	
7	0	0	0	0	514	508	0	0	
8	0	0	0	0	515	508	0	0	
9	0	0	0	0	512	508	0	0	
10	0	0	0	0	511	509	0	0	
11	0	0	0	0	511	506	0	0	
12	0	0	0	0	510	507	0	0	
13	0	0	0	0	509	507	0	0	
14	0	0	0	0	511	509	0	0	
15	0	0	0	0	510	510	0	0	
0	0	0	0	0	507	508	0	0	
1	0	0	0	0	506	508	0	0	
2	0	0	0	0	510	508	0	0	
3	0	0	0	0	510	506	0	0	
4	0	0	0	0	509	509	0	0	
5	0	0	0	0	510	508	0	0	
6	0	0	0	0	512	508	0	0	
7	0	0	0	0	515	508	0	0	
8	0	0	0	0	514	507	0	0	
9	0	0	0	0	513	508	0	0	
10	0	0	0	0	513	510	0	0	
11	0	0	0	0	515	509	0	0	
12	0	0	0	0	512	508	0	0	
13	0	0	0	0	512	507	0	0	
14	0	0	0	0	510	507	0	0	
15	0	0	0	0	510	508	0	0	
0	0	0	0	0	510	507	0	0	
1	0	0	0	0	510	507	0	0	
2	0	0	0	0	509	507	0	0	
3	0	0	0	0	509	507	0	0	
4	0	0	0	0	508	508	0	0	
5	0	0	0	0	509	509	0	0	
6	0	0	0	0	510	509	0	0	
7	0	0	0	0	508	508	0	0	
8	0	0	0	0	511	508	0	0	
9	0	0	0	0	511	507	0	0	
10	0	0	0	0	511	508	0	0	
11	0	0	0	0	512	508	0	0	
12	0	0	0	0	512	508	0	0	
13	0	0	0	0	516	510	0	0	
14	0	0	0	0	514	509	0	0	
15	0	0	0	0	514	507	0	0	
0	0	0	0	0	514	509	0	0	
1	0	0	0	0	514	508	0	0	
2	0	0	0	0	512	508	0	0	
3	0	0	0	0	511	507	0	0	
4	0	0	0	0	509	508	0	0	
5	0	0	0	0	510	507	0	0	
6	0	0	0	0	509	508	0	0	
7	0	0	0	0	507	508	0	0	
8	0	0	0	0	508	507	0	0	
9	0	0	0	0	510	507	0	0	
10	0	0	0	0	508	508	0	0	
11	0	0	0	0	507	509	0	0	
12	0	0	0	0	510	507	0	0	
13	0	0	0	0	510	509	0	0	
14	0	0	0	0	512	508	0	0	
15	0	0	0	0	512	508	0	0	
0	0	0	0	0	514	508	0	0	
1	0	0	0	0	513	508	0	0	
2	0	0	0	0	512	508	0	0	
3	0	0	0	0	514	508	0	0	
4	0	0	0	0	514	510	0	0	
5	0	0	0	0	512	509	0	0	
6	0	0	0	0	512	508	0	0	
7	0	0	0	0	512	507	0	0	
8	0	0	0	0	511	509	0	0	
9	0	0	0	0	510	508	0	0	
10	0	0	0	0	511	509	0	0	
11	0	0	0	0	508	508	0	0	
12	0	0	0	0	509	508	0	0	
13	0	0	0	0	510	508	0	0	
14	0	0	0	0	510	508	0	0	
15	0	0	0	0	509	506	0	0	
0	0	0	0	0	509	505	0	0	
1	0	0	0	0	511	507	0	0	
2	0	0	0	0	513	506	0	0	
3	0	0	0	0	515	508	0	0	
4	0	0	0	0	514	510	0	0	
5	0	0	0	0	512	507	0	0	
6	0	0	0	0	513	510	0	0	
7	0	0	0	0	515	509	0	0	
8	0	0	0	0	511	508	0	0	
9	0	0	0	0	511	509	0	0	
10	0	0	0	0	511	507	0	0	
11	0	0	0	0	510	506	0	0	
12	0	0	0	0	512	508	0	0	
13	0	0	0	0	511	507	0	0	
14	0	0	0	0	508	508	0	0	
15	0	0	0	0	511	509	0	0	
0	0	0	0	0	509	509	0	0	
1	0	0	0	0	508	508	0	0	
2	0	0	0	0	509	508	0	0	
3	0	0	0	0	508	509	0	0	
4	0	0	0	0	509	508	0	0	
5	0	0	0	0	511	507	0	0	
6	0	0	0	0	510	506	0	0	
7	0	0	0	0	511	507	0	0	
8	0	0	0	0	512	508	0	0	
9	0	0	0	0	514	508	0	0	
10	0	0	0	0	512	509	0	0	
11	0	0	0	0	515	507	0	0	
12	0	0	0	0	512	508	0	0	
13	0	0	0	0	512	508	0	0	
14	0	0	0	0	511	508	0	0	
15	0	0	0	0	509	508	0	0	
0	0	0	0	0	509	507	0	0	
1	0	0	0	0	511	510	0	0	
2	0	0	0	0	511	506	0	0	
3	0	0	0	0	508	507	0	0	
4	0	0	0	0	511	508	0	0	
5	0	0	0	0	507	506	0	0	
6	0	0	0	0	509	507	0	0	
7	0	0	0	0	508	508	0	0	
8	0	0	0	0	511	509	0	0	
9	0	0	0	0	511	507	0	0	
10	0	0	0	0	511	510	0	0	
11	0	0	0	0	513	508	0	0	
12	0	0	0	0	512	511	0	0	
13	0	0	0	0	515	506	0	0	
14	0	0	0	0	513	506	0	0	
15	0	0	0	0	512	508	0	0	
0	0	0	0	0	512	507	0	0	
1	0	0	0	0	511	507	0	0	
2	0	0	0	0	511	507	0	0	
3	0	0	0	0	512	507	0	0	
4	0	0	0	0	511	508	0	0	
5	0	0	0	0	510	508	0	0	
6	0	0	0	0	509	506	0	0	
7	0	0	0	0	510	510	0	0	
8	0	0	0	0	511	508	0	0	
9	0	0	0	0	510	507	0	0	
10	0	0	0	0	511	508	0	0	
11	0	0	0	0	511	508	0	0	
12	0	0	0	0	510	509	0	0	
13	0	0	0	0	511	507	0	0	
14	0	0	0	0	510	508	0	0	
15	0	0	0	0	512	510	0	0	
0	0	0	0	0	512	508	0	0	
1	0	0	0	0	512	509	0	0	
2	0	0	0	0	514	509	0	0	
3	0	0	0	0	514	510	0	0	
4	0	0	0	0	513	508	0	0	
5	0	0	0	0	511	508	0	0	
6	0	0	0	0	511	508	0	0	
7	0	0	0	0	511	509	0	0	
8	0	0	0	0	509	506	0	0	
9	0	0	0	0	509	508	0	0	
10	0	0	0	0	510	508	0	0	
11	0	0	0	0	510	508	0	0	
12	0	0	0	0	509	508	0	0	
13	0	0	0	0	508	508	0	0	
14	0	0	0	0	509	508	0	0	
15	0	0	0	0	509	507	0	0	
0	0	0	0	0	512	508	0	0	
1	0	0	0	0	511	508	0	0	
2	0	0	0	0	511	508	0	0	
3	0	0	0	0	512	509	0	0	
4	0	0	0	0	512	510	0	0	
5	0	0	0	0	512	508	0	0	
6	0	0	0	0	514	507	0	0	
7	0	0	0	0	514	510	0	0	
8	0	0	0	0	515	508	0	0	
9	0	0	0	0	512	507	0	0	
10	0	0	0	0	510	507	0	0	
11	0	0	0	0	512	508	0	0	
12	0	0	0	0	508	508	0	0	
13	0	0	0	0	510	506	0	0	
14	0	0	0	0	508	508	0	0	
15	0	0	0	0	508	506	0	0	
0	0	0	0	0	508	508	0	0	
1	0	0	0	0	507	509	0	0	
2	0	0	0	0	508	510	0	0	
3	0	0	0	0	510	509	0	0	
4	0	0	0	0	511	508	0	0	
5	0	0	0	0	511	507	0	0	
6	0	0	0	0	512	507	0	0	
7	0	0	0	0	516	507	0	0	
8	0	0	0	0	513	508	0	0	
9	0	0	0	0	515	509	0	0	
10	0	0	0	0	517	509	0	0	
11	0	0	0	0	515	509	0	0	
12	0	0	0	0	513	507	0	0	
13	0	0	0	0	511	508	0	0	
14	0	0	0	0	511	507	0	0	
15	0	0	0	0	510	507	0	0	
0	0	0	0	0	511	508	0	0	
1	0	0	0	0	510	509	0	0	
2	0	0	0	0	508	505	0	0	
3	0	0	0	0	509	508	0	0	
4	0	0	0	0	509	508	0	0	
5	0	0	0	0	508	508	0	0	
6	0	0	0	0	507	508	0	0	
7	0	0	0	0	511	508	0	0	
8	0	0	0	0	512	510	0	0	
9	0	0	0	0	510	509	0	0	
10	0	0	0	0	511	509	0	0	
11	0	0	0	0	512	508	0	0	
12	0	0	0	0	511	508	0	0	
13	0	0	0	0	512	508	0	0	
14	0	0	0	0	513	508	0	0	
15	0	0	0	0	516	510	0	0	
0	0	0	0	0	511	508	0	0	
1	0	0	0	0	514	507	0	0	
2	0	0	0	0	513	510	0	0	
3	0	0	0	0	509	508	0	0	
4	0	0	0	0	511	509	0	0	
5	0	0	0	0	510	506	0	0	
6	0	0	0	0	507	505	0	0	
7	0	0	0	0	509	510	0	0	
8	0	0	0	0	508	510	0	0	
9	0	0	0	0	509	506	0	0	
10	0	0	0	0	511	508	0	0	
11	0	0	0	0	508	506	0	0	
12	0	0	0	0	510	508	0	0	
13	0	0	0	0	511	507	0	0	
14	0	0	0	0	513	508	0	0	
15	0	0	0	0	513	508	0	0	
0	0	0	0	0	515	508	0	0	
1	0	0	0	0	513	508	0	0	
2	0	0	0	0	512	509	0	0	
3	0	0	0	0	514	508	0	0	
4	0	0	0	0	511	508	0	0	
5	0	0	0	0	511	509	0	0	
6	0	0	0	0	512	507	0	0	
7	0	0	0	0	510	508	0	0	
8	0	0	0	0	510	509	0	0	
9	0	0	0	0	509	507	0	0	
10	0	0	0	0	508	507	0	0	
11	0	0	0	0	508	510	0	0	
12	0	0	0	0	508	508	0	0	
13	0	0	0	0	508	508	0	0	
14	0	0	0	0	508	508	0	0	
15	0	0	0	0	511	509	0	0	
0	0	0	0	0	511	508	0	0	
1	0	0	0	0	510	506	0	0	
2	0	0	0	0	511	508	0	0	
3	0	0	0	0	513	508	0	0	
4	0	0	0	0	513	508	0	0	
5	0	0	0	0	511	507	0	0	
6	0	0	0	0	513	508	0	0	
7	0	0	0	0	513	511	0	0	
8	0	0	0	0	516	509	0	0	
9	0	0	0	0	513	508	0	0	
10	0	0	0	0	510	509	0	0	
11	0	0	0	0	509	507	0	0	
12	0	0	0	0	509	507	0	0	
13	0	0	0	0	509	508	0	0	
14	0	0	0	0	510	508	0	0	
15	0	0	0	0	510	509	0	0	
0	0	0	0	0	508	506	0	0	
1	0	0	0	0	509	507	0	0	
2	0	0	0	0	508	510	0	0	
3	0	0	0	0	510	506	0	0	
4	0	0	0	0	511	506	0	0	
5	0	0	0	0	512	509	0	0	
6	0	0	0	0	514	508	0	0	
7	0	0	0	0	515	508	0	0	
8	0	0	0	0	515	509	0	0	
9	0	0	0	0	512	507	0	0	
10	0	0	0	0	512	507	0	0	
11	0	0	0	0	513	510	0	0	
12	0	0	0	0	513	508	0	0	
13	0	0	0	0	510	508	0	0	
14	0	0	0	0	513	508	0	0	
15	0	0	0	0	511	508	0	0	
0	0	0	0	0	510	507	0	0	
1	0	0	0	0	510	507	0	0	
2	0	0	0	0	507	509	0	0	
3	0	0	0	0	508	508	0	0	
4	0	0	0	0	509	507	0	0	
5	0	0	0	0	508	509	0	0	
6	0	0	0	0	509	508	0	0	
7	0	0	0	0	510	508	0	0	
8	0	0	0	0	512	508	0	0	
9	0	0	0	0	511	510	0	0	
10	0	0	0	0	512	507	0	0	
11	0	0	0	0	514	508	0	0	
12	0	0	0	0	512	508	0	0	
13	0	0	0	0	514	510	0	0	
14	0	0	0	0	512	508	0	0	
15	0	0	0	0	515	507	0	0	
0	0	0	0	0	513	508	0	0	
1	0	0	0	0	513	508	0	0	
2	0	0	0	0	511	508	0	0	
3	0	0	0	0	511	510	0	0	
4	0	0	0	0	509	507	0	0	
5	0	0	0	0	508	509	0	0	
6	0	0	0	0	508	507	0	0	
7	0	0	0	0	509	507	0	0	
8	0	0	0	0	508	507	0	0	
9	0	0	0	0	511	508	0	0	
10	0	0	0	0	509	508	0	0	
11	0	0	0	0	509	507	0	0	
12	0	0	0	0	510	507	0	0	
13	0	0	0	0	511	508	0	0	
14	0	0	0	0	512	508	0	0	
15	0	0	0	0	514	509	0	0	
0	0	0	0	0	514	508	0	0	
1	0	0	0	0	514	508	0	0	
2	0	0	0	0	512	508	0	0	
3	0	0	0	0	514	509	0	0	
4	0	0	0	0	513	508	0	0	
5	0	0	0	0	512	508	0	0	
6	0	0	0	0	513	508	0	0	
7	0	0	0	0	511	507	0	0	
8	0	0	0	0	511	507	0	0	
9	0	0	0	0	508	508	0	0	
10	0	0	0	0	508	508	0	0	
11	0	0	0	0	510	508	0	0	
12	0	0	0	0	508	509	0	0	
13	0	0	0	0	509	507	0	0	
14	0	0	0	0	509	508	0	0	
15	0	0	0	0	510	508	0	0	
0	0	0	0	0	510	508	0	0	
1	0	0	0	0	511	507	0	0	
2	0	0	0	0	511	508	0	0	
3	0	0	0	0	514	508	0	0	
4	0	0	0	0	515	508	0	0	
5	0	0	0	0	515	511	0	0	
6	0	0	0	0	512	511	0	0	
7	0	0	0	0	515	510	0	0	
8	0	0	0	0	514	508	0	0	
9	0	0	0	0	512	507	0	0	
10	0	0	0	0	512	506	0	0	
11	0	0	0	0	512	507	0	0	
12	0	0	0	0	509	509	0	0	
13	0	0	0	0	510	507	0	0	
14	0	0	0	0	509	507	0	0	
15	0	0	0	0	510	507	0	0	
0	0	0	0	0	509	509	0	0	
1	0	0	0	0	508	507	0	0	
2	0	0	0	0	510	507	0	0	
3	0	0	0	0	510	510	0	0	
4	0	0	0	0	511	510	0	0	
5	0	0	0	0	512	507	0	0	
6	0	0	0	0	512	505	0	0	
7	0	0	0	0	511	510	0	0	
8	0	0	0	0	514	508	0	0	
9	0	0	0	0	511	508	0	0	
10	0	0	0	0	513	507	0	0	
11	0	0	0	0	513	507	0	0	
12	0	0	0	0	515	509	0	0	
13	0	0	0	0	513	509	0	0	
14	0	0	0	0	513	507	0	0	
15	0	0	0	0	510	509	0	0	
0	0	0	0	0	509	508	0	0	
1	0	0	0	0	509	507	0	0	
2	0	0	0	0	509	507	0	0	
3	0	0	0	0	507	508	0	0	
4	0	0	0	0	511	508	0	0	
5	0	0	0	0	506	507	0	0	
6	0	0	0	0	508	508	0	0	
7	0	0	0	0	511	508	0	0	
8	0	0	0	0	511	508	0	0	
9	0	0	0	0	513	508	0	0	
10	0	0	0	0	513	508	0	0	
11	0	0	0	0	510	509	0	0	
12	0	0	0	0	512	509	0	0	
13	0	0	0	0	511	508	0	0	
14	0	0	0	0	512	508	0	0	
15	0	0	0	0	515	509	0	0	
0	0	0	0	0	514	509	0	0	
1	0	0	0	0	511	506	0	0	
2	0	0	0	0	511	508	0	0	
3	0	0	0	0	509	507	0	0	
4	0	0	0	0	509	509	0	0	
5	0	0	0	0	510	507	0	0	
6	0	0	0	0	508	508	0	0	
7	0	0	0	0	509	507	0	0	
8	0	0	0	0	509	506	0	0	
9	0	0	0	0	507	508	0	0	
10	0	0	0	0	509	510	0	0	
11	0	0	0	0	509	508	0	0	
12	0	0	0	0	510	507	0	0	
13	0	0	0	0	513	508	0	0	
14	0	0	0	0	512	509	0	0	
15	0	0	0	0	512	508	0	0	
0	0	0	0	0	517	508	0	0	
1	0	0	0	0	516	508	0	0	
2	0	0	0	0	514	509	0	0	
3	0	0	0	0	513	507	0	0	
4	0	0	0	0	514	508	0	0	
5	0	0	0	0	512	508	0	0	
6	0	0	0	0	513	509	0	0	
7	0	0	0	0	511	508	0	0	
8	0	0	0	0	509	508	0	0	
9	0	0	0	0	510	507	0	0	
10	0	0	0	0	507	508	0	0	
11	0	0	0	0	509	507	0	0	
12	0	0	0	0	509	508	0	0	
13	0	0	0	0	508	507	0	0	
14	0	0	0	0	509	508	0	0	
15	0	0	0	0	510	508	0	0	
0	0	0	0	0	508	505	0	0	
1	0	0	0	0	511	507	0	0	
2	0	0	0	0	511	507	0	0	
3	0	0	0	0	512	508	0	0	
4	0	0	0	0	512	508	0	0	
5	0	0	0	0	512	508	0	0	
6	0	0	0	0	512	510	0	0	
7	0	0	0	0	514	509	0	0	
8	0	0	0	0	514	507	0	0	
9	0	0	0	0	511	509	0	0	
10	0	0	0	0	512	507	0	0	
11	0	0	0	0	511	509	0	0	
12	0	0	0	0	511	509	0	0	
13	0	0	0	0	509	506	0	0	
14	0	0	0	0	510	508	0	0	
15	0	0	0	0	509	507	0	0	
0	0	0	0	0	508	508	0	0	
1	0	0	0	0	507	507	0	0	
2	0	0	0	0	507	507	0	0	
3	0	0	0	0	511	509	0	0	
4	0	0	0	0	511	508	0	0	
5	0	0	0	0	511	508	0	0	
6	0	0	0	0	512	507	0	0	
7	0	0	0	0	512	508	0	0	
8	0	0	0	0	513	508	0	0	
9	0	0	0	0	513	508	0	0	
10	0	0	0	0	514	509	0	0	
11	0	0	0	0	514	508	0	0	
12	0	0	0	0	512	508	0	0	
13	0	0	0	0	511	506	0	0	
14	0	0	0	0	511	508	0	0	
15	0	0	0	0	511	508	0	0	
0	0	0	0	0	510	508	0	0	
1	0	0	0	0	510	508	0	0	
2	0	0	0	0	511	507	0	0	
3	0	0	0	0	510	506	0	0	
4	0	0	0	0	508	506	0	0	
5	0	0	0	0	509	509	0	0	
6	0	0	0	0	508	506	0	0	
7	0	0	0	0	511	509	0	0	
8	0	0	0	0	510	509	0	0	
9	0	0	0	0	509	508	0	0	
10	0	0	0	0	511	508	0	0	
11	0	0	0	0	512	507	0	0	
12	0	0	0	0	512	508	0	0	
13	0	0	0	0	513	508	0	0	
14	0	0	0	0	514	507	0	0	
15	0	0	0	0	515	508	0	0	
0	0	0	0	0	514	507	0	0	
1	0	0	0	0	511	508	0	0	
2	0	0	0	0	511	508	0	0	
3	0	0	0	0	512	507	0	0	
4	0	0	0	0	511	507	0	0	
5	0	0	0	0	508	509	0	0	
6	0	0	0	0	506	508	0	0	
7	0	0	0	0	508	507	0	0	
8	0	0	0	0	509	510	0	0	
9	0	0	0	0	510	507	0	0	
10	0	0	0	0	509	508	0	0	
11	0	0	0	0	511	508	0	0	
12	0	0	0	0	511	508	0	0	
13	0	0	0	0	510	508	0	0	
14	0	0	0	0	513	509	0	0	
15	0	0	0	0	512	508	0	0	
0	0	0	0	0	513	508	0	0	
1	0	0	0	0	513	509	0	0	
2	0	0	0	0	515	507	0	0	
3	0	0	0	0	513	508	0	0	
4	0	0	0	0	512	507	0	0	
5	0	0	0	0	512	508	0	0	
6	0	0	0	0	510	510	0	0	
7	0	0	0	0	510	508	0	0	
8	0	0	0	0	509	506	0	0	
9	0	0	0	0	510	509	0	0	
10	0	0	0	0	508	507	0	0	
11	0	0	0	0	510	509	0	0	
12	0	0	0	0	508	511	0	0	
13	0	0	0	0	505	508	0	0	
14	0	0	0	0	508	507	0	0	
15	0	0	0	0	510	508	0	0	
0	0	0	0	0	510	507	0	0	
1	0	0	0	0	513	507	0	0	
2	0	0	0	0	512	509	0	0	
3	0	0	0	0	515	509	0	0	
4	0	0	0	0	513	510	0	0	
5	0	0	0	0	515	508	0	0	
6	0	0	0	0	514	508	0	0	
7	0	0	0	0	516	511	0	0	
8	0	0	0	0	512	508	0	0	
9	0	0	0	0	510	508	0	0	
10	0	0	0	0	512	507	0	0	
11	0	0	0	0	509	506	0	0	
12	0	0	0	0	510	507	0	0	
13	0	0	0	0	510	508	0	0	
14	0	0	0	0	507	509	0	0	
15	0	0	0	0	508	508	0	0	
0	0	0	0	0	510	508	0	0	
1	0	0	0	0	508	509	0	0	
2	0	0	0	0	508	506	0	0	
3	0	0	0	0	508	508	0	0	
4	0	0	0	0	512	509	0	0	
5	0	0	0	0	510	508	0	0	
6	0	0	0	0	513	507	0	0	
7	0	0	0	0	513	509	0	0	
8	0	0	0	0	512	506	0	0	
9	0	0	0	0	512	508	0	0	
10	0	0	0	0	515	508	0	0	
11	0	0	0	0	515	507	0	0	
12	0	0	0	0	513	511	0	0	
13	0	0	0	0	512	508	0	0	
14	0	0	0	0	510	507	0	0	
15	0	0	0	0	507	510	0	0	
0	0	0	0	0	511	507	0	0	
1	0	0	0	0	510	508	0	0	
2	0	0	0	0	508	507	0	0	
3	0	0	0	0	509	507	0	0	
4	0	0	0	0	508	506	0	0	
5	0	0	0	0	508	509	0	0	
6	0	0	0	0	511	505	0	0	
7	0	0	0	0	511	508	0	0	
8	0	0	0	0	512	508	0	0	
9	0	0	0	0	512	508	0	0	
10	0	0	0	0	511	508	0	0	
11	0	0	0	0	513	508	0	0	
12	0	0	0	0	512	510	0	0	
13	0	0	0	0	517	509	0	0	
14	0	0	0	0	512	508	0	0	
15	0	0	0	0	512	509	0	0	
0	0	0	0	0	513	508	0	0	
1	0	0	0	0	511	509	0	0	
2	0	0	0	0	511	508	0	0	
3	0	0	0	0	511	508	0	0	
4	0	0	0	0	509	507	0	0	
5	0	0	0	0	508	508	0	0	
6	0	0	0	0	511	507	0	0	
7	0	0	0	0	508	510	0	0	
8	0	0	0	0	507	508	0	0	
9	0	0	0	0	509	507	0	0	
10	0	0	0	0	510	508	0	0	
11	0	0	0	0	508	507	0	0	
12	0	0	0	0	510	507	0	0	
13	0	0	0	0	512	507	0	0	
14	0	0	0	0	512	507	0	0	
15	0	0	0	0	512	508	0	0	
0	0	0	0	0	515	510	0	0	
1	0	0	0	0	513	509	0	0	
2	0	0	0	0	513	506	0	0	
3	0	0	0	0	513	509	0	0	
4	0	0	0	0	512	507	0	0	
5	0	0	0	0	512	508	0	0	
6	0	0	0	0	511	509	0	0	
7	0	0	0	0	509	508	0	0	
8	0	0	0	0	512	506	0	0	
9	0	0	0	0	509	509	0	0	
10	0	0	0	0	508	508	0	0	
11	0	0	0	0	513	508	0	0	
12	0	0	0	0	509	508	0	0	
13	0	0	0	0	510	507	0	0	
14	0	0	0	0	510	508	0	0	
15	0	0	0	0	510	507	0	0	
0	0	0	0	0	508	509	0	0	
1	0	0	0	0	511	510	0	0	
2	0	0	0	0	507	506	0	0	
3	0	0	0	0	512	508	0	0	
4	0	0	0	0	515	507	0	0	
5	0	0	0	0	514	507	0	0	
6	0	0	0	0	513	508	0	0	
7	0	0	0	0	515	508	0	0	
8	0	0	0	0	515	509	0	0	
9	0	0	0	0	511	508	0	0	
10	0	0	0	0	511	507	0	0	
11	0	0	0	0	509	509	0	0	
12	0	0	0	0	511	508	0	0	
13	0	0	0	0	508	507	0	0	
14	0	0	0	0	511	506	0	0	
15	0	0	0	0	510	508	0	0	
0	0	0	0	0	508	509	0	0	
1	0	0	0	0	508	508	0	0	
2	0	0	0	0	510	507	0	0	
3	0	0	0	0	510	508	0	0	
4	0	0	0	0	511	508	0	0	
5	0	0	0	0	513	509	0	0	
6	0	0	0	0	512	509	0	0	
7	0	0	0	0	511	508	0	0	
8	0	0	0	0	513	506	0	0	
9	0	0	0	0	512	508	0	0	
10	0	0	0	0	513	508	0	0	
11	0	0	0	0	514	508	0	0	
12	0	0	0	0	513	508	0	0	
13	0	0	0	0	511	507	0	0	
14	0	0	0	0	513	508	0	0	
15	0	0	0	0	513	509	0	0	
0	0	0	0	0	512	508	0	0	
1	0	0	0	0	510	506	0	0	
2	0	0	0	0	508	507	0	0	
3	0	0	0	0	510	508	0	0	
4	0	0	0	0	508	506	0	0	
5	0	0	0	0	508	507	0	0	
6	0	0	0	0	510	508	0	0	
7	0	0	0	0	510	507	0	0	
8	0	0	0	0	508	509	0	0	
9	0	0	0	0	512	509	0	0	
10	0	0	0	0	513	509	0	0	
11	0	0	0	0	512	507	0	0	
12	0	0	0	0	513	508	0	0	
13	0	0	0	0	511	509	0	0	
14	0	0	0	0	512	509	0	0	
15	0	0	0	0	514	507	0	0	
0	0	0	0	0	513	508	0	0	
1	0	0	0	0	513	508	0	0	
2	0	0	0	0	511	509	0	0	
3	0	0	0	0	510	508	0	0	
4	0	0	0	0	511	508	0	0	
5	0	0	0	0	512	508	0	0	
6	0	0	0	0	510	507	0	0	
7	0	0	0	0	510	506	0	0	
8	0	0	0	0	508	510	0	0	
9	0	0	0	0	508	509	0	0	
10	0	0	0	0	509	508	0	0	
11	0	0	0	0	509	508	0	0	
12	0	0	0	0	508	507	0	0	
13	0	0	0	0	511	508	0	0	
14	0	0	0	0	511	508	0	0	
15	0	0	0	0	512	507	0	0	
0	0	0	0	0	512	508	0	0	
1	0	0	0	0	512	508	0	0	
2	0	0	0	0	514	509	0	0	
3	0	0	0	0	514	508	0	0	
4	0	0	0	0	512	510	0	0	
5	0	0	0	0	512	509	0	0	
6	0	0	0	0	512	508	0	0	
7	0	0	0	0	511	508	0	0	
8	0	0	0	0	510	508	0	0	
9	0	0	0	0	508	505	0	0	
10	0	0	0	0	507	506	0	0	
11	0	0	0	0	510	508	0	0	
12	0	0	0	0	510	508	0	0	
13	0	0	0	0	508	508	0	0	
14	0	0	0	0	507	507	0	0	
15	0	0	0	0	511	508	0	0	
0	0	0	0	0	509	509	0	0	
1	0	0	0	0	511	507	0	0	
2	0	0	0	0	512	508	0	0	
3	0	0	0	0	513	508	0	0	
4	0	0	0	0	512	507	0	0	
5	0	0	0	0	514	508	0	0	
6	0	0	0	0	513	508	0	0	
7	0	0	0	0	515	509	0	0	
8	0	0	0	0	514	510	0	0	
9	0	0	0	0	513	508	0	0	
10	0	0	0	0	512	507	0	0	
11	0	0	0	0	510	507	0	0	
12	0	0	0	0	512	508	0	0	
13	0	0	0	0	510	508	0	0	
14	0	0	0	0	510	509	0	0	
15	0	0	0	0	510	507	0	0	
0	0	0	0	0	508	507	0	0	
1	0	0	0	0	507	508	0	0	
2	0	0	0	0	509	506	0	0	
3	0	0	0	0	510	507	0	0	
4	0	0	0	0	510	507	0	0	
5	0	0	0	0	510	510	0	0	
6	0	0	0	0	512	509	0	0	
7	0	0	0	0	513	507	0	0	
8	0	0	0	0	512	508	0	0	
9	0	0	0	0	513	508	0	0	
10	0	0	0	0	515	508	0	0	
11	0	0	0	0	511	508	0	0	
12	0	0	0	0	512	509	0	0	
13	0	0	0	0	512	508	0	0	
14	0	0	0	0	508	508	0	0	
15	0	0	0	0	512	508	0	0	
0	0	0	0	0	511	507	0	0	
1	0	0	0	0	508	507	0	0	
2	0	0	0	0	509	508	0	0	
3	0	0	0	0	510	508	0	0	
4	0	0	0	0	509	510	0	0	
5	0	0	0	0	509	506	0	0	
6	0	0	0	0	511	507	0	0	
7	0	0	0	0	510	507	0	0	
8	0	0	0	0	511	508	0	0	
9	0	0	0	0	513	508	0	0	
10	0	0	0	0	512	509	0	0	
11	0	0	0	0	513	508	0	0	
12	0	0	0	0	514	508	0	0	
13	0	0	0	0	513	508	0	0	
14	0	0	0	0	512	509	0	0	
15	0	0	0	0	513	508	0	0	
0	0	0	0	0	513	508	0	0	
1	0	0	0	0	514	505	0	0	
2	0	0	0	0	512	508	0	0	
3	0	0	0	0	510	509	0	0	
4	0	0	0	0	508	508	0	0	
5	0	0	0	0	511	509	0	0	
6	0	0	0	0	510	509	0	0	
7	0	0	0	0	511	506	0	0	
8	0	0	0	0	508	508	0	0	
9	0	0	0	0	510	508	0	0	
10	0	0	0	0	510	510	0	0	
11	0	0	0	0	510	508	0	0	
12	0	0	0	0	510	505	0	0	
13	0	0	0	0	512	507	0	0	
14	0	0	0	0	510	506	0	0	
15	0	0	0	0	510	508	0	0	
0	0	0	0	0	512	509	0	0	
1	0	0	0	0	514	509	0	0	
2	0	0	0	0	513	507	0	0	
3	0	0	0	0	515	507	0	0	
4	0	0	0	0	512	508	0	0	
5	0	0	0	0	514	511	0	0	
6	0	0	0	0	513	509	0	0	
7	0	0	0	0	508	508	0	0	
8	0	0	0	0	507	508	0	0	
9	0	0	0	0	509	507	0	0	
10	0	0	0	0	510	508	0	0	
11	0	0	0	0	508	507	0	0	
12	0	0	0	0	510	508	0	0	
13	0	0	0	0	507	509	0	0	
14	0	0	0	0	508	508	0	0	
15	0	0	0	0	510	508	0	0	
0	0	0	0	0	512	508	0	0	
1	0	0	0	0	510	508	0	0	
2	0	0	0	0	513	508	0	0	
3	0	0	0	0	513	508	0	0	
4	0	0	0	0	513	507	0	0	
5	0	0	0	0	513	509	0	0	
6	0	0	0	0	513	508	0	0	
7	0	0	0	0	514	508	0	0	
8	0	0	0	0	514	507	0	0	
9	0	0	0	0	515	508	0	0	
10	0	0	0	0	512	508	0	0	
11	0	0	0	0	511	508	0	0	
12	0	0	0	0	510	507	0	0	
13	0	0	0	0	509	507	0	0	
14	0	0	0	0	508	508	0	0	
15	0	0	0	0	511	506	0	0	
0	0	0	0	0	508	508	0	0	
1	0	0	0	0	509	507	0	0	
2	0	0	0	0	510	508	0	0	
3	0	0	0	0	511	509	0	0	
4	0	0	0	0	508	508	0	0	
5	0	0	0	0	512	508	0	0	
6	0	0	0	0	511	508	0	0	
7	0	0	0	0	514	509	0	0	
8	0	0	0	0	515	507	0	0	
9	0	0	0	0	513	509	0	0	
10	0	0	0	0	514	509	0	0	
11	0	0	0	0	514	509	0	0	
12	0	0	0	0	514	508	0	0	
13	0	0	0	0	512	508	0	0	
14	0	0	0	0	511	508	0	0	
15	0	0	0	0	512	510	0	0	
0	0	0	0	0	511	508	0	0	
1	0	0	0	0	505	507	0	0	
2	0	0	0	0	508	507	0	0	
3	0	0	0	0	507	508	0	0	
4	0	0	0	0	508	507	0	0	
5	0	0	0	0	508	508	0	0	
6	0	0	0	0	511	506	0	0	
7	0	0	0	0	510	507	0	0	
8	0	0	0	0	511	509	0	0	
9	0	0	0	0	512	508	0	0	
10	0	0	0	0	511	507	0	0	
11	0	0	0	0	511	507	0	0	
12	0	0	0	0	512	507	0	0	
13	0	0	0	0	513	508	0	0	
14	0	0	0	0	513	508	0	0	
15	0	0	0	0	511	508	0	0	
0	0	0	0	0	513	509	0	0	
1	0	0	0	0	514	509	0	0	
2	0	0	0	0	513	507	0	0	
3	0	0	0	0	511	508	0	0	
4	0	0	0	0	510	507	0	0	
5	0	0	0	0	510	508	0	0	
6	0	0	0	0	507	508	0	0	
7	0	0	0	0	509	509	0	0	
8	0	0	0	0	506	507	0	0	
9	0	0	0	0	509	507	0	0	
10	0	0	0	0	508	507	0	0	
11	0	0	0	0	510	507	0	0	
12	0	0	0	0	511	510	0	0	
13	0	0	0	0	511	507	0	0	
14	0	0	0	0	513	507	0	0	
15	0	0	0	0	511	507	0	0	
0	0	0	0	0	512	509	0	0	
1	0	0	0	0	511	509	0	0	
2	0	0	0	0	513	508	0	0	
3	0	0	0	0	514	508	0	0	
4	0	0	0	0	515	508	0	0	
5	0	0	0	0	513	508	0	0	
6	0	0	0	0	512	508	0	0	
7	0	0	0	0	511	508	0	0	
8	0	0	0	0	509	510	0	0	
9	0	0	0	0	509	507	0	0	
10	0	0	0	0	507	507	0	0	
11	0	0	0	0	508	507	0	0	
12	0	0	0	0	509	508	0	0	
13	0	0	0	0	509	505	0	0	
14	0	0	0	0	511	506	0	0	
15	0	0	0	0	511	508	0	0	
0	0	0	0	0	508	508	0	0	
1	0	0	0	0	511	509	0	0	
2	0	0	0	0	510	506	0	0	
3	0	0	0	0	513	509	0	0	
4	0	0	0	0	513	509	0	0	
5	0	0	0	0	511	507	0	0	
6	0	0	0	0	516	508	0	0	
7	0	0	0	0	515	508	0	0	
8	0	0	0	0	513	508	0	0	
9	0	0	0	0	513	509	0	0	
10	0	0	0	0	513	508	0	0	
11	0	0	0	0	511	507	0	0	
12	0	0	0	0	508	509	0	0	
13	0	0	0	0	510	509	0	0	
14	0	0	0	0	508	507	0	0	
15	0	0	0	0	509	507	0	0	
0	0	0	0	0	508	508	0	0	
1	0	0	0	0	509	508	0	0	
2	0	0	0	0	508	508	0	0	
3	0	0	0	0	509	508	0	0	
4	0	0	0	0	509	508	0	0	
5	0	0	0	0	512	508	0	0	
6	0	0	0	0	513	507	0	0	
7	0	0	0	0	511	508	0	0	
8	0	0	0	0	515	510	0	0	
9	0	0	0	0	515	507	0	0	
10	0	0	0	0	515	508	0	0	
11	0	0	0	0	513	507	0	0	
12	0	0	0	0	513	505	0	0	
13	0	0	0	0	512	507	0	0	
14	0	0	0	0	512	509	0	0	
15	0	0	0	0	511	508	0	0	
0	0	0	0	0	508	509	0	0	
1	0	0	0	0	508	508	0	0	
2	0	0	0	0	508	508	0	0	
3	0	0	0	0	508	508	0	0	
4	0	0	0	0	509	508	0	0	
5	0	0	0	0	508	508	0	0	
6	0	0	0	0	508	508	0	0	
7	0	0	0	0	510	507	0	0	
8	0	0	0	0	511	508	0	0	
9	0	0	0	0	510	508	0	0	
10	0	0	0	0	512	507	0	0	
11	0	0	0	0	513	509	0	0	
12	0	0	0	0	513	508	0	0	
13	0	0	0	0	512	509	0	0	
14	0	0	0	0	513	509	0	0	
15	0	0	0	0	514	510	0	0	
0	0	0	0	0	512	509	0	0	
1	0	0	0	0	511	507	0	0	
2	0	0	0	0	511	509	0	0	
3	0	0	0	0	513	507	0	0	
4	0	0	0	0	512	508	0	0	
5	0	0	0	0	510	510	0	0	
6	0	0	0	0	507	505	0	0	
7	0	0	0	0	508	508	0	0	
8	0	0	0	0	507	508	0	0	
9	0	0	0	0	508	508	0	0	
10	0	0	0	0	509	508	0	0	
11	0	0	0	0	511	508	0	0	
12	0	0	0	0	510	508	0	0	
13	0	0	0	0	512	508	0	0	
14	0	0	0	0	511	508	0	0	
15	0	0	0	0	511	508	0	0	
0	0	0	0	0	514	508	0	0	
1	0	0	0	0	515	508	0	0	
2	0	0	0	0	513	508	0	0	
3	0	0	0	0	515	508	0	0	
4	0	0	0	0	512	508	0	0	
5	0	0	0	0	512	509	0	0	
6	0	0	0	0	513	509	0	0	
7	0	0	0	0	511	507	0	0	
8	0	0	0	0	509	507	0	0	
9	0	0	0	0	510	505	0	0	
10	0	0	0	0	507	508	0	0	
11	0	0	0	0	507	508	0	0	
12	0	0	0	0	508	509	0	0	
13	0	0	0	0	508	509	0	0	
14	0	0	0	0	511	509	0	0	
15	0	0	0	0	508	508	0	0	
0	0	0	0	0	509	506	0	0	
1	0	0	0	0	510	508	0	0	
2	0	0	0	0	511	508	0	0	
3	0	0	0	0	513	508	0	0	
4	0	0	0	0	514	508	0	0	
5	0	0	0	0	515	510	0	0	
6	0	0	0	0	513	508	0	0	
7	0	0	0	0	515	509	0	0	
8	0	0	0	0	514	508	0	0	
9	0	0	0	0	513	507	0	0	
10	0	0	0	0	510	508	0	0	
11	0	0	0	0	509	508	0	0	
12	0	0	0	0	509	504	0	0	
13	0	0	0	0	510	507	0	0	
14	0	0	0	0	510	508	0	0	
15	0	0	0	0	509	507	0	0	
0	0	0	0	0	511	508	0	0	
1	0	0	0	0	509	509	0	0	
2	0	0	0	0	509	508	0	0	
3	0	0	0	0	511	507	0	0	
4	0	0	0	0	508	507	0	0	
5	0	0	0	0	512	508	0	0	
6	0	0	0	0	512	508	0	0	
7	0	0	0	0	513	508	0	0	
8	0	0	0	0	512	508	0	0	
9	0	0	0	0	512	510	0	0	
10	0	0	0	0	513	508	0	0	
11	0	0	0	0	512	507	0	0	
12	0	0	0	0	513	509	0	0	
13	0	0	0	0	513	509	0	0	
14	0	0	0	0	512	507	0	0	
15	0	0	0	0	511	507	0	0	
0	0	0	0	0	513	507	0	0	
1	0	0	0	0	511	509	0	0	
2	0	0	0	0	510	508	0	0	
3	0	0	0	0	507	508	0	0	
4	0	0	0	0	509	508	0	0	
5	0	0	0	0	508	506	0	0	
6	0	0	0	0	510	507	0	0	
7	0	0	0	0	512	506	0	0	
8	0	0	0	0	510	510	0	0	
9	0	0	0	0	511	507	0	0	
10	0	0	0	0	512	508	0	0	
11	0	0	0	0	511	510	0	0	
12	0	0	0	0	515	508	0	0	
13	0	0	0	0	514	509	0	0	
14	0	0	0	0	512	509	0	0	
15	0	0	0	0	515	508	0	0	
0	0	0	0	0	513	506	0	0	
1	0	0	0	0	512	507	0	0	
2	0	0	0	0	513	509	0	0	
3	0	0	0	0	510	507	0	0	
4	0	0	0	0	510	508	0	0	
5	0	0	0	0	508	508	0	0	
6	0	0	0	0	510	507	0	0	
7	0	0	0	0	509	509	0	0	
8	0	0	0	0	508	509	0	0	
9	0	0	0	0	510	506	0	0	
10	0	0	0	0	507	507	0	0	
11	0	0	0	0	511	507	0	0	
12	0	0	0	0	512	507	0	0	
13	0	0	0	0	512	508	0	0	
14	0	0	0	0	510	509	0	0	
15	0	0	0	0	511	506	0	0	
0	0	0	0	0	513	506	0	0	
1	0	0	0	0	513	507	0	0	
2	0	0	0	0	514	508	0	0	
3	0	0	0	0	514	509	0	0	
4	0	0	0	0	511	508	0	0	
5	0	0	0	0	514	507	0	0	
6	0	0	0	0	512	509	0	0	
7	0	0	0	0	511	510	0	0	
8	0	0	0	0	510	508	0	0	
9	0	0	0	0	510	507	0	0	
10	0	0	0	0	511	508	0	0	
11	0	0	0	0	510	508	0	0	
12	0	0	0	0	508	507	0	0	
13	0	0	0	0	510	509	0	0	
14	0	0	0	0	508	506	0	0	
15	0	0	0	0	509	508	0	0	
0	0	0	0	0	510	507	0	0	
1	0	0	0	0	509	509	0	0	
2	0	0	0	0	511	508	0	0	
3	0	0	0	0	511	507	0	0	
4	0	0	0	0	513	507	0	0	
5	0	0	0	0	513	510	0	0	
6	0	0	0	0	514	508	0	0	
7	0	0	0	0	511	508	0	0	
8	0	0	0	0	512	509	0	0	
9	0	0	0	0	512	507	0	0	
10	0	0	0	0	512	508	0	0	
11	0	0	0	0	511	506	0	0	
12	0	0	0	0	511	508	0	0	
13	0	0	0	0	509	506	0	0	
14	0	0	0	0	511	508	0	0	
15	0	0	0	0	510	508	0	0	
0	0	0	0	0	510	509	0	0	
1	0	0	0	0	507	508	0	0	
2	0	0	0	0	508	508	0	0	
3	0	0	0	0	510	508	0	0	
4	0	0	0	0	511	508	0	0	
5	0	0	0	0	512	508	0	0	
6	0	0	0	0	511	508	0	0	
7	0	0	0	0	513	506	0	0	
8	0	0	0	0	513	508	0	0	
9	0	0	0	0	513	509	0	0	
10	0	0	0	0	515	508	0	0	
11	0	0	0	0	512	509	0	0	
12	0	0	0	0	514	508	0	0	
13	0	0	0	0	512	508	0	0	
14	0	0	0	0	510	509	0	0	
15	0	0	0	0	511	507	0	0	
0	0	0	0	0	510	506	0	0	
1	0	0	0	0	508	509	0	0	
2	0	0	0	0	508	507	0	0	
3	0	0	0	0	509	508	0	0	
4	0	0	0	0	510	508	0	0	
5	0	0	0	0	508	507	0	0	
6	0	0	0	0	509	509	0	0	
7	0	0	0	0	511	509	0	0	
8	0	0	0	0	510	507	0	0	
9	0	0	0	0	512	508	0	0	
10	0	0	0	0	510	509	0	0	
11	0	0	0	0	512	508	0	0	
12	0	0	0	0	515	508	0	0	
13	0	0	0	0	514	509	0	0	
14	0	0	0	0	515	507	0	0	
15	0	0	0	0	512	508	0	0	
0	0	0	0	0	512	508	0	0	
1	0	0	0	0	515	508	0	0	
2	0	0	0	0	511	509	0	0	
3	0	0	0	0	511	508	0	0	
4	0	0	0	0	509	508	0	0	
5	0	0	0	0	509	507	0	0	
6	0	0	0	0	508	508	0	0	
7	0	0	0	0	507	508	0	0	
8	0	0	0	0	511	508	0	0	
9	0	0	0	0	509	509	0	0	
10	0	0	0	0	509	508	0	0	
11	0	0	0	0	511	508	0	0	
12	0	0	0	0	508	507	0	0	
13	0	0	0	0	511	507	0	0	
14	0	0	0	0	512	506	0	0	
15	0	0	0	0	510	506	0	0	
0	0	0	0	0	517	509	0	0	
1	0	0	0	0	512	508	0	0	
2	0	0	0	0	512	509	0	0	
3	0	0	0	0	514	511	0	0	
4	0	0	0	0	515	508	0	0	
5	0	0	0	0	511	507	0	0	
6	0	0	0	0	510	508	0	0	
7	0	0	0	0	511	508	0	0	
8	0	0	0	0	512	509	0	0	
9	0	0	0	0	508	508	0	0	
10	0	0	0	0	509	508	0	0	
11	0	0	0	0	507	507	0	0	
12	0	0	0	0	509	508	0	0	
13	0	0	0	0	510	508	0	0	
14	0	0	0	0	510	508	0	0	
15	0	0	0	0	508	506	0	0	
0	0	0	0	0	512	510	0	0	
1	0	0	0	0	511	507	0	0	
2	0	0	0	0	511	506	0	0	
3	0	0	0	0	512	508	0	0	
4	0	0	0	0	514	508	0	0	
5	0	0	0	0	514	509	0	0	
6	0	0	0	0	513	510	0	0	
7	0	0	0	0	514	507	0	0	
8	0	0	0	0	512	508	0	0	
9	0	0	0	0	512	510	0	0	
10	0	0	0	0	511	508	0	0	
11	0	0	0	0	509	508	0	0	
12	0	0	0	0	510	509	0	0	
13	0	0	0	0	511	506	0	0	
14	0	0	0	0	510	506	0	0	
15	0	0	0	0	507	508	0	0	
0	0	0	0	0	507	507	0	0	
1	0	0	0	0	509	506	0	0	
2	0	0	0	0	508	507	0	0	
3	0	0	0	0	508	508	0	0	
4	0	0	0	0	509	507	0	0	
5	0	0	0	0	510	510	0	0	
6	0	0	0	0	511	510	0	0	
7	0	0	0	0	512	508	0	0	
8	0	0	0	0	515	508	0	0	
9	0	0	0	0	512	509	0	0	
10	0	0	0	0	514	508	0	0	
11	0	0	0	0	513	510	0	0	
12	0	0	0	0	513	510	0	0	
13	0	0	0	0	514	508	0	0	
14	0	0	0	0	514	507	0	0	
15	0	0	0	0	510	508	0	0	
0	0	0	0	0	508	508	0	0	
1	0	0	0	0	509	507	0	0	
2	0	0	0	0	509	507	0	0	
3	0	0	0	0	511	507	0	0	
4	0	0	0	0	509	508	0	0	
5	0	0	0	0	507	508	0	0	
6	0	0	0	0	507	507	0	0	
7	0	0	0	0	508	508	0	0	
8	0	0	0	0	511	509	0	0	
9	0	0	0	0	511	507	0	0	
10	0	0	0	0	512	508	0	0	
11	0	0	0	0	511	508	0	0	
12	0	0	0	0	514	508	0	0	
13	0	0	0	0	514	507	0	0	
14	0	0	0	0	513	507	0	0	
15	0	0	0	0	515	508	0	0	
0	0	0	0	0	513	508	0	0	
1	0	0	0	0	512	509	0	0	
2	0	0	0	0	513	508	0	0	
3	0	0	0	0	510	507	0	0	
4	0	0	0	0	511	509	0	0	
5	0	0	0	0	508	507	0	0	
6	0	0	0	0	510	508	0	0	
7	0	0	0	0	509	510	0	0	
8	0	0	0	0	508	507	0	0	
9	0	0	0	0	510	509	0	0	
10	0	0	0	0	510	508	0	0	
11	0	0	0	0	510	507	0	0	
12	0	0	0	0	509	508	0	0	
13	0	0	0	0	509	508	0	0	
14	0	0	0	0	511	507	0	0	
15	0	0	0	0	510	508	0	0	
0	0	0	0	0	514	508	0	0	
1	0	0	0	0	514	510	0	0	
2	0	0	0	0	511	509	0	0	
3	0	0	0	0	513	506	0	0	
4	0	0	0	0	512	509	0	0	
5	0	0	0	0	513	509	0	0	
6	0	0	0	0	512	508	0	0	
7	0	0	0	0	510	507	0	0	
8	0	0	0	0	510	506	0	0	
9	0	0	0	0	510	508	0	0	
10	0	0	0	0	509	507	0	0	
11	0	0	0	0	510	507	0	0	
12	0	0	0	0	510	507	0	0	
13	0	0	0	0	507	509	0	0	
14	0	0	0	0	509	509	0	0	
15	0	0	0	0	508	508	0	0	
0	0	0	0	0	511	509	0	0	
1	0	0	0	0	511	509	0	0	
2	0	0	0	0	511	507	0	0	
3	0	0	0	0	515	506	0	0	
4	0	0	0	0	513	509	0	0	
5	0	0	0	0	514	507	0	0	
6	0	0	0	0	514	509	0	0	
7	0	0	0	0	514	508	0	0	
8	0	0	0	0	514	509	0	0	
9	0	0	0	0	512	510	0	0	
10	0	0	0	0	511	507	0	0	
11	0	0	0	0	511	508	0	0	
12	0	0	0	0	511	508	0	0	
13	0	0	0	0	509	509	0	0	
14	0	0	0	0	509	508	0	0	
15	0	0	0	0	508	506	0	0	
0	0	0	0	0	508	511	0	0	
1	0	0	0	0	510	508	0	0	
2	0	0	0	0	510	507	0	0	
3	0	0	0	0	510	508	0	0	
4	0	0	0	0	511	508	0	0	
5	0	0	0	0	511	508	0	0	
6	0	0	0	0	511	507	0	0	
7	0	0	0	0	512	507	0	0	
8	0	0	0	0	514	508	0	0	
9	0	0	0	0	512	508	0	0	
10	0	0	0	0	514	508	0	0	
11	0	0	0	0	515	508	0	0	
12	0	0	0	0	513	509	0	0	
13	0	0	0	0	513	508	0	0	
14	0	0	0	0	511	508	0	0	
15	0	0	0	0	511	507	0	0	
0	0	0	0	0	510	507	0	0	
1	0	0	0	0	510	508	0	0	
2	0	0	0	0	508	508	0	0	
3	0	0	0	0	509	506	0	0	
4	0	0	0	0	508	508	0	0	
5	0	0	0	0	509	508	0	0	
6	0	0	0	0	510	508	0	0	
7	0	0	0	0	508	507	0	0	
8	0	0	0	0	508	507	0	0	
9	0	0	0	0	510	509	0	0	
10	0	0	0	0	513	508	0	0	
11	0	0	0	0	515	508	0	0	
12	0	0	0	0	514	509	0	0	
13	0	0	0	0	514	507	0	0	
14	0	0	0	0	514	509	0	0	
15	0	0	0	0	513	508	0	0	
0	0	0	0	0	513	509	0	0	
1	0	0	0	0	512	509	0	0	
2	0	0	0	0	511	507	0	0	
3	0	0	0	0	512	508	0	0	
4	0	0	0	0	510	508	0	0	
5	0	0	0	0	510	507	0	0	
6	0	0	0	0	508	507	0	0	
7	0	0	0	0	510	509	0	0	
8	0	0	0	0	509	508	0	0	
9	0	0	0	0	508	509	0	0	
10	0	0	0	0	508	507	0	0	
11	0	0	0	0	510	505	0	0	
12	0	0	0	0	509	507	0	0	
13	0	0	0	0	510	509	0	0	
14	0	0	0	0	513	509	0	0	
15	0	0	0	0	512	508	0	0	
0	0	0	0	0	516	510	0	0	
1	0	0	0	0	514	508	0	0	
2	0	0	0	0	514	509	0	0	
3	0	0	0	0	515	508	0	0	
4	0	0	0	0	513	507	0	0	
5	0	0	0	0	511	507	0	0	
6	0	0	0	0	511	508	0	0	
7	0	0	0	0	509	508	0	0	
8	0	0	0	0	509	509	0	0	
9	0	0	0	0	508	508	0	0	
10	0	0	0	0	508	509	0	0	
11	0	0	0	0	507	507	0	0	
12	0	0	0	0	508	508	0	0	
13	0	0	0	0	509	509	0	0	
14	0	0	0	0	510	508	0	0	
15	0	0	0	0	510	507	0	0	
0	0	0	0	0	511	507	0	0	
1	0	0	0	0	510	510	0	0	
2	0	0	0	0	512	508	0	0	
3	0	0	0	0	513	508	0	0	
4	0	0	0	0	512	510	0	0	
5	0	0	0	0	514	508	0	0	
6	0	0	0	0	516	507	0	0	
7	0	0	0	0	513	505	0	0	
8	0	0	0	0	515	508	0	0	
9	0	0	0	0	513	508	0	0	
10	0	0	0	0	512	508	0	0	
11	0	0	0	0	510	509	0	0	
12	0	0	0	0	513	508	0	0	
13	0	0	0	0	511	508	0	0	
14	0	0	0	0	507	508	0	0	
15	0	0	0	0	508	508	0	0	
0	0	0	0	0	508	509	0	0	
1	0	0	0	0	508	507	0	0	
2	0	0	0	0	509	507	0	0	
3	0	0	0	0	510	509	0	0	
4	0	0	0	0	511	508	0	0	
5	0	0	0	0	511	508	0	0	
6	0	0	0	0	511	508	0	0	
7	0	0	0	0	512	507	0	0	
8	0	0	0	0	512	508	0	0	
9	0	0	0	0	513	510	0	0	
10	0	0	0	0	514	507	0	0	
11	0	0	0	0	513	507	0	0	
12	0	0	0	0	511	508	0	0	
13	0	0	0	0	512	506	0	0	
14	0	0	0	0	511	508	0	0	
15	0	0	0	0	511	509	0	0	
0	0	0	0	0	510	507	0	0	
1	0	0	0	0	510	507	0	0	
2	0	0	0	0	510	509	0	0	
3	0	0	0	0	510	510	0	0	
4	0	0	0	0	506	507	0	0	
5	0	0	0	0	508	507	0	0	
6	0	0	0	0	510	508	0	0	
7	0	0	0	0	510	508	0	0	
8	0	0	0	0	511	507	0	0	
9	0	0	0	0	511	508	0	0	
10	0	0	0	0	512	508	0	0	
11	0	0	0	0	511	508	0	0	
12	0	0	0	0	513	509	0	0	
13	0	0	0	0	514	507	0	0	
14	0	0	0	0	514	508	0	0	
15	0	0	0	0	514	506	0	0	
0	0	0	0	0	514	508	0	0	
1	0	0	0	0	512	507	0	0	
2	0	0	0	0	511	507	0	0	
3	0	0	0	0	511	510	0	0	
4	0	0	0	0	509	509	0	0	
5	0	0	0	0	509	509	0	0	
6	0	0	0	0	508	507	0	0	
7	0	0	0	0	507	509	0	0	
8	0	0	0	0	507	508	0	0	
9	0	0	0	0	508	507	0	0	
10	0	0	0	0	510	508	0	0	
11	0	0	0	0	510	505	0	0	
12	0	0	0	0	511	508	0	0	
13	0	0	0	0	511	508	0	0	
14	0	0	0	0	510	510	0	0	
15	0	0	0	0	511	506	0	0	
0	0	0	0	0	511	507	0	0	
1	0	0	0	0	512	508	0	0	
2	0	0	0	0	515	510	0	0	
3	0	0	0	0	514	508	0	0	
4	0	0	0	0	515	508	0	0	
5	0	0	0	0	512	507	0	0	
6	0	0	0	0	512	508	0	0	
7	0	0	0	0	511	506	0	0	
8	0	0	0	0	510	507	0	0	
9	0	0	0	0	513	510	0	0	
10	0	0	0	0	509	508	0	0	
11	0	0	0	0	509	509	0	0	
12	0	0	0	0	508	507	0	0	
13	0	0	0	0	508	508	0	0	
14	0	0	0	0	508	508	0	0	
15	0	0	0	0	508	508	0	0	
0	0	0	0	0	508	508	0	0	
1	0	0	0	0	511	508	0	0	
2	0	0	0	0	511	508	0	0	
3	0	0	0	0	512	508	0	0	
4	0	0	0	0	515	507	0	0	
5	0	0	0	0	515	508	0	0	
6	0	0	0	0	514	508	0	0	
7	0	0	0	0	513	507	0	0	
8	0	0	0	0	512	507	0	0	
9	0	0	0	0	512	509	0	0	
10	0	0	0	0	512	509	0	0	
11	0	0	0	0	511	508	0	0	
12	0	0	0	0	511	505	0	0	
13	0	0	0	0	510	510	0	0	
14	0	0	0	0	507	508	0	0	
15	0	0	0	0	511	508	0	0	
0	0	0	0	0	509	507	0	0	
1	0	0	0	0	508	510	0	0	
2	0	0	0	0	508	506	0	0	
3	0	0	0	0	510	510	0	0	
4	0	0	0	0	511	508	0	0	
5	0	0	0	0	512	509	0	0	
6	0	0	0	0	511	508	0	0	
7	0	0	0	0	512	507	0	0	
8	0	0	0	0	512	508	0	0	
9	0	0	0	0	516	508	0	0	
10	0	0	0	0	515	506	0	0	
11	0	0	0	0	516	508	0	0	
12	0	0	0	0	513	509	0	0	
13	0	0	0	0	512	508	0	0	
14	0	0	0	0	514	506	0	0	
15	0	0	0	0	511	508	0	0	
0	0	0	0	0	508	509	0	0	
1	0	0	0	0	508	506	0	0	
2	0	0	0	0	508	508	0	0	
3	0	0	0	0	508	508	0	0	
4	0	0	0	0	507	508	0	0	
5	0	0	0	0	508	509	0	0	
6	0	0	0	0	510	509	0	0	
7	0	0	0	0	512	508	0	0	
8	0	0	0	0	513	507	0	0	
9	0	0	0	0	512	509	0	0	
10	0	0	0	0	511	508	0	0	
11	0	0	0	0	514	508	0	0	
12	0	0	0	0	514	508	0	0	
13	0	0	0	0	513	509	0	0	
14	0	0	0	0	512	507	0	0	
15	0	0	0	0	515	508	0	0	
0	0	0	0	0	515	508	0	0	
1	0	0	0	0	512	508	0	0	
2	0	0	0	0	511	508	0	0	
3	0	0	0	0	510	508	0	0	
4	0	0	0	0	510	508	0	0	
5	0	0	0	0	508	508	0	0	
6	0	0	0	0	509	509	0	0	
7	0	0	0	0	508	509	0	0	
8	0	0	0	0	507	507	0	0	
9	0	0	0	0	508	508	0	0	
10	0	0	0	0	507	507	0	0	
11	0	0	0	0	510	509	0	0	
12	0	0	0	0	508	509	0	0	
13	0	0	0	0	510	508	0	0	
14	0	0	0	0	509	509	0	0	
15	0	0	0	0	512	509	0	0	
0	0	0	0	0	515	508	0	0	
1	0	0	0	0	514	507	0	0	
2	0	0	0	0	516	508	0	0	
3	0	0	0	0	515	509	0	0	
4	0	0	0	0	514	506	0	0	
5	0	0	0	0	512	507	0	0	
6	0	0	0	0	513	510	0	0	
7	0	0	0	0	511	510	0	0	
8	0	0	0	0	510	509	0	0	
9	0	0	0	0	511	509	0	0	
10	0	0	0	0	509	507	0	0	
11	0	0	0	0	507	508	0	0	
12	0	0	0	0	508	506	0	0	
13	0	0	0	0	510	508	0	0	
14	0	0	0	0	508	508	0	0	
15	0	0	0	0	510	508	0	0	
0	0	0	0	0	509	506	0	0	
1	0	0	0	0	511	508	0	0	
2	0	0	0	0	510	509	0	0	
3	0	0	0	0	511	508	0	0	
4	0	0	0	0	513	507	0	0	
5	0	0	0	0	515	507	0	0	
6	0	0	0	0	515	508	0	0	
7	0	0	0	0	513	509	0	0	
8	0	0	0	0	514	509	0	0	
9	0	0	0	0	516	508	0	0	
10	0	0	0	0	515	509	0	0	
11	0	0	0	0	510	509	0	0	
12	0	0	0	0	511	507	0	0	
13	0	0	0	0	510	508	0	0	
14	0	0	0	0	506	508	0	0	
15	0	0	0	0	507	506	0	0	
0	0	0	0	0	510	507	0	0	
1	0	0	0	0	512	506	0	0	
2	0	0	0	0	512	510	0	0	
3	0	0	0	0	511	507	0	0	
4	0	0	0	0	510	507	0	0	
5	0	0	0	0	509	510	0	0	
6	0	0	0	0	513	510	0	0	
7	0	0	0	0	511	509	0	0	
8	0	0	0	0	512	508	0	0	
9	0	0	0	0	512	508	0	0	
10	0	0	0	0	511	510	0	0	
11	0	0	0	0	511	508	0	0	
12	0	0	0	0	514	509	0	0	
13	0	0	0	0	513	507	0	0	
14	0	0	0	0	516	507	0	0	
15	0	0	0	0	516	508	0	0	
0	0	0	0	0	512	507	0	0	
1	0	0	0	0	511	506	0	0	
2	0	0	0	0	509	507	0	0	
3	0	0	0	0	503	508	0	0	
4	0	0	0	0	499	509	0	0	
5	0	0	0	0	501	508	0	0	
6	0	0	0	0	507	509	0	0	
7	0	0	0	0	509	509	0	0	
8	0	0	0	0	512	508	0	0	
9	0	0	0	0	513	507	0	0	
10	0	0	0	0	515	509	0	0	
11	0	0	0	0	515	507	0	0	
12	0	0	0	0	517	509	0	0	
13	0	0	0	0	515	508	0	0	
14	0	0	0	0	514	508	0	0	
15	0	0	0	0	513	508	0	0	
0	0	0	0	0	512	507	0	0	
1	0	0	0	0	511	507	0	0	
2	0	0	0	0	515	507	0	0	
3	0	0	0	0	515	509	0	0	
4	0	0	0	0	507	508	0	0	
5	0	0	0	0	504	508	0	0	
6	0	0	0	0	505	508	0	0	
7	0	0	0	0	511	511	0	0	
8	0	0	0	0	504	507	0	0	
9	0	0	0	0	499	507	0	0	
10	0	0	0	0	503	507	0	0	
11	0	0	0	0	506	508	0	0	
12	0	0	0	0	508	508	0	0	
13	0	0	0	0	516	510	0	0	
14	0	0	0	0	522	508	0	0	
15	0	0	0	0	534	508	0	0	
0	0	0	0	0	528	509	0	0	
1	0	0	0	0	515	508	0	0	
2	0	0	0	0	513	507	0	0	
3	0	0	0	0	513	507	0	0	
4	0	0	0	0	514	506	0	0	
5	0	0	0	0	508	508	0	0	
6	0	0	0	0	505	509	0	0	
7	0	0	0	0	508	507	0	0	
8	0	0	0	0	511	508	0	0	
9	0	0	0	0	509	508	0	0	
10	0	0	0	0	508	509	0	0	
11	0	0	0	0	499	509	0	0	
12	0	0	0	0	505	508	0	0	
13	0	0	0	0	508	508	0	0	
14	0	0	0	0	508	508	0	0	
15	0	0	0	0	503	508	0	0	
0	0	0	0	0	507	509	0	0	
1	0	0	0	0	511	508	0	0	
2	0	0	0	0	511	508	0	0	
3	0	0	0	0	514	509	0	0	
4	0	0	0	0	513	509	0	0	
5	0	0	0	0	514	509	0	0	
6	0	0	0	0	516	506	0	0	
7	0	0	0	0	516	507	0	0	
8	0	0	0	0	514	507	0	0	
9	0	0	0	0	506	506	0	0	
10	0	0	0	0	511	508	0	0	
11	0	0	0	0	512	507	0	0	
12	0	0	0	0	512	507	0	0	
13	0	0	0	0	508	506	0	0	
14	0	0	0	0	506	508	0	0	
15	0	0	0	0	516	509	0	0	
0	0	0	0	0	507	510	0	0	
1	0	0	0	0	499	508	0	0	
2	0	0	0	0	497	504	0	0	
3	0	0	0	0	506	508	0	0	
4	0	0	0	0	508	506	0	0	
5	0	0	0	0	518	506	0	0	
6	0	0	0	0	521	505	0	0	
7	0	0	0	0	512	507	0	0	
8	0	0	0	0	523	509	0	0	
9	0	0	0	0	527	508	0	0	
10	0	0	0	0	524	509	0	0	
11	0	0	0	0	512	510	0	0	
12	0	0	0	0	505	510	0	0	
13	0	0	0	0	513	508	0	0	
14	0	0	0	0	512	507	0	0	
15	0	0	0	0	513	507	0	0	
0	0	0	0	0	508	506	0	0	
1	0	0	0	0	518	510	0	0	
2	0	0	0	0	506	508	0	0	
3	0	0	0	0	502	509	0	0	
4	0	0	0	0	505	508	0	0	
5	0	0	0	0	505	508	0	0	
6	0	0	0	0	501	508	0	0	
7	0	0	0	0	505	507	0	0	
8	0	0	0	0	521	508	0	0	
9	0	0	0	0	518	508	0	0	
10	0	0	0	0	514	507	0	0	
11	0	0	0	0	513	509	0	0	
12	0	0	0	0	511	508	0	0	
13	0	0	0	0	510	508	0	0	
14	0	0	0	0	504	510	0	0	
15	0	0	0	0	503	508	0	0	
0	0	0	0	0	506	509	0	0	
1	0	0	0	0	506	507	0	0	
2	0	0	0	0	505	506	0	0	
3	0	0	0	0	503	508	0	0	
4	0	0	0	0	511	508	0	0	
5	0	0	0	0	511	508	0	0	
6	0	0	0	0	512	506	0	0	
7	0	0	0	0	505	504	0	0	
8	0	0	0	0	506	508	0	0	
9	0	0	0	0	519	509	0	0	
10	0	0	0	0	521	508	0	0	
11	0	0	0	0	518	507	0	0	
12	0	0	0	0	527	506	0	0	
13	0	0	0	0	516	507	0	0	
14	0	0	0	0	507	508	0	0	
15	0	0	0	0	521	509	0	0	
0	0	0	0	0	521	508	0	0	
1	0	0	0	0	508	508	0	0	
2	0	0	0	0	525	510	0	0	
3	0	0	0	0	527	513	0	0	
4	0	0	0	0	521	512	0	0	
5	0	0	0	0	517	508	0	0	
6	0	0	0	0	497	509	0	0	
7	0	0	0	0	490	506	0	0	
8	0	0	0	0	491	505	0	0	
9	0	0	0	0	486	506	0	0	
10	0	0	0	0	485	508	0	0	
11	0	0	0	0	484	504	0	0	
12	0	0	0	0	499	505	0	0	
13	0	0	0	0	532	508	0	0	
14	0	0	0	0	533	508	0	0	
15	0	0	0	0	526	508	0	0	
0	0	0	0	0	536	511	0	0	
1	0	0	0	0	514	512	0	0	
2	0	0	0	0	516	509	0	0	
3	0	0	0	0	510	507	0	0	
4	0	0	0	0	528	508	0	0	
5	0	0	0	0	519	505	0	0	
6	0	0	0	0	520	505	0	0	
7	0	0	0	0	527	509	0	0	
8	0	0	0	0	520	509	0	0	
9	0	0	0	0	509	511	0	0	
10	0	0	0	0	511	509	0	0	
11	0	0	0	0	504	506	0	0	
12	0	0	0	0	495	507	0	0	
13	0	0	0	0	497	507	0	0	
14	0	0	0	0	499	505	0	0	
15	0	0	0	0	512	506	0	0	
0	0	0	0	0	515	509	0	0	
1	0	0	0	0	507	510	0	0	
2	0	0	0	0	519	511	0	0	
3	0	0	0	0	511	507	0	0	
4	0	0	0	0	504	507	0	0	
5	0	0	0	0	500	504	0	0	
6	0	0	0	0	501	504	0	0	
7	0	0	0	0	503	507	0	0	
8	0	0	0	0	515	509	0	0	
9	0	0	0	0	510	510	0	0	
10	0	0	0	0	507	510	0	0	
11	0	0	0	0	510	509	0	0	
12	0	0	0	0	509	509	0	0	
13	0	0	0	0	507	506	0	0	
14	0	0	0	0	529	509	0	0	
15	0	0	0	0	516	507	0	0	
0	0	0	0	0	513	507	0	0	
1	0	0	0	0	518	507	0	0	
2	0	0	0	0	513	509	0	0	
3	0	0	0	0	511	508	0	0	
4	0	0	0	0	511	509	0	0	
5	0	0	0	0	508	510	0	0	
6	0	0	0	0	505	509	0	0	
7	0	0	0	0	503	509	0	0	
8	0	0	0	0	506	509	0	0	
9	0	0	0	0	502	508	0	0	
10	0	0	0	0	504	506	0	0	
11	0	0	0	0	499	508	0	0	
12	0	0	0	0	500	506	0	0	
13	0	0	0	0	504	505	0	0	
14	0	0	0	0	511	505	0	0	
15	0	0	0	0	518	505	0	0	
0	0	0	0	0	529	508	0	0	
1	0	0	0	0	547	511	0	0	
2	0	0	0	0	525	511	0	0	
3	0	0	0	0	504	513	0	0	
4	0	0	0	0	512	512	1	0	
5	0	0	0	0	523	510	7	0	
6	0	0	0	0	518	504	8	0	
7	0	0	0	0	510	505	8	0	
8	0	0	0	0	505	505	9	0	
9	0	0	0	0	495	501	6	0	
10	0	0	0	0	492	505	11	0	
11	0	0	0	0	494	512	32	0	
12	0	0	0	0	497	515	33	0	
13	0	0	0	0	504	516	33	0	
14	0	0	0	0	514	512	35	0	
15	0	0	0	0	522	511	36	0	
0	0	0	0	0	534	509	36	0	
1	0	0	0	0	539	504	38	0	
2	0	0	0	0	538	506	35	0	
3	0	0	0	0	516	502	34	0	
4	0	0	0	0	504	500	38	0	
5	0	0	0	0	501	511	38	0	
6	0	0	0	0	499	516	38	0	
7	0	0	0	0	503	513	39	0	
8	0	0	0	0	507	512	39	0	
9	0	0	0	0	508	509	44	0	
10	0	0	0	0	515	504	45	0	
11	0	0	0	0	519	503	44	0	
12	0	0	0	0	532	502	47	0	
13	0	0	0	0	531	505	54	0	
14	0	0	0	0	508	508	56	0	
15	0	0	0	0	495	510	59	0	
0	0	0	0	0	495	506	58	0	
1	0	0	0	0	497	504	59	0	
2	0	0	0	0	508	507	61	0	
3	0	0	0	0	509	509	61	0	
4	0	0	0	0	507	508	66	0	
5	0	0	0	0	510	508	61	0	
6	0	0	0	0	508	512	56	0	
7	0	0	0	0	514	510	59	0	
8	0	0	0	0	514	508	61	0	
9	0	0	0	0	512	505	63	0	
10	0	0	0	0	514	511	67	0	
11	0	0	0	0	504	507	66	0	
12	0	0	0	0	503	508	69	0	
13	0	0	0	0	513	508	68	0	
14	0	0	0	0	510	504	71	0	
15	0	0	0	0	499	506	70	0	
0	0	0	0	0	500	509	71	0	
1	0	0	0	0	508	511	73	0	
2	0	0	0	0	514	510	69	0	
3	0	0	0	0	514	506	72	0	
4	0	0	0	0	529	512	75	0	
5	0	0	0	0	535	513	76	0	
6	0	0	0	0	526	514	73	0	
7	0	0	0	0	509	510	83	0	
8	0	0	0	0	507	504	76	0	
9	0	0	0	0	504	502	86	0	
10	0	0	0	0	500	504	84	0	
11	0	0	0	0	510	505	86	0	
12	0	0	0	0	515	507	86	0	
13	0	0	0	0	523	509	91	0	
14	0	0	0	0	517	511	95	0	
15	0	0	0	0	513	514	90	0	
0	0	0	0	0	511	509	90	0	
1	0	0	0	0	511	506	94	0	
2	0	0	0	0	505	507	99	0	
3	0	0	0	0	504	508	95	0	
4	0	0	0	0	505	505	96	0	
5	0	0	0	0	507	505	98	0	
6	0	0	0	0	503	505	102	0	
7	0	0	0	0	510	504	104	0	
8	0	0	0	0	502	500	105	0	
9	0	0	0	0	509	504	107	0	
10	0	0	0	0	519	507	110	0	
11	0	0	0	0	516	518	111	0	
12	0	0	0	0	516	513	109	0	
13	0	0	0	0	523	513	109	0	
14	0	0	0	0	522	510	110	0	
15	0	0	0	0	518	508	115	0	
0	0	0	0	0	515	509	114	0	
1	0	0	0	0	512	512	116	0	
2	0	0	0	0	508	508	119	0	
3	0	0	0	0	502	511	120	0	
4	0	0	0	0	495	507	121	0	
5	0	0	0	0	496	500	120	0	
6	0	0	0	0	508	504	123	0	
7	0	0	0	0	508	510	126	0	
8	0	0	0	0	508	504	127	0	
9	0	0	0	0	507	501	127	0	
10	0	0	0	0	507	512	128	0	
11	0	0	0	0	516	515	127	0	
12	0	0	0	0	517	510	128	0	
13	0	0	0	0	510	510	126	0	
14	0	0	0	0	519	507	129	0	
15	0	0	0	0	520	511	130	0	
0	0	0	0	0	518	504	133	0	
1	0	0	0	0	513	500	134	0	
2	0	0	0	0	507	493	135	0	
3	0	0	0	0	507	500	136	0	
4	0	0	0	0	508	513	137	0	
5	0	0	0	0	501	515	138	0	
6	0	0	0	0	508	519	139	0	
7	0	0	0	0	509	508	140	0	
8	0	0	0	0	515	519	136	0	
9	0	0	0	0	515	515	135	0	
10	0	0	0	0	512	510	138	0	
11	0	0	0	0	514	508	139	0	
12	0	0	0	0	525	507	138	0	
13	0	0	0	0	508	504	138	0	
14	0	0	0	0	502	503	138	0	
15	0	0	0	0	508	502	140	0	
0	0	0	0	0	509	499	144	0	
1	0	0	0	0	509	504	145	0	
2	0	0	0	0	505	510	146	0	
3	0	0	0	0	519	513	145	0	
4	0	0	0	0	523	512	147	0	
5	0	0	0	0	520	512	148	0	
6	0	0	0	0	518	510	149	0	
7	0	0	0	0	517	514	171	0	
8	0	0	0	0	510	514	175	0	
9	0	0	0	0	487	508	175	0	
10	0	0	0	0	497	513	178	0	
11	0	0	0	0	501	511	173	0	
12	0	0	0	0	507	509	176	0	
13	0	0	0	0	517	504	177	0	
14	0	0	0	0	527	504	178	0	
15	0	0	0	0	527	503	182	0	
0	0	0	0	0	537	499	182	0	
1	0	0	0	0	525	505	182	0	
2	0	0	0	0	517	503	184	0	
3	0	0	0	0	512	501	187	0	
4	0	0	0	0	493	508	186	0	
5	0	0	0	0	477	515	192	0	
6	0	0	0	0	481	516	191	0	
7	0	0	0	0	500	514	191	0	
8	0	0	0	0	511	509	193	0	
9	0	0	0	0	510	507	196	0	
10	0	0	0	0	512	507	195	0	
11	0	0	0	0	514	506	200	0	
12	0	0	0	0	522	502	203	0	
13	0	0	0	0	515	496	199	0	
14	0	0	0	0	514	490	203	0	
15	0	0	0	0	519	506	206	0	
0	0	0	0	0	519	515	204	0	
1	0	0	0	0	522	512	207	0	
2	0	0	0	0	506	511	208	0	
3	0	0	0	0	511	515	207	0	
4	0	0	0	0	501	519	204	0	
5	0	0	0	0	501	516	210	0	
6	0	0	0	0	504	507	210	0	
7	0	0	0	0	513	506	208	0	
8	0	0	0	0	521	503	208	0	
9	0	0	0	0	522	498	210	0	
10	0	0	0	0	515	504	212	0	
11	0	0	0	0	505	511	215	0	
12	0	0	0	0	492	512	215	0	
13	0	0	0	0	507	512	217	0	
14	0	0	0	0	499	527	215	0	
15	0	0	0	0	512	515	217	0	
0	0	0	0	0	524	515	219	0	
1	0	0	0	0	527	506	222	0	
2	0	0	0	0	521	506	223	0	
3	0	0	0	0	520	505	222	0	
4	0	0	0	0	513	499	223	0	
5	0	0	0	0	514	499	225	0	
6	0	0	0	0	507	503	224	0	
7	0	0	0	0	497	510	223	0	
8	0	0	0	0	499	502	223	0	
9	0	0	0	0	500	497	223	0	
10	0	0	0	0	506	501	224	0	
11	0	0	0	0	521	506	222	0	
12	0	0	0	0	521	503	224	0	
13	0	0	0	0	513	507	227	0	
14	0	0	0	0	511	516	225	0	
15	0	0	0	0	520	525	226	0	
0	0	0	0	0	525	525	226	0	
1	0	0	0	0	527	517	227	0	
2	0	0	0	0	520	512	227	0	
3	0	0	0	0	517	508	230	0	
4	0	0	0	0	513	498	231	0	
5	0	0	0	0	508	491	233	0	
6	0	0	0	0	503	488	229	0	
7	0	0	0	0	501	502	230	0	
8	0	0	0	0	490	508	226	0	
9	0	0	0	0	494	522	229	0	
10	0	0	0	0	500	519	227	0	
11	0	0	0	0	496	509	229	0	
12	0	0	0	0	507	516	231	0	
13	0	0	0	0	512	518	228	0	
14	0	0	0	0	514	504	230	0	
15	0	0	0	0	519	502	233	0	
0	0	0	0	0	518	502	235	0	
1	0	0	0	0	523	514	232	0	
2	0	0	0	0	540	517	236	0	
3	0	0	0	0	522	510	235	0	
4	0	0	0	0	503	513	238	5	
5	0	0	0	0	504	515	235	7	
6	0	0	0	0	495	496	235	9	
7	0	0	0	0	499	495	239	12	
8	0	0	0	0	506	495	241	15	
9	0	0	0	0	502	507	245	16	
10	0	0	0	0	503	518	246	19	
11	0	0	0	0	495	508	248	21	
12	0	0	0	0	506	513	250	22	
13	0	0	0	0	500	515	255	25	
14	0	0	0	0	510	513	254	25	
15	0	0	0	0	514	511	255	25	
0	0	0	0	0	529	500	257	27	
1	0	0	0	0	536	494	261	28	
2	0	0	0	0	538	507	265	30	
3	0	0	0	0	515	510	268	33	
4	0	0	0	0	502	509	264	32	
5	0	0	0	0	505	515	260	35	
6	0	0	0	0	514	513	262	37	
7	0	0	0	0	504	506	265	41	
8	0	0	0	0	493	500	267	43	
9	0	0	0	0	512	508	267	47	
10	0	0	0	0	521	513	271	48	
11	0	0	0	0	510	514	271	55	
12	0	0	0	0	510	508	268	60	
13	0	0	0	0	510	501	270	61	
14	0	0	0	0	515	497	272	59	
15	0	0	0	0	526	492	274	65	
0	0	0	0	0	512	497	272	60	
1	0	0	0	0	502	506	276	61	
2	0	0	0	0	513	520	283	65	
3	0	0	0	0	522	526	276	64	
4	0	0	0	0	512	526	276	65	
5	0	0	0	0	497	515	281	70	
6	0	0	0	0	487	501	282	69	
7	0	0	0	0	496	501	287	71	
8	0	0	0	0	514	506	289	73	
9	0	0	0	0	512	506	293	73	
10	0	0	0	0	520	512	290	77	
11	0	0	0	0	511	519	289	85	
12	0	0	0	0	510	512	298	84	
13	0	0	0	0	512	502	299	88	
14	0	0	0	0	509	502	296	89	
15	0	0	0	0	514	508	296	88	
0	0	0	0	0	521	505	299	92	
1	0	0	0	0	504	497	301	97	
2	0	0	0	0	511	507	301	98	
3	0	0	0	0	520	518	300	103	
4	0	0	0	0	513	512	306	108	
5	0	0	0	0	509	506	304	113	
6	0	0	0	0	508	499	309	118	
7	0	0	0	0	516	494	313	113	
8	0	0	0	0	508	491	315	112	
9	0	0	0	0	511	512	313	111	
10	0	0	0	0	513	528	316	114	
11	0	0	0	0	516	527	321	112	
12	0	0	0	0	517	511	320	112	
13	0	0	0	0	527	511	321	117	
14	0	0	0	0	511	521	324	124	
15	0	0	0	0	508	510	327	126	
0	0	0	0	0	504	484	330	131	
1	0	0	0	0	505	486	330	135	
2	0	0	0	0	503	508	329	139	
3	0	0	0	0	507	508	337	142	
4	0	0	0	0	524	519	338	144	
5	0	0	0	0	521	510	338	153	
6	0	0	0	0	524	507	339	158	
7	0	0	0	0	507	512	340	172	
8	0	0	0	0	507	506	341	182	
9	0	0	0	0	508	500	341	185	
10	0	0	0	0	504	492	342	184	
11	0	0	0	0	507	497	344	188	
12	0	0	0	0	506	511	342	191	
13	0	0	0	0	510	512	343	200	
14	0	0	0	0	504	523	343	199	
15	0	0	0	0	499	535	345	204	
0	0	0	0	0	505	519	346	204	
1	0	0	0	0	518	496	346	203	
2	0	0	0	0	531	492	347	209	
3	0	0	0	0	519	497	346	228	
4	0	0	0	0	505	494	346	229	
5	0	0	0	0	504	497	348	229	
6	0	0	0	0	512	519	350	266	
7	0	0	0	0	516	525	354	271	
8	0	0	0	0	509	525	352	271	
9	0	0	0	0	505	525	354	276	
10	0	0	0	0	509	510	354	272	
11	0	0	0	0	508	483	355	272	
12	0	0	0	0	513	483	356	276	
13	0	0	0	0	523	480	359	276	
14	0	0	0	0	514	491	360	276	
15	0	0	0	0	512	537	362	278	
0	0	0	0	0	510	539	362	282	
1	0	0	0	0	501	527	361	280	
2	0	0	0	0	512	520	363	283	
3	0	0	0	0	515	511	363	285	
4	0	0	0	0	508	492	364	283	
5	0	0	0	0	504	507	366	284	
6	0	0	0	0	516	518	369	287	
7	0	0	0	0	514	507	369	286	
8	0	0	0	0	527	504	368	286	
9	0	0	0	0	519	507	369	285	
10	0	0	0	0	521	508	371	284	
11	0	0	0	0	510	502	373	287	
12	0	0	0	0	501	484	373	291	
13	0	0	0	0	509	487	376	293	
14	0	0	0	0	499	518	379	292	
15	0	0	0	0	491	529	381	292	
0	0	0	0	0	494	521	377	294	
1	0	0	0	0	502	511	380	295	
2	0	0	0	0	507	509	383	296	
3	0	0	0	0	537	509	385	298	
4	0	0	0	0	527	503	386	299	
5	0	0	0	0	509	485	387	298	
6	0	0	0	0	518	507	385	301	
7	0	0	0	0	521	507	384	303	
8	0	0	0	0	508	509	384	294	
9	0	0	0	0	507	518	387	299	
10	0	0	0	0	502	521	386	303	
11	0	0	0	0	509	528	388	303	
12	0	0	0	0	523	511	389	305	
13	0	0	0	0	523	500	389	308	
14	0	0	0	0	528	487	391	310	
15	0	0	0	0	512	512	393	311	
0	0	0	0	0	504	523	393	313	
1	0	0	0	0	506	510	396	318	
2	0	0	0	0	509	508	397	319	
3	0	0	0	0	492	508	404	321	
4	0	0	0	0	484	503	406	327	
5	0	0	0	0	490	490	408	328	
6	0	0	0	0	500	494	409	329	
7	0	0	0	0	531	495	411	329	
8	0	0	0	0	540	502	411	340	
9	0	0	0	0	525	492	412	342	
10	0	0	0	0	510	517	414	342	
11	0	0	0	0	502	535	416	345	
12	0	0	0	0	508	525	419	346	
13	0	0	0	0	506	508	424	348	
14	0	0	0	0	511	504	425	348	
15	0	0	0	0	514	515	427	349	
0	0	0	0	0	494	519	427	352	
1	0	0	0	0	498	514	428	353	
2	0	0	0	0	508	498	431	356	
3	0	0	0	0	512	505	432	357	
4	0	0	0	0	520	513	432	357	
5	0	0	0	0	516	509	433	359	
6	0	0	0	0	500	498	434	362	
7	0	0	0	0	488	503	434	364	
8	0	0	0	0	498	513	437	368	
9	0	0	0	0	523	507	437	369	
10	0	0	0	0	537	511	439	366	
11	0	0	0	0	551	496	440	368	
12	0	0	0	0	539	492	440	370	
13	0	0	0	0	526	525	443	371	
14	0	0	0	0	494	532	446	376	
15	0	0	0	0	495	499	448	385	
0	0	0	0	0	497	487	450	387	
1	0	0	0	0	507	484	451	390	
2	0	0	0	0	524	504	452	392	
3	0	0	0	0	521	505	453	403	
4	0	0	0	0	492	513	455	403	
5	0	0	0	0	502	537	457	401	
6	0	0	0	0	504	519	457	403	
7	0	0	0	0	526	509	458	403	
8	0	0	0	0	512	505	458	407	
9	0	0	0	0	501	501	461	409	
10	0	0	0	0	490	510	462	409	
11	0	0	0	0	492	510	462	409	
12	0	0	0	0	504	503	462	411	
13	0	0	0	0	504	509	464	408	
14	0	0	0	0	508	516	464	409	
15	0	0	0	0	531	513	465	408	
0	0	0	0	0	535	505	465	408	
1	0	0	0	0	523	504	467	409	
2	0	0	0	0	521	504	468	411	
3	0	0	0	0	529	496	470	412	
4	0	0	0	0	528	494	471	416	
5	0	0	0	0	507	509	470	418	
6	0	0	0	0	496	519	469	416	
7	0	0	0	0	503	533	469	419	
8	0	0	0	0	523	514	471	417	
9	0	0	0	0	515	510	472	418	
10	0	0	0	0	509	502	472	422	
11	0	0	0	0	515	497	470	424	
12	0	0	0	0	514	504	471	424	
13	0	0	0	0	501	510	474	425	
14	0	0	0	0	511	516	473	425	
15	0	0	0	0	509	506	472	419	
0	0	0	0	0	508	503	475	419	
1	0	0	0	0	504	503	476	417	
2	0	0	0	0	509	502	476	417	
3	0	0	0	0	515	512	477	414	
4	0	0	0	0	511	516	479	412	
5	0	0	0	0	508	515	479	408	
6	0	0	0	0	504	496	479	406	
7	0	0	0	0	500	500	479	408	
8	0	0	0	0	488	505	480	408	
9	0	0	0	0	501	507	481	410	
10	0	0	0	0	499	512	481	412	
11	0	0	0	0	499	510	483	415	
12	0	0	0	0	501	509	484	419	
13	0	0	0	0	516	504	484	418	
14	0	0	0	0	512	511	485	420	
15	0	0	0	0	530	513	485	416	
0	0	0	0	0	534	501	487	415	
1	0	0	0	0	524	503	488	418	
2	0	0	0	0	513	511	491	420	
3	0	0	0	0	522	506	491	419	
4	0	0	0	0	524	490	491	423	
5	0	0	0	0	518	504	491	424	
6	0	0	0	0	508	534	492	431	
7	0	0	0	0	497	522	492	430	
8	0	0	0	0	502	510	493	432	
9	0	0	0	0	506	511	493	433	
10	0	0	0	0	497	511	493	435	
11	0	0	0	0	498	504	494	438	
12	0	0	0	0	522	511	494	434	
13	0	0	0	0	542	497	495	433	
14	0	0	0	0	518	475	495	434	
15	0	0	0	0	495	481	495	432	
0	0	0	0	0	498	509	495	432	
1	0	0	0	0	510	530	496	431	
2	0	0	0	0	515	521	496	433	
3	0	0	0	0	521	528	496	434	
4	0	0	0	0	525	540	496	438	
5	0	0	0	0	544	530	497	437	
6	0	0	0	0	512	503	497	436	
7	0	0	0	0	501	489	496	433	
8	0	0	0	0	507	499	497	432	
9	0	0	0	0	514	507	498	431	
10	0	0	0	0	499	506	499	431	
11	0	0	0	0	488	502	500	432	
12	0	0	0	0	499	527	502	446	
13	0	0	0	0	500	501	504	449	
14	0	0	0	0	504	490	503	452	
15	0	0	0	0	521	498	503	454	
0	0	0	0	0	532	518	504	455	
1	0	0	0	0	525	496	502	455	
2	0	0	0	0	518	507	503	453	
3	0	0	0	0	527	514	504	455	
4	0	0	0	0	524	510	502	455	
5	0	0	0	0	540	510	503	455	
6	0	0	0	0	514	513	505	455	
7	0	0	0	0	511	508	506	455	
8	0	0	0	0	505	508	506	456	
9	0	0	0	0	496	516	506	457	
10	0	0	0	0	476	515	507	459	
11	0	0	0	0	478	505	508	459	
12	0	0	0	0	506	508	507	460	
13	0	0	0	0	512	507	508	462	
14	0	0	0	0	510	499	508	465	
15	0	0	0	0	511	508	508	465	
0	0	0	0	0	504	484	508	464	
1	0	0	0	0	503	504	509	464	
2	0	0	0	0	508	509	509	464	
3	0	0	0	0	504	512	508	465	
4	0	0	0	0	517	528	507	462	
5	0	0	0	0	531	514	508	462	
6	0	0	0	0	503	502	508	463	
7	0	0	0	0	516	505	509	463	
8	0	0	0	0	532	536	509	463	
9	0	0	0	0	515	507	509	465	
10	0	0	0	0	504	486	509	465	
11	0	0	0	0	484	491	509	467	
12	0	0	0	0	504	501	508	468	
13	0	0	0	0	519	506	508	467	
14	0	0	0	0	528	507	509	468	
15	0	0	0	0	506	508	510	469	
0	0	0	0	0	503	514	510	469	
1	0	0	0	0	517	511	511	472	
2	0	0	0	0	509	512	512	471	
3	0	0	0	0	507	503	512	472	
4	0	0	0	0	517	493	513	472	
5	0	0	0	0	527	500	513	475	
6	0	0	0	0	525	514	514	478	
7	0	0	0	0	523	521	515	479	
8	0	0	0	0	500	526	515	479	
9	0	0	0	0	500	524	516	479	
10	0	0	0	0	525	511	516	479	
11	0	0	0	0	534	500	518	480	
12	0	0	0	0	504	502	518	481	
13	0	0	0	0	497	512	518	483	
14	0	0	0	0	508	512	519	483	
15	0	0	0	0	515	507	518	484	
0	0	0	0	0	515	507	518	486	
1	0	0	0	0	505	500	520	488	
2	0	0	0	0	515	491	520	489	
3	0	0	0	0	527	485	521	490	
4	0	0	0	0	515	506	521	489	
5	0	0	0	0	503	536	522	487	
6	0	0	0	0	502	552	522	487	
7	0	0	0	0	503	498	523	486	
8	0	0	0	0	497	472	524	484	
9	0	0	0	0	503	489	525	484	
10	0	0	0	0	500	502	524	487	
11	0	0	0	0	498	511	523	489	
12	0	0	0	0	497	529	524	489	
13	0	0	0	0	505	511	523	489	
14	0	0	0	0	519	509	524	489	
15	0	0	0	0	499	524	525	488	
0	0	0	0	0	511	541	526	488	
1	0	0	0	0	530	510	525	489	
2	0	0	0	0	519	490	527	491	
3	0	0	0	0	514	490	527	491	
4	0	0	0	0	527	491	529	493	
5	0	0	0	0	529	492	529	491	
6	0	0	0	0	532	514	529	491	
7	0	0	0	0	508	512	528	490	
8	0	0	0	0	503	523	529	489	
9	0	0	0	0	504	512	530	490	
10	0	0	0	0	503	500	532	491	
11	0	0	0	0	505	502	532	492	
12	0	0	0	0	502	503	533	491	
13	0	0	0	0	504	510	536	490	
14	0	0	0	0	504	517	536	490	
15	0	0	0	0	510	511	537	491	
0	0	0	0	0	524	513	536	491	
1	0	0	0	0	517	506	536	492	
2	0	0	0	0	510	493	537	494	
3	0	0	0	0	510	500	537	493	
4	0	0	0	0	500	505	538	492	
5	0	0	0	0	505	511	538	491	
6	0	0	0	0	520	511	538	492	
7	0	0	0	0	518	516	537	494	
8	0	0	0	0	507	524	539	494	
9	0	0	0	0	534	523	539	495	
10	0	0	0	0	524	510	541	495	
11	0	0	0	0	515	509	542	497	
12	0	0	0	0	527	499	542	497	
13	0	0	0	0	519	494	542	496	
14	0	0	0	0	501	500	542	497	
15	0	0	0	0	498	507	543	498	
0	0	0	0	0	509	513	543	497	
1	0	0	0	0	499	515	544	498	
2	0	0	0	0	502	517	544	497	
3	0	0	0	0	515	514	545	498	
4	0	0	0	0	522	498	548	498	
5	0	0	0	0	512	507	548	499	
6	0	0	0	0	499	506	548	499	
7	0	0	0	0	495	502	548	496	
8	0	0	0	0	523	515	548	499	
9	0	0	0	0	554	511	549	499	
10	0	0	0	0	538	502	548	498	
11	0	0	0	0	487	505	548	499	
12	0	0	0	0	467	507	549	500	
13	0	0	0	0	481	510	550	499	
14	0	0	0	0	504	507	549	499	
15	0	0	0	0	503	507	550	499	
0	0	0	0	0	515	515	550	500	
1	0	0	0	0	523	497	550	500	
2	0	0	0	0	525	494	551	499	
3	0	0	0	0	517	508	550	502	
4	0	0	0	0	537	519	551	502	
5	0	0	0	0	511	521	551	502	
6	0	0	0	0	497	525	551	504	
7	0	0	0	0	504	511	551	505	
8	0	0	0	0	511	500	551	504	
9	0	0	0	0	485	481	550	505	
10	0	0	0	0	515	487	551	506	
11	0	0	0	0	511	516	550	506	
12	0	0	0	0	520	531	551	506	
13	0	0	0	0	511	528	551	506	
14	0	0	0	0	513	502	552	505	
15	0	0	0	0	518	493	553	508	
0	0	0	0	0	518	503	553	508	
1	0	0	0	0	505	504	553	508	
2	0	0	0	0	502	515	554	508	
3	0	0	0	0	508	514	555	507	
4	0	0	0	0	510	508	554	507	
5	0	0	0	0	508	503	554	506	
6	0	0	0	0	510	518	555	507	
7	0	0	0	0	510	517	555	506	
8	0	0	0	0	506	507	555	508	
9	0	0	0	0	503	496	555	508	
10	0	0	0	0	500	509	555	505	
11	0	0	0	0	516	511	556	506	
12	0	0	0	0	529	515	556	507	
13	0	0	0	0	520	505	556	508	
14	0	0	0	0	537	498	556	508	
15	0	0	0	0	518	508	557	508	
0	0	0	0	0	527	508	556	508	
1	0	0	0	0	520	504	557	510	
2	0	0	0	0	503	506	556	510	
3	0	0	0	0	507	500	557	508	
4	0	0	0	0	504	505	558	508	
5	0	0	0	0	501	512	559	508	
6	0	0	0	0	502	516	560	508	
7	0	0	0	0	500	509	560	508	
8	0	0	0	0	499	505	559	507	
9	0	0	0	0	505	510	559	506	
10	0	0	0	0	520	509	560	507	
11	0	0	0	0	525	512	560	506	
12	0	0	0	0	520	512	561	508	
13	0	0	0	0	506	501	560	508	
14	0	0	0	0	515	501	560	508	
15	0	0	0	0	515	500	560	508	
0	0	0	0	0	503	490	560	507	
1	0	0	0	0	500	511	561	507	
2	0	0	0	0	504	521	561	506	
3	0	0	0	0	499	528	561	505	
4	0	0	0	0	508	527	563	507	
5	0	0	0	0	515	510	564	506	
6	0	0	0	0	520	497	564	507	
7	0	0	0	0	515	488	564	507	
8	0	0	0	0	512	505	565	507	
9	0	0	0	0	508	516	566	508	
10	0	0	0	0	515	512	566	509	
11	0	0	0	0	519	517	566	508	
12	0	0	0	0	513	501	565	507	
13	0	0	0	0	504	492	565	507	
14	0	0	0	0	497	500	566	508	
15	0	0	0	0	496	517	567	509	
0	0	0	0	0	498	524	567	508	
1	0	0	0	0	512	504	567	509	
2	0	0	0	0	508	492	567	508	
3	0	0	0	0	507	511	566	509	
4	0	0	0	0	513	520	567	510	
5	0	0	0	0	528	518	567	511	
6	0	0	0	0	531	508	566	510	
7	0	0	0	0	518	509	567	510	
8	0	0	0	0	514	510	566	509	
9	0	0	0	0	517	500	568	509	
10	0	0	0	0	520	500	568	509	
11	0	0	0	0	524	502	568	510	
12	0	0	0	0	524	515	568	510	
13	0	0	0	0	505	509	568	510	
14	0	0	0	0	497	511	568	510	
15	0	0	0	0	497	515	568	510	
0	0	0	0	0	500	502	568	510	
1	0	0	0	0	502	505	568	509	
2	0	0	0	0	519	503	569	509	
3	0	0	0	0	531	507	568	509	
4	0	0	0	0	525	507	568	510	
5	0	0	0	0	513	513	568	509	
6	0	0	0	0	500	499	568	509	
7	0	0	0	0	490	496	569	509	
8	0	0	0	0	494	510	569	510	
9	0	0	0	0	509	527	569	510	
10	0	0	0	0	513	517	569	511	
11	0	0	0	0	536	497	569	510	
12	0	0	0	0	524	500	569	512	
13	0	0	0	0	498	492	569	512	
14	0	0	0	0	512	505	569	512	
15	0	0	0	0	521	524	569	511	
0	0	0	0	0	515	527	569	511	
1	0	0	0	0	512	510	568	512	
2	0	0	0	0	501	501	568	513	
3	0	0	0	0	515	503	569	512	
4	0	0	0	0	510	504	568	514	
5	0	0	0	0	504	494	568	513	
6	0	0	0	0	510	494	569	513	
7	0	0	0	0	516	525	569	513	
8	0	0	0	0	510	521	568	512	
9	0	0	0	0	506	506	569	511	
10	0	0	0	0	507	511	570	512	
11	0	0	0	0	504	517	570	512	
12	0	0	0	0	505	508	569	512	
13	0	0	0	0	506	492	569	512	
14	0	0	0	0	507	515	570	512	
15	0	0	0	0	512	518	570	512	
0	0	0	0	0	512	519	569	513	
1	0	0	0	0	516	506	569	513	
2	0	0	0	0	510	502	570	514	
3	0	0	0	0	511	507	569	514	
4	0	0	0	0	516	510	570	513	
5	0	0	0	0	519	510	569	513	
6	0	0	0	0	509	501	570	513	
7	0	0	0	0	511	510	570	512	
8	0	0	0	0	508	512	571	512	
9	0	0	0	0	507	510	571	513	
10	0	0	0	0	510	500	570	513	
11	0	0	0	0	496	495	571	513	
12	0	0	0	0	506	509	571	514	
13	0	0	0	0	493	503	571	514	
14	0	0	0	0	488	498	571	513	
15	0	0	0	0	508	517	570	513	
0	0	0	0	0	521	524	571	515	
1	0	0	0	0	538	506	571	514	
2	0	0	0	0	552	492	571	514	
3	0	0	0	0	543	503	571	515	
4	0	0	0	0	521	505	570	515	
5	0	0	0	0	510	500	571	515	
6	0	0	0	0	501	502	571	515	
7	0	0	0	0	499	510	570	515	
8	0	0	0	0	514	519	571	516	
9	0	0	0	0	516	525	571	515	
10	0	0	0	0	495	521	571	514	
11	0	0	0	0	485	502	571	514	
12	0	0	0	0	497	507	571	513	
13	0	0	0	0	497	507	571	514	
14	0	0	0	0	500	508	571	514	
15	0	0	0	0	502	514	571	514	
0	0	0	0	0	519	502	571	515	
1	0	0	0	0	555	493	571	514	
2	0	0	0	0	561	497	571	514	
3	0	0	0	0	522	504	571	512	
4	0	0	0	0	507	526	572	513	
5	0	0	0	0	504	516	571	512	
6	0	0	0	0	495	492	570	513	
7	0	0	0	0	507	502	570	513	
8	0	0	0	0	503	525	571	513	
9	0	0	0	0	504	532	571	513	
10	0	0	0	0	511	524	571	513	
11	0	0	0	0	513	499	571	512	
12	0	0	0	0	510	493	571	512	
13	0	0	0	0	513	503	572	513	
14	0	0	0	0	505	519	572	513	
15	0	0	0	0	494	525	571	512	
0	0	0	0	0	511	509	571	511	
1	0	0	0	0	518	500	572	512	
2	0	0	0	0	527	501	571	512	
3	0	0	0	0	528	498	572	513	
4	0	0	0	0	521	499	572	512	
5	0	0	0	0	503	501	572	513	
6	0	0	0	0	506	510	573	512	
7	0	0	0	0	510	509	572	512	
8	0	0	0	0	510	509	572	512	
9	0	0	0	0	512	509	572	512	
10	0	0	0	0	503	515	572	512	
11	0	0	0	0	504	520	572	509	
12	0	0	0	0	494	501	572	510	
13	0	0	0	0	503	492	572	509	
14	0	0	0	0	494	510	573	508	
15	0	0	0	0	496	514	572	508	
0	0	0	0	0	521	496	572	508	
1	0	0	0	0	527	505	572	508	
2	0	0	0	0	524	511	571	508	
3	0	0	0	0	526	514	572	509	
4	0	0	0	0	524	514	572	508	
5	0	0	0	0	508	513	573	509	
6	0	0	0	0	502	505	572	510	
7	0	0	0	0	502	493	572	509	
8	0	0	0	0	511	508	572	508	
9	0	0	0	0	498	518	572	508	
10	0	0	0	0	503	504	572	508	
11	0	0	0	0	518	492	572	508	
12	0	0	0	0	532	500	574	507	
13	0	0	0	0	528	536	572	508	
14	0	0	0	0	498	526	572	508	
15	0	0	0	0	497	498	572	507	
0	0	0	0	0	512	507	572	508	
1	0	0	0	0	514	515	572	507	
2	0	0	0	0	494	504	573	508	
3	0	0	0	0	502	489	573	508	
4	0	0	0	0	518	511	572	508	
5	0	0	0	0	524	505	573	507	
6	0	0	0	0	519	506	572	508	
7	0	0	0	0	519	509	573	508	
8	0	0	0	0	519	495	573	507	
9	0	0	0	0	504	486	573	507	
10	0	0	0	0	504	521	572	507	
11	0	0	0	0	502	532	573	506	
12	0	0	0	0	493	525	572	505	
13	0	0	0	0	492	520	572	507	
14	0	0	0	0	497	519	573	507	
15	0	0	0	0	508	502	573	507	
0	0	0	0	0	534	492	573	506	
1	0	0	0	0	537	497	572	507	
2	0	0	0	0	526	503	573	507	
3	0	0	0	0	521	503	573	505	
4	0	0	0	0	509	503	573	505	
5	0	0	0	0	508	514	573	505	
6	0	0	0	0	512	518	573	505	
7	0	0	0	0	520	518	573	504	
8	0	0	0	0	516	507	574	505	
9	0	0	0	0	514	498	574	505	
10	0	0	0	0	515	499	574	505	
11	0	0	0	0	499	506	575	505	
12	0	0	0	0	494	514	574	505	
13	0	0	0	0	496	511	574	505	
14	0	0	0	0	505	508	574	504	
15	0	0	0	0	516	505	574	505	
0	0	0	0	0	505	510	575	505	
1	0	0	0	0	497	509	574	504	
2	0	0	0	0	513	514	574	504	
3	0	0	0	0	525	520	574	504	
4	0	0	0	0	511	507	574	504	
5	0	0	0	0	504	496	575	504	
6	0	0	0	0	516	501	574	505	
7	0	0	0	0	540	520	574	503	
8	0	0	0	0	518	511	575	504	
9	0	0	0	0	520	509	575	504	
10	0	0	0	0	508	512	575	504	
11	0	0	0	0	502	512	575	504	
12	0	0	0	0	499	507	576	504	
13	0	0	0	0	497	508	575	504	
14	0	0	0	0	496	504	575	504	
15	0	0	0	0	505	503	575	504	
0	0	0	0	0	503	496	576	503	
1	0	0	0	0	512	499	576	504	
2	0	0	0	0	510	500	576	503	
3	0	0	0	0	526	508	576	502	
4	0	0	0	0	519	502	577	500	
5	0	0	0	0	514	515	577	500	
6	0	0	0	0	524	517	576	500	
7	0	0	0	0	515	511	576	500	
8	0	0	0	0	500	506	576	501	
9	0	0	0	0	503	505	576	501	
10	0	0	0	0	512	508	576	501	
11	0	0	0	0	514	511	576	500	
12	0	0	0	0	514	512	576	500	
13	0	0	0	0	512	499	576	501	
14	0	0	0	0	512	499	576	500	
15	0	0	0	0	518	515	575	499	
0	0	0	0	0	525	519	575	501	
1	0	0	0	0	513	506	576	501	
2	0	0	0	0	509	513	575	500	
3	0	0	0	0	512	515	575	500	
4	0	0	0	0	508	514	576	500	
5	0	0	0	0	509	503	575	499	
6	0	0	0	0	516	509	575	500	
7	0	0	0	0	508	509	575	498	
8	0	0	0	0	500	493	575	499	
9	0	0	0	0	500	504	575	500	
10	0	0	0	0	508	518	575	498	
11	0	0	0	0	519	514	575	497	
12	0	0	0	0	517	499	575	499	
13	0	0	0	0	514	492	575	499	
14	0	0	0	0	507	510	575	498	
15	0	0	0	0	505	522	575	499	
0	0	0	0	0	507	524	574	498	
1	0	0	0	0	515	511	575	499	
2	0	0	0	0	518	506	575	497	
3	0	0	0	0	531	510	574	496	
4	0	0	0	0	526	507	574	496	
5	0	0	0	0	495	493	575	496	
6	0	0	0	0	496	491	574	496	
7	0	0	0	0	498	509	574	497	
8	0	0	0	0	510	524	574	492	
9	0	0	0	0	508	512	574	493	
10	0	0	0	0	496	501	572	491	
11	0	0	0	0	522	508	573	491	
12	0	0	0	0	536	504	572	491	
13	0	0	0	0	527	509	572	491	
14	0	0	0	0	512	504	572	490	
15	0	0	0	0	521	508	572	491	
0	0	0	0	0	506	511	572	491	
1	0	0	0	0	504	510	572	491	
2	0	0	0	0	501	522	572	489	
3	0	0	0	0	502	513	572	491	
4	0	0	0	0	496	506	572	491	
5	0	0	0	0	486	500	572	490	
6	0	0	0	0	490	496	572	490	
7	0	0	0	0	511	498	571	490	
8	0	0	0	0	521	522	572	489	
9	0	0	0	0	521	520	572	490	
10	0	0	0	0	520	507	572	490	
11	0	0	0	0	525	493	571	491	
12	0	0	0	0	548	510	571	491	
13	0	0	0	0	529	520	571	491	
14	0	0	0	0	506	505	570	491	
15	0	0	0	0	500	502	570	492	
0	0	0	0	0	505	504	569	492	
1	0	0	0	0	501	510	569	492	
2	0	0	0	0	498	513	570	492	
3	0	0	0	0	501	510	569	492	
4	0	0	0	0	505	505	569	492	
5	0	0	0	0	514	503	569	491	
6	0	0	0	0	521	506	571	490	
7	0	0	0	0	518	513	571	491	
8	0	0	0	0	518	512	570	490	
9	0	0	0	0	518	508	570	489	
10	0	0	0	0	515	506	571	490	
11	0	0	0	0	513	492	571	491	
12	0	0	0	0	512	497	571	490	
13	0	0	0	0	515	503	570	490	
14	0	0	0	0	514	508	571	490	
15	0	0	0	0	497	529	570	489	
0	0	0	0	0	498	536	569	490	
1	0	0	0	0	511	510	568	489	
2	0	0	0	0	515	503	568	489	
3	0	0	0	0	515	508	568	488	
4	0	0	0	0	503	503	568	487	
5	0	0	0	0	501	504	568	484	
6	0	0	0	0	508	506	567	483	
7	0	0	0	0	516	508	566	482	
8	0	0	0	0	514	508	566	482	
9	0	0	0	0	513	504	565	481	
10	0	0	0	0	519	509	564	482	
11	0	0	0	0	511	510	565	481	
12	0	0	0	0	503	503	564	480	
13	0	0	0	0	491	505	564	480	
14	0	0	0	0	497	501	563	478	
15	0	0	0	0	508	504	563	477	
0	0	0	0	0	537	519	563	478	
1	0	0	0	0	533	513	563	477	
2	0	0	0	0	530	503	563	476	
3	0	0	0	0	516	502	562	477	
4	0	0	0	0	499	503	561	474	
5	0	0	0	0	490	498	561	475	
6	0	0	0	0	492	510	561	473	
7	0	0	0	0	504	516	560	472	
8	0	0	0	0	521	511	560	473	
9	0	0	0	0	533	512	558	473	
10	0	0	0	0	527	512	557	472	
11	0	0	0	0	525	510	557	472	
12	0	0	0	0	513	505	557	470	
13	0	0	0	0	507	507	557	467	
14	0	0	0	0	503	500	556	468	
15	0	0	0	0	503	504	556	464	
0	0	0	0	0	503	507	555	463	
1	0	0	0	0	512	511	553	463	
2	0	0	0	0	519	512	553	460	
3	0	0	0	0	520	510	552	461	
4	0	0	0	0	520	518	552	461	
5	0	0	0	0	515	518	552	462	
6	0	0	0	0	512	507	552	463	
7	0	0	0	0	512	497	551	461	
8	0	0	0	0	510	500	551	458	
9	0	0	0	0	500	496	550	457	
10	0	0	0	0	505	515	550	457	
11	0	0	0	0	503	514	548	456	
12	0	0	0	0	497	510	548	455	
13	0	0	0	0	510	509	548	454	
14	0	0	0	0	516	516	548	454	
15	0	0	0	0	511	509	547	453	
0	0	0	0	0	504	503	548	452	
1	0	0	0	0	496	501	548	452	
2	0	0	0	0	493	501	547	452	
3	0	0	0	0	495	512	546	452	
4	0	0	0	0	498	516	545	451	
5	0	0	0	0	509	502	545	453	
6	0	0	0	0	517	501	544	451	
7	0	0	0	0	542	509	543	450	
8	0	0	0	0	545	513	542	448	
9	0	0	0	0	547	512	540	447	
10	0	0	0	0	525	515	538	445	
11	0	0	0	0	508	508	538	446	
12	0	0	0	0	486	500	536	446	
13	0	0	0	0	488	505	536	445	
14	0	0	0	0	487	504	536	443	
15	0	0	0	0	499	503	536	444	
0	0	0	0	0	533	507	536	443	
1	0	0	0	0	519	514	536	441	
2	0	0	0	0	529	508	536	441	
3	0	0	0	0	529	504	536	440	
4	0	0	0	0	521	513	536	439	
5	0	0	0	0	522	512	536	439	
6	0	0	0	0	508	506	536	440	
7	0	0	0	0	509	508	536	438	
8	0	0	0	0	505	513	536	438	
9	0	0	0	0	501	510	536	440	
10	0	0	0	0	500	511	536	438	
11	0	0	0	0	504	501	536	438	
12	0	0	0	0	511	497	536	437	
13	0	0	0	0	516	511	536	436	
14	0	0	0	0	518	516	534	438	
15	0	0	0	0	513	510	534	438	
0	0	0	0	0	504	514	532	437	
1	0	0	0	0	496	519	533	438	
2	0	0	0	0	502	510	532	439	
3	0	0	0	0	510	483	532	439	
4	0	0	0	0	516	488	531	439	
5	0	0	0	0	510	518	531	427	
6	0	0	0	0	510	519	531	426	
7	0	0	0	0	504	510	530	426	
8	0	0	0	0	493	508	529	425	
9	0	0	0	0	496	510	529	425	
10	0	0	0	0	502	510	529	424	
11	0	0	0	0	521	511	529	423	
12	0	0	0	0	522	504	527	423	
13	0	0	0	0	525	504	526	423	
14	0	0	0	0	527	498	526	423	
15	0	0	0	0	530	498	525	422	
0	0	0	0	0	527	507	525	420	
1	0	0	0	0	514	514	525	420	
2	0	0	0	0	507	512	524	420	
3	0	0	0	0	503	513	521	420	
4	0	0	0	0	498	510	521	419	
5	0	0	0	0	501	509	521	419	
6	0	0	0	0	515	508	520	419	
7	0	0	0	0	504	504	520	419	
8	0	0	0	0	507	508	519	418	
9	0	0	0	0	518	512	517	417	
10	0	0	0	0	515	515	518	417	
11	0	0	0	0	501	514	517	418	
12	0	0	0	0	522	514	516	418	
13	0	0	0	0	534	510	516	417	
14	0	0	0	0	510	500	516	416	
15	0	0	0	0	501	505	513	416	
0	0	0	0	0	500	503	514	415	
1	0	0	0	0	519	501	515	416	
2	0	0	0	0	517	497	515	415	
3	0	0	0	0	513	510	515	415	
4	0	0	0	0	504	517	514	415	
5	0	0	0	0	497	508	514	416	
6	0	0	0	0	511	514	514	416	
7	0	0	0	0	526	510	513	417	
8	0	0	0	0	521	505	514	417	
9	0	0	0	0	508	504	513	417	
10	0	0	0	0	504	507	512	417	
11	0	0	0	0	508	506	513	419	
12	0	0	0	0	513	511	512	419	
13	0	0	0	0	511	515	512	419	
14	0	0	0	0	506	515	512	420	
15	0	0	0	0	500	505	512	419	
0	0	0	0	0	499	500	511	418	
1	0	0	0	0	503	510	512	419	
2	0	0	0	0	513	521	512	419	
3	0	0	0	0	513	498	513	417	
4	0	0	0	0	518	490	513	418	
5	0	0	0	0	519	493	514	418	
6	0	0	0	0	515	501	514	419	
7	0	0	0	0	513	518	514	420	
8	0	0	0	0	512	519	515	419	
9	0	0	0	0	507	517	513	420	
10	0	0	0	0	500	514	513	420	
11	0	0	0	0	503	508	513	420	
12	0	0	0	0	514	507	513	419	
13	0	0	0	0	502	507	513	418	
14	0	0	0	0	504	507	512	418	
15	0	0	0	0	511	514	512	418	
0	0	0	0	0	524	526	513	417	
1	0	0	0	0	543	519	513	416	
2	0	0	0	0	546	502	513	415	
3	0	0	0	0	534	493	514	416	
4	0	0	0	0	513	500	514	414	
5	0	0	0	0	500	507	513	413	
6	0	0	0	0	499	501	513	413	
7	0	0	0	0	505	499	513	413	
8	0	0	0	0	507	504	514	412	
9	0	0	0	0	501	500	512	412	
10	0	0	0	0	494	510	512	411	
11	0	0	0	0	491	517	512	411	
12	0	0	0	0	503	513	511	412	
13	0	0	0	0	499	511	511	412	
14	0	0	0	0	508	513	511	413	
15	0	0	0	0	511	508	512	411	
0	0	0	0	0	511	505	511	411	
1	0	0	0	0	519	508	511	410	
2	0	0	0	0	521	507	512	408	
3	0	0	0	0	518	512	512	408	
4	0	0	0	0	519	507	512	408	
5	0	0	0	0	518	511	512	408	
6	0	0	0	0	513	501	511	408	
7	0	0	0	0	517	498	512	408	
8	0	0	0	0	503	508	513	408	
9	0	0	0	0	502	505	511	409	
10	0	0	0	0	515	520	511	407	
11	0	0	0	0	517	518	512	408	
12	0	0	0	0	508	508	512	408	
13	0	0	0	0	507	510	511	407	
14	0	0	0	0	526	510	511	406	
15	0	0	0	0	522	510	511	407	
0	0	0	0	0	513	502	511	406	
1	0	0	0	0	507	507	511	406	
2	0	0	0	0	510	506	512	407	
3	0	0	0	0	507	509	512	405	
4	0	0	0	0	509	506	511	406	
5	0	0	0	0	500	503	510	405	
6	0	0	0	0	487	508	511	406	
7	0	0	0	0	499	509	510	404	
8	0	0	0	0	518	500	510	403	
9	0	0	0	0	516	508	511	404	
10	0	0	0	0	519	521	512	404	
11	0	0	0	0	517	518	512	405	
12	0	0	0	0	512	513	512	404	
13	0	0	0	0	514	502	513	402	
14	0	0	0	0	520	497	511	403	
15	0	0	0	0	512	497	512	402	
0	0	0	0	0	511	491	512	402	
1	0	0	0	0	511	504	512	401	
2	0	0	0	0	513	513	513	402	
3	0	0	0	0	514	517	514	401	
4	0	0	0	0	513	521	514	401	
5	0	0	0	0	509	504	514	401	
6	0	0	0	0	501	499	513	400	
7	0	0	0	0	496	508	512	399	
8	0	0	0	0	497	514	512	399	
9	0	0	0	0	514	513	512	399	
10	0	0	0	0	520	512	512	399	
11	0	0	0	0	520	513	512	399	
12	0	0	0	0	516	511	513	399	
13	0	0	0	0	526	503	513	400	
14	0	0	0	0	521	509	513	399	
15	0	0	0	0	520	519	513	399	
0	0	0	0	0	516	522	513	400	
1	0	0	0	0	507	502	513	399	
2	0	0	0	0	509	496	512	398	
3	0	0	0	0	501	501	512	398	
4	0	0	0	0	506	514	512	399	
5	0	0	0	0	513	505	513	399	
6	0	0	0	0	508	499	512	398	
7	0	0	0	0	499	504	513	398	
8	0	0	0	0	494	507	513	398	
9	0	0	0	0	502	512	513	399	
10	0	0	0	0	511	510	512	399	
11	0	0	0	0	513	503	513	397	
12	0	0	0	0	502	508	513	399	
13	0	0	0	0	525	509	513	399	
14	0	0	0	0	534	498	513	399	
15	0	0	0	0	533	513	513	399	
0	0	0	0	0	527	525	514	400	
1	0	0	0	0	511	512	513	399	
2	0	0	0	0	494	508	513	400	
3	0	0	0	0	486	510	513	400	
4	0	0	0	0	499	507	514	401	
5	0	0	0	0	506	509	514	401	
6	0	0	0	0	508	508	514	402	
7	0	0	0	0	510	504	514	402	
8	0	0	0	0	522	504	513	401	
9	0	0	0	0	520	506	514	401	
10	0	0	0	0	515	504	514	400	
11	0	0	0	0	515	512	514	401	
12	0	0	0	0	510	505	514	401	
13	0	0	0	0	500	508	515	400	
14	0	0	0	0	495	509	515	402	
15	0	0	0	0	494	505	514	401	
0	0	0	0	0	500	505	515	401	
1	0	0	0	0	518	497	515	400	
2	0	0	0	0	530	497	514	400	
3	0	0	0	0	520	507	514	400	
4	0	0	0	0	517	521	514	401	
5	0	0	0	0	511	523	514	401	
6	0	0	0	0	508	523	513	401	
7	0	0	0	0	501	514	514	402	
8	0	0	0	0	509	508	514	402	
9	0	0	0	0	524	493	515	402	
10	0	0	0	0	539	496	515	402	
11	0	0	0	0	532	511	514	401	
12	0	0	0	0	512	515	515	401	
13	0	0	0	0	492	506	515	401	
14	0	0	0	0	483	506	515	402	
15	0	0	0	0	482	508	514	402	
0	0	0	0	0	500	503	514	402	
1	0	0	0	0	501	506	514	402	
2	0	0	0	0	502	505	515	402	
3	0	0	0	0	543	510	514	401	
4	0	0	0	0	559	514	515	402	
5	0	0	0	0	537	515	515	402	
6	0	0	0	0	535	510	515	401	
7	0	0	0	0	508	504	515	402	
8	0	0	0	0	507	514	515	402	
9	0	0	0	0	514	520	515	402	
10	0	0	0	0	497	506	515	402	
11	0	0	0	0	499	504	515	403	
12	0	0	0	0	499	507	515	401	
13	0	0	0	0	496	495	515	402	
14	0	0	0	0	503	494	514	401	
15	0	0	0	0	507	506	515	402	
0	0	0	0	0	515	509	515	402	
1	0	0	0	0	527	509	515	403	
2	0	0	0	0	516	512	514	403	
3	0	0	0	0	507	512	513	402	
4	0	0	0	0	504	515	514	402	
5	0	0	0	0	510	508	514	402	
6	0	0	0	0	506	509	515	403	
7	0	0	0	0	498	503	515	403	
8	0	0	0	0	497	498	515	403	
9	0	0	0	0	507	503	515	403	
10	0	0	0	0	507	510	516	403	
11	0	0	0	0	512	511	515	403	
12	0	0	0	0	517	501	516	404	
13	0	0	0	0	518	512	516	404	
14	0	0	0	0	526	523	516	404	
15	0	0	0	0	517	512	516	404	
0	0	0	0	0	508	500	516	404	
1	0	0	0	0	515	504	516	404	
2	0	0	0	0	511	507	516	404	
3	0	0	0	0	508	510	516	404	
4	0	0	0	0	504	513	516	404	
5	0	0	0	0	514	514	516	404	
6	0	0	0	0	515	510	516	404	
7	0	0	0	0	501	510	515	403	
8	0	0	0	0	499	500	515	404	
9	0	0	0	0	505	487	516	404	
10	0	0	0	0	510	499	516	404	
11	0	0	0	0	517	521	516	403	
12	0	0	0	0	522	523	516	404	
13	0	0	0	0	517	511	516	405	
14	0	0	0	0	527	511	516	405	
15	0	0	0	0	520	510	516	404	
0	0	0	0	0	514	505	516	404	
1	0	0	0	0	508	512	515	405	
2	0	0	0	0	501	515	516	406	
3	0	0	0	0	489	509	516	405	
4	0	0	0	0	489	503	517	405	
5	0	0	0	0	495	513	517	406	
6	0	0	0	0	512	515	518	405	
7	0	0	0	0	543	498	518	406	
8	0	0	0	0	552	488	518	406	
9	0	0	0	0	525	498	517	406	
10	0	0	0	0	514	508	518	406	
11	0	0	0	0	512	517	518	406	
12	0	0	0	0	511	506	518	406	
13	0	0	0	0	518	505	518	405	
14	0	0	0	0	513	504	518	406	
15	0	0	0	0	509	501	518	406	
0	0	0	0	0	510	508	518	406	
1	0	0	0	0	510	512	518	405	
2	0	0	0	0	502	511	518	405	
3	0	0	0	0	498	518	518	406	
4	0	0	0	0	504	527	518	405	
5	0	0	0	0	501	518	518	405	
6	0	0	0	0	500	511	517	404	
7	0	0	0	0	505	496	518	404	
8	0	0	0	0	507	487	517	404	
9	0	0	0	0	508	495	518	403	
10	0	0	0	0	502	500	518	403	
11	0	0	0	0	520	514	518	403	
12	0	0	0	0	508	521	518	403	
13	0	0	0	0	495	523	518	403	
14	0	0	0	0	506	509	518	403	
15	0	0	0	0	520	510	518	403	
0	0	0	0	0	528	504	518	403	
1	0	0	0	0	526	503	518	402	
2	0	0	0	0	524	509	518	403	
3	0	0	0	0	517	502	517	403	
4	0	0	0	0	512	509	518	403	
5	0	0	0	0	512	520	518	403	
6	0	0	0	0	509	515	518	403	
7	0	0	0	0	503	496	517	403	
8	0	0	0	0	505	495	517	403	
9	0	0	0	0	504	501	517	403	
10	0	0	0	0	501	511	517	403	
11	0	0	0	0	508	509	518	403	
12	0	0	0	0	518	511	518	403	
13	0	0	0	0	508	504	519	403	
14	0	0	0	0	505	504	517	403	
15	0	0	0	0	510	512	518	403	
0	0	0	0	0	534	510	518	403	
1	0	0	0	0	532	510	517	403	
2	0	0	0	0	516	508	518	404	
3	0	0	0	0	502	516	518	404	
4	0	0	0	0	501	509	517	404	
5	0	0	0	0	501	516	518	403	
6	0	0	0	0	504	511	518	404	
7	0	0	0	0	496	506	518	404	
8	0	0	0	0	504	502	518	404	
9	0	0	0	0	492	502	518	405	
10	0	0	0	0	486	495	519	404	
11	0	0	0	0	492	499	518	404	
12	0	0	0	0	516	504	518	404	
13	0	0	0	0	566	502	519	403	
14	0	0	0	0	556	509	519	404	
15	0	0	0	0	546	519	519	404	
0	0	0	0	0	517	530	519	404	
1	0	0	0	0	507	523	519	404	
2	0	0	0	0	504	510	518	404	
3	0	0	0	0	503	505	518	404	
4	0	0	0	0	502	507	519	404	
5	0	0	0	0	503	507	518	403	
6	0	0	0	0	500	510	519	404	
7	0	0	0	0	497	513	519	404	
8	0	0	0	0	505	507	519	404	
9	0	0	0	0	512	502	519	405	
10	0	0	0	0	500	498	519	406	
11	0	0	0	0	498	496	519	405	
12	0	0	0	0	494	511	519	405	
13	0	0	0	0	503	510	519	406	
14	0	0	0	0	510	501	519	405	
15	0	0	0	0	527	510	519	405	
0	0	0	0	0	550	518	519	404	
1	0	0	0	0	555	509	519	404	
2	0	0	0	0	534	515	519	405	
3	0	0	0	0	505	510	519	405	
4	0	0	0	0	491	495	519	405	
5	0	0	0	0	487	500	519	405	
6	0	0	0	0	488	506	520	405	
7	0	0	0	0	499	514	520	406	
8	0	0	0	0	509	511	521	405	
9	0	0	0	0	511	501	520	406	
10	0	0	0	0	525	505	521	406	
11	0	0	0	0	525	509	521	406	
12	0	0	0	0	537	508	521	406	
13	0	0	0	0	522	510	521	405	
14	0	0	0	0	502	511	520	405	
15	0	0	0	0	499	512	520	406	
0	0	0	0	0	506	511	520	405	
1	0	0	0	0	506	508	520	406	
2	0	0	0	0	501	511	520	404	
3	0	0	0	0	495	509	520	404	
4	0	0	0	0	499	502	520	404	
5	0	0	0	0	510	504	521	404	
6	0	0	0	0	520	506	521	403	
7	0	0	0	0	515	504	521	404	
8	0	0	0	0	505	504	520	404	
9	0	0	0	0	500	508	521	404	
10	0	0	0	0	500	521	520	404	
11	0	0	0	0	501	521	520	403	
12	0	0	0	0	516	508	521	404	
13	0	0	0	0	519	508	520	404	
14	0	0	0	0	525	508	520	406	
15	0	0	0	0	520	493	520	405	
0	0	0	0	0	516	495	520	404	
1	0	0	0	0	527	514	520	405	
2	0	0	0	0	522	521	520	405	
3	0	0	0	0	519	515	519	405	
4	0	0	0	0	495	500	519	405	
5	0	0	0	0	497	498	520	405	
6	0	0	0	0	508	509	519	404	
7	0	0	0	0	507	507	520	405	
8	0	0	0	0	523	497	520	405	
9	0	0	0	0	528	496	520	405	
10	0	0	0	0	519	503	519	405	
11	0	0	0	0	511	522	519	405	
12	0	0	0	0	505	521	520	405	
13	0	0	0	0	506	519	519	406	
14	0	0	0	0	505	509	519	406	
15	0	0	0	0	501	504	520	406	
0	0	0	0	0	502	508	519	406	
1	0	0	0	0	510	513	519	406	
2	0	0	0	0	515	508	519	406	
3	0	0	0	0	510	509	519	406	
4	0	0	0	0	503	509	519	406	
5	0	0	0	0	507	504	519	405	
6	0	0	0	0	501	504	520	406	
7	0	0	0	0	506	512	520	406	
8	0	0	0	0	521	516	519	406	
9	0	0	0	0	531	498	520	405	
10	0	0	0	0	532	502	520	405	
11	0	0	0	0	514	500	520	405	
12	0	0	0	0	495	512	519	405	
13	0	0	0	0	496	525	520	405	
14	0	0	0	0	498	514	519	405	
15	0	0	0	0	497	502	519	405	
0	0	0	0	0	494	491	520	405	
1	0	0	0	0	504	494	520	404	
2	0	0	0	0	519	509	521	404	
3	0	0	0	0	538	510	521	404	
4	0	0	0	0	515	503	520	405	
5	0	0	0	0	513	511	520	405	
6	0	0	0	0	517	514	520	404	
7	0	0	0	0	515	517	521	405	
8	0	0	0	0	514	508	521	404	
9	0	0	0	0	519	516	521	404	
10	0	0	0	0	515	510	521	404	
11	0	0	0	0	507	506	521	406	
12	0	0	0	0	502	511	521	408	
13	0	0	0	0	500	503	521	408	
14	0	0	0	0	490	504	520	408	
15	0	0	0	0	505	511	521	406	
0	0	0	0	0	542	510	520	405	
1	0	0	0	0	545	496	520	404	
2	0	0	0	0	521	498	521	403	
3	0	0	0	0	511	508	521	403	
4	0	0	0	0	504	513	521	403	
5	0	0	0	0	505	517	521	403	
6	0	0	0	0	503	507	521	403	
7	0	0	0	0	495	502	521	404	
8	0	0	0	0	501	510	521	404	
9	0	0	0	0	512	515	521	404	
10	0	0	0	0	509	520	521	404	
11	0	0	0	0	513	504	521	403	
12	0	0	0	0	516	504	521	403	
13	0	0	0	0	509	510	520	403	
14	0	0	0	0	511	512	520	408	
15	0	0	0	0	518	499	520	408	
0	0	0	0	0	497	502	520	410	
1	0	0	0	0	499	501	520	410	
2	0	0	0	0	506	513	521	410	
3	0	0	0	0	521	518	521	410	
4	0	0	0	0	527	505	521	411	
5	0	0	0	0	526	500	522	410	
6	0	0	0	0	515	514	522	410	
7	0	0	0	0	519	516	522	409	
8	0	0	0	0	514	510	522	408	
9	0	0	0	0	507	504	523	406	
10	0	0	0	0	494	506	522	403	
11	0	0	0	0	497	513	522	404	
12	0	0	0	0	496	510	523	408	
13	0	0	0	0	502	510	523	408	
14	0	0	0	0	503	502	522	408	
15	0	0	0	0	513	504	523	408	
0	0	0	0	0	546	505	523	408	
1	0	0	0	0	528	514	522	408	
2	0	0	0	0	509	509	523	408	
3	0	0	0	0	504	502	523	408	
4	0	0	0	0	504	504	523	407	
5	0	0	0	0	502	509	523	408	
6	0	0	0	0	496	512	523	408	
7	0	0	0	0	501	511	523	408	
8	0	0	0	0	510	510	523	408	
9	0	0	0	0	521	510	523	409	
10	0	0	0	0	528	507	523	409	
11	0	0	0	0	524	503	523	410	
12	0	0	0	0	516	508	523	411	
13	0	0	0	0	512	510	524	411	
14	0	0	0	0	501	504	524	410	
15	0	0	0	0	496	507	524	410	
0	0	0	0	0	512	510	524	410	
1	0	0	0	0	522	507	524	411	
2	0	0	0	0	519	500	524	411	
3	0	0	0	0	531	498	524	411	
4	0	0	0	0	527	511	524	411	
5	0	0	0	0	516	510	524	411	
6	0	0	0	0	500	507	524	411	
7	0	0	0	0	492	517	524	410	
8	0	0	0	0	495	517	523	409	
9	0	0	0	0	493	514	523	409	
10	0	0	0	0	491	509	524	411	
11	0	0	0	0	497	500	524	410	
12	0	0	0	0	519	499	524	411	
13	0	0	0	0	546	506	524	410	
14	0	0	0	0	528	515	524	411	
15	0	0	0	0	517	513	525	411	
0	0	0	0	0	515	506	525	410	
1	0	0	0	0	504	506	525	411	
2	0	0	0	0	506	508	525	412	
3	0	0	0	0	506	513	525	412	
4	0	0	0	0	517	516	526	411	
5	0	0	0	0	502	508	526	411	
6	0	0	0	0	500	499	526	412	
7	0	0	0	0	505	492	526	412	
8	0	0	0	0	523	496	527	413	
9	0	0	0	0	512	508	527	412	
10	0	0	0	0	504	518	527	413	
11	0	0	0	0	502	519	526	413	
12	0	0	0	0	509	519	526	412	
13	0	0	0	0	518	516	527	412	
14	0	0	0	0	533	508	526	411	
15	0	0	0	0	519	507	527	412	
0	0	0	0	0	515	496	527	413	
1	0	0	0	0	510	503	526	413	
2	0	0	0	0	501	509	525	414	
3	0	0	0	0	499	520	525	413	
4	0	0	0	0	499	514	525	412	
5	0	0	0	0	496	507	526	412	
6	0	0	0	0	498	505	525	412	
7	0	0	0	0	512	509	525	412	
8	0	0	0	0	528	504	526	412	
9	0	0	0	0	524	493	526	412	
10	0	0	0	0	527	498	526	412	
11	0	0	0	0	527	516	526	412	
12	0	0	0	0	512	517	527	411	
13	0	0	0	0	502	519	526	412	
14	0	0	0	0	498	512	527	412	
15	0	0	0	0	504	500	526	412	
0	0	0	0	0	513	504	527	412	
1	0	0	0	0	507	510	527	412	
2	0	0	0	0	500	512	527	412	
3	0	0	0	0	500	509	527	413	
4	0	0	0	0	500	499	527	412	
5	0	0	0	0	502	507	527	414	
6	0	0	0	0	518	511	527	413	
7	0	0	0	0	546	505	526	413	
8	0	0	0	0	534	499	527	414	
9	0	0	0	0	511	505	527	413	
10	0	0	0	0	502	501	527	412	
11	0	0	0	0	499	503	527	413	
12	0	0	0	0	499	515	527	411	
13	0	0	0	0	512	528	527	412	
14	0	0	0	0	519	518	527	411	
15	0	0	0	0	527	508	527	412	
0	0	0	0	0	526	504	527	413	
1	0	0	0	0	526	500	527	415	
2	0	0	0	0	527	497	527	416	
3	0	0	0	0	507	511	527	415	
4	0	0	0	0	497	504	527	415	
5	0	0	0	0	492	501	528	416	
6	0	0	0	0	496	507	528	415	
7	0	0	0	0	497	516	527	414	
8	0	0	0	0	495	515	528	415	
9	0	0	0	0	496	514	528	416	
10	0	0	0	0	505	516	528	417	
11	0	0	0	0	502	504	527	417	
12	0	0	0	0	518	503	528	418	
13	0	0	0	0	524	512	527	418	
14	0	0	0	0	531	507	527	417	
15	0	0	0	0	534	497	527	417	
0	0	0	0	0	543	504	527	416	
1	0	0	0	0	519	509	528	415	
2	0	0	0	0	516	518	529	416	
3	0	0	0	0	499	509	529	416	
4	0	0	0	0	481	505	528	416	
5	0	0	0	0	488	501	528	415	
6	0	0	0	0	495	505	528	415	
7	0	0	0	0	511	511	529	416	
8	0	0	0	0	508	507	529	415	
9	0	0	0	0	508	507	529	415	
10	0	0	0	0	516	511	529	414	
11	0	0	0	0	554	513	529	415	
12	0	0	0	0	542	509	529	415	
13	0	0	0	0	521	502	528	415	
14	0	0	0	0	502	501	528	415	
15	0	0	0	0	500	507	529	416	
0	0	0	0	0	502	518	528	416	
1	0	0	0	0	503	516	528	414	
2	0	0	0	0	499	498	528	415	
3	0	0	0	0	499	505	529	415	
4	0	0	0	0	504	512	529	415	
5	0	0	0	0	508	511	529	415	
6	0	0	0	0	524	511	529	415	
7	0	0	0	0	521	515	529	415	
8	0	0	0	0	505	513	530	416	
9	0	0	0	0	496	508	530	415	
10	0	0	0	0	499	505	530	415	
11	0	0	0	0	512	500	530	415	
12	0	0	0	0	498	496	529	415	
13	0	0	0	0	485	496	529	415	
14	0	0	0	0	499	502	529	415	
15	0	0	0	0	518	515	529	415	
0	0	0	0	0	544	515	529	415	
1	0	0	0	0	551	508	529	415	
2	0	0	0	0	527	506	529	414	
3	0	0	0	0	516	525	529	415	
4	0	0	0	0	508	510	528	415	
5	0	0	0	0	507	503	529	415	
6	0	0	0	0	504	507	528	415	
7	0	0	0	0	503	507	529	414	
8	0	0	0	0	503	505	528	414	
9	0	0	0	0	512	505	528	413	
10	0	0	0	0	513	504	528	413	
11	0	0	0	0	524	502	528	415	
12	0	0	0	0	516	511	528	415	
13	0	0	0	0	517	512	528	415	
14	0	0	0	0	518	511	528	415	
15	0	0	0	0	508	519	528	415	
0	0	0	0	0	501	512	528	416	
1	0	0	0	0	496	499	528	415	
2	0	0	0	0	499	496	528	415	
3	0	0	0	0	504	503	528	416	
4	0	0	0	0	500	505	528	416	
5	0	0	0	0	500	506	527	416	
6	0	0	0	0	505	518	528	416	
7	0	0	0	0	518	513	528	416	
8	0	0	0	0	545	531	528	416	
9	0	0	0	0	536	516	529	415	
10	0	0	0	0	512	493	528	415	
11	0	0	0	0	509	496	528	415	
12	0	0	0	0	511	506	528	415	
13	0	0	0	0	504	502	528	415	
14	0	0	0	0	505	496	528	415	
15	0	0	0	0	499	491	528	414	
0	0	0	0	0	499	510	528	414	
1	0	0	0	0	492	519	528	414	
2	0	0	0	0	494	518	528	415	
3	0	0	0	0	529	516	527	415	
4	0	0	0	0	532	523	528	415	
5	0	0	0	0	538	516	528	411	
6	0	0	0	0	529	514	528	411	
7	0	0	0	0	505	503	527	411	
8	0	0	0	0	511	498	527	411	
9	0	0	0	0	503	506	527	411	
10	0	0	0	0	500	511	527	411	
11	0	0	0	0	514	502	528	411	
12	0	0	0	0	512	509	528	411	
13	0	0	0	0	518	502	528	411	
14	0	0	0	0	532	507	528	412	
15	0	0	0	0	508	507	527	412	
0	0	0	0	0	500	504	528	412	
1	0	0	0	0	492	512	528	412	
2	0	0	0	0	492	512	528	412	
3	0	0	0	0	504	510	527	412	
4	0	0	0	0	506	507	527	412	
5	0	0	0	0	510	501	527	412	
6	0	0	0	0	517	493	527	412	
7	0	0	0	0	521	510	528	412	
8	0	0	0	0	520	509	527	412	
9	0	0	0	0	506	499	528	412	
10	0	0	0	0	513	508	528	412	
11	0	0	0	0	512	514	529	412	
12	0	0	0	0	507	512	528	411	
13	0	0	0	0	518	517	528	412	
14	0	0	0	0	517	510	528	411	
15	0	0	0	0	503	508	528	412	
0	0	0	0	0	493	516	528	411	
1	0	0	0	0	504	507	529	412	
2	0	0	0	0	537	504	529	412	
3	0	0	0	0	520	508	528	412	
4	0	0	0	0	497	510	529	413	
5	0	0	0	0	492	511	529	412	
6	0	0	0	0	504	512	528	412	
7	0	0	0	0	512	507	529	413	
8	0	0	0	0	521	502	529	413	
9	0	0	0	0	542	511	529	412	
10	0	0	0	0	527	504	529	412	
11	0	0	0	0	503	496	529	412	
