# OpenSignals Text File Format. Version 1
# {"20:18:06:13:21:78": {"position": 0, "device": "bitalino_rev", "device name": "20:18:06:13:21:78", "device connection": "BTH20:18:06:13:21:78", "sampling rate": 1000, "resolution": [4, 1, 1, 1, 1, 10, 10, 10, 10], "firmware version": 1281, "comments": "", "keywords": "", "mode": 0, "sync interval": 2, "date": "2023-6-5", "time": "23:53:7.236", "channels": [1, 2, 3, 4], "sensor": ["EMGBITREV", "EMGBITREV", "RAW", "RAW"], "label": ["A1", "A2", "A3", "A4"], "column": ["nSeq", "I1", "I2", "O1", "O2", "A1", "A2", "A3", "A4"], "special": [{}, {}, {}, {}], "digital IO": [0, 0, 1, 1]}}
# EndOfHeader
0	0	0	0	0	510	511	0	0	
1	0	0	0	0	508	511	0	0	
2	0	0	0	0	509	509	0	0	
3	0	0	0	0	505	511	0	0	
4	0	0	0	0	506	510	0	0	
5	0	0	0	0	503	510	0	0	
6	0	0	0	0	504	510	0	0	
7	0	0	0	0	502	511	0	0	
8	0	0	0	0	504	510	0	0	
9	0	0	0	0	507	513	0	0	
10	0	0	0	0	508	511	0	0	
11	0	0	0	0	510	510	0	0	
12	0	0	0	0	508	513	0	0	
13	0	0	0	0	510	508	0	0	
14	0	0	0	0	511	510	0	0	
15	0	0	0	0	511	511	0	0	
0	0	0	0	0	512	510	0	0	
1	0	0	0	0	511	512	0	0	
2	0	0	0	0	512	511	0	0	
3	0	0	0	0	511	510	0	0	
4	0	0	0	0	510	510	0	0	
5	0	0	0	0	511	511	0	0	
6	0	0	0	0	509	509	0	0	
7	0	0	0	0	507	511	0	0	
8	0	0	0	0	508	511	0	0	
9	0	0	0	0	506	512	0	0	
10	0	0	0	0	505	513	0	0	
11	0	0	0	0	505	510	0	0	
12	0	0	0	0	504	511	0	0	
13	0	0	0	0	507	511	0	0	
14	0	0	0	0	507	512	0	0	
15	0	0	0	0	508	509	0	0	
0	0	0	0	0	507	509	0	0	
1	0	0	0	0	509	510	0	0	
2	0	0	0	0	510	508	0	0	
3	0	0	0	0	511	509	0	0	
4	0	0	0	0	511	510	0	0	
5	0	0	0	0	512	510	0	0	
6	0	0	0	0	512	509	0	0	
7	0	0	0	0	509	513	0	0	
8	0	0	0	0	510	511	0	0	
9	0	0	0	0	509	512	0	0	
10	0	0	0	0	508	511	0	0	
11	0	0	0	0	510	509	0	0	
12	0	0	0	0	506	510	0	0	
13	0	0	0	0	505	508	0	0	
14	0	0	0	0	507	510	0	0	
15	0	0	0	0	508	510	0	0	
0	0	0	0	0	506	511	0	0	
1	0	0	0	0	506	510	0	0	
2	0	0	0	0	507	509	0	0	
3	0	0	0	0	508	509	0	0	
4	0	0	0	0	507	509	0	0	
5	0	0	0	0	510	512	0	0	
6	0	0	0	0	511	512	0	0	
7	0	0	0	0	510	511	0	0	
8	0	0	0	0	511	512	0	0	
9	0	0	0	0	511	509	0	0	
10	0	0	0	0	511	511	0	0	
11	0	0	0	0	511	512	0	0	
12	0	0	0	0	511	512	0	0	
13	0	0	0	0	510	512	0	0	
14	0	0	0	0	509	511	0	0	
15	0	0	0	0	510	510	0	0	
0	0	0	0	0	507	511	0	0	
1	0	0	0	0	507	511	0	0	
2	0	0	0	0	504	511	0	0	
3	0	0	0	0	505	510	0	0	
4	0	0	0	0	507	509	0	0	
5	0	0	0	0	506	511	0	0	
6	0	0	0	0	505	509	0	0	
7	0	0	0	0	507	511	0	0	
8	0	0	0	0	511	511	0	0	
9	0	0	0	0	510	510	0	0	
10	0	0	0	0	509	511	0	0	
11	0	0	0	0	511	511	0	0	
12	0	0	0	0	511	511	0	0	
13	0	0	0	0	512	511	0	0	
14	0	0	0	0	511	511	0	0	
15	0	0	0	0	510	513	0	0	
0	0	0	0	0	511	510	0	0	
1	0	0	0	0	509	509	0	0	
2	0	0	0	0	508	511	0	0	
3	0	0	0	0	506	508	0	0	
4	0	0	0	0	507	510	0	0	
5	0	0	0	0	506	510	0	0	
6	0	0	0	0	507	510	0	0	
7	0	0	0	0	505	510	0	0	
8	0	0	0	0	505	511	0	0	
9	0	0	0	0	505	511	0	0	
10	0	0	0	0	508	511	0	0	
11	0	0	0	0	508	510	0	0	
12	0	0	0	0	507	511	0	0	
13	0	0	0	0	512	511	0	0	
14	0	0	0	0	510	511	0	0	
15	0	0	0	0	511	509	0	0	
0	0	0	0	0	511	513	0	0	
1	0	0	0	0	513	510	0	0	
2	0	0	0	0	513	511	0	0	
3	0	0	0	0	511	513	0	0	
4	0	0	0	0	511	513	0	0	
5	0	0	0	0	508	509	0	0	
6	0	0	0	0	507	510	0	0	
7	0	0	0	0	504	510	0	0	
8	0	0	0	0	507	512	0	0	
9	0	0	0	0	505	513	0	0	
10	0	0	0	0	504	511	0	0	
11	0	0	0	0	505	510	0	0	
12	0	0	0	0	506	510	0	0	
13	0	0	0	0	506	511	0	0	
14	0	0	0	0	506	510	0	0	
15	0	0	0	0	508	511	0	0	
0	0	0	0	0	508	510	0	0	
1	0	0	0	0	509	508	0	0	
2	0	0	0	0	510	510	0	0	
3	0	0	0	0	512	510	0	0	
4	0	0	0	0	510	507	0	0	
5	0	0	0	0	512	511	0	0	
6	0	0	0	0	511	510	0	0	
7	0	0	0	0	512	512	0	0	
8	0	0	0	0	511	511	0	0	
9	0	0	0	0	511	511	0	0	
10	0	0	0	0	509	511	0	0	
11	0	0	0	0	509	509	0	0	
12	0	0	0	0	505	511	0	0	
13	0	0	0	0	504	510	0	0	
14	0	0	0	0	503	509	0	0	
15	0	0	0	0	504	510	0	0	
0	0	0	0	0	507	509	0	0	
1	0	0	0	0	507	512	0	0	
2	0	0	0	0	508	510	0	0	
3	0	0	0	0	505	511	0	0	
4	0	0	0	0	506	509	0	0	
5	0	0	0	0	509	510	0	0	
6	0	0	0	0	511	510	0	0	
7	0	0	0	0	510	512	0	0	
8	0	0	0	0	512	510	0	0	
9	0	0	0	0	512	511	0	0	
10	0	0	0	0	511	508	0	0	
11	0	0	0	0	511	512	0	0	
12	0	0	0	0	511	509	0	0	
13	0	0	0	0	510	510	0	0	
14	0	0	0	0	509	509	0	0	
15	0	0	0	0	506	512	0	0	
0	0	0	0	0	507	512	0	0	
1	0	0	0	0	506	511	0	0	
2	0	0	0	0	507	509	0	0	
3	0	0	0	0	505	509	0	0	
4	0	0	0	0	504	509	0	0	
5	0	0	0	0	506	508	0	0	
6	0	0	0	0	507	509	0	0	
7	0	0	0	0	508	510	0	0	
8	0	0	0	0	508	511	0	0	
9	0	0	0	0	512	514	0	0	
10	0	0	0	0	511	511	0	0	
11	0	0	0	0	513	509	0	0	
12	0	0	0	0	511	508	0	0	
13	0	0	0	0	513	513	0	0	
14	0	0	0	0	513	514	0	0	
15	0	0	0	0	511	512	0	0	
0	0	0	0	0	510	512	0	0	
1	0	0	0	0	509	510	0	0	
2	0	0	0	0	507	511	0	0	
3	0	0	0	0	508	510	0	0	
4	0	0	0	0	506	510	0	0	
5	0	0	0	0	504	509	0	0	
6	0	0	0	0	505	510	0	0	
7	0	0	0	0	507	510	0	0	
8	0	0	0	0	505	509	0	0	
9	0	0	0	0	507	508	0	0	
10	0	0	0	0	506	508	0	0	
11	0	0	0	0	508	510	0	0	
12	0	0	0	0	509	510	0	0	
13	0	0	0	0	509	511	0	0	
14	0	0	0	0	511	512	0	0	
15	0	0	0	0	510	511	0	0	
0	0	0	0	0	511	510	0	0	
1	0	0	0	0	513	511	0	0	
2	0	0	0	0	511	512	0	0	
3	0	0	0	0	512	512	0	0	
4	0	0	0	0	512	511	0	0	
5	0	0	0	0	510	514	0	0	
6	0	0	0	0	510	513	0	0	
7	0	0	0	0	510	511	0	0	
8	0	0	0	0	508	512	0	0	
9	0	0	0	0	507	509	0	0	
10	0	0	0	0	506	508	0	0	
11	0	0	0	0	505	512	0	0	
12	0	0	0	0	505	510	0	0	
13	0	0	0	0	504	509	0	0	
14	0	0	0	0	505	510	0	0	
15	0	0	0	0	507	508	0	0	
0	0	0	0	0	508	509	0	0	
1	0	0	0	0	508	511	0	0	
2	0	0	0	0	508	512	0	0	
3	0	0	0	0	512	510	0	0	
4	0	0	0	0	514	508	0	0	
5	0	0	0	0	513	511	0	0	
6	0	0	0	0	513	510	0	0	
7	0	0	0	0	511	509	0	0	
8	0	0	0	0	510	508	0	0	
9	0	0	0	0	507	511	0	0	
10	0	0	0	0	508	509	0	0	
11	0	0	0	0	506	510	0	0	
12	0	0	0	0	507	511	0	0	
13	0	0	0	0	507	510	0	0	
14	0	0	0	0	504	511	0	0	
15	0	0	0	0	504	512	0	0	
0	0	0	0	0	504	511	0	0	
1	0	0	0	0	506	512	0	0	
2	0	0	0	0	507	513	0	0	
3	0	0	0	0	508	510	0	0	
4	0	0	0	0	510	512	0	0	
5	0	0	0	0	509	511	0	0	
6	0	0	0	0	511	511	0	0	
7	0	0	0	0	511	512	0	0	
8	0	0	0	0	513	512	0	0	
9	0	0	0	0	514	510	0	0	
10	0	0	0	0	511	511	0	0	
11	0	0	0	0	510	509	0	0	
12	0	0	0	0	509	509	0	0	
13	0	0	0	0	508	510	0	0	
14	0	0	0	0	509	509	0	0	
15	0	0	0	0	507	509	0	0	
0	0	0	0	0	506	510	0	0	
1	0	0	0	0	507	511	0	0	
2	0	0	0	0	505	508	0	0	
3	0	0	0	0	506	509	0	0	
4	0	0	0	0	507	511	0	0	
5	0	0	0	0	507	512	0	0	
6	0	0	0	0	507	512	0	0	
7	0	0	0	0	508	509	0	0	
8	0	0	0	0	507	511	0	0	
9	0	0	0	0	508	512	0	0	
10	0	0	0	0	508	511	0	0	
11	0	0	0	0	512	513	0	0	
12	0	0	0	0	513	511	0	0	
13	0	0	0	0	513	511	0	0	
14	0	0	0	0	511	510	0	0	
15	0	0	0	0	511	513	0	0	
0	0	0	0	0	510	511	0	0	
1	0	0	0	0	510	510	0	0	
2	0	0	0	0	509	510	0	0	
3	0	0	0	0	507	510	0	0	
4	0	0	0	0	506	510	0	0	
5	0	0	0	0	508	511	0	0	
6	0	0	0	0	505	512	0	0	
7	0	0	0	0	504	513	0	0	
8	0	0	0	0	505	510	0	0	
9	0	0	0	0	506	512	0	0	
10	0	0	0	0	507	508	0	0	
11	0	0	0	0	507	511	0	0	
12	0	0	0	0	507	510	0	0	
13	0	0	0	0	506	510	0	0	
14	0	0	0	0	511	508	0	0	
15	0	0	0	0	511	512	0	0	
0	0	0	0	0	513	512	0	0	
1	0	0	0	0	513	509	0	0	
2	0	0	0	0	511	510	0	0	
3	0	0	0	0	512	510	0	0	
4	0	0	0	0	510	511	0	0	
5	0	0	0	0	509	511	0	0	
6	0	0	0	0	509	511	0	0	
7	0	0	0	0	509	510	0	0	
8	0	0	0	0	507	509	0	0	
9	0	0	0	0	505	508	0	0	
10	0	0	0	0	505	510	0	0	
11	0	0	0	0	506	513	0	0	
12	0	0	0	0	506	509	0	0	
13	0	0	0	0	506	512	0	0	
14	0	0	0	0	507	511	0	0	
15	0	0	0	0	506	510	0	0	
0	0	0	0	0	508	509	0	0	
1	0	0	0	0	507	509	0	0	
2	0	0	0	0	511	511	0	0	
3	0	0	0	0	511	511	0	0	
4	0	0	0	0	511	512	0	0	
5	0	0	0	0	513	511	0	0	
6	0	0	0	0	510	513	0	0	
7	0	0	0	0	511	512	0	0	
8	0	0	0	0	511	510	0	0	
9	0	0	0	0	511	512	0	0	
10	0	0	0	0	508	512	0	0	
11	0	0	0	0	508	509	0	0	
12	0	0	0	0	507	511	0	0	
13	0	0	0	0	505	510	0	0	
14	0	0	0	0	503	510	0	0	
15	0	0	0	0	504	512	0	0	
0	0	0	0	0	505	510	0	0	
1	0	0	0	0	507	510	0	0	
2	0	0	0	0	507	509	0	0	
3	0	0	0	0	508	510	0	0	
4	0	0	0	0	510	511	0	0	
5	0	0	0	0	509	507	0	0	
6	0	0	0	0	510	511	0	0	
7	0	0	0	0	509	508	0	0	
8	0	0	0	0	513	511	0	0	
9	0	0	0	0	514	510	0	0	
10	0	0	0	0	511	510	0	0	
11	0	0	0	0	511	512	0	0	
12	0	0	0	0	511	512	0	0	
13	0	0	0	0	510	511	0	0	
14	0	0	0	0	508	511	0	0	
15	0	0	0	0	506	513	0	0	
0	0	0	0	0	505	511	0	0	
1	0	0	0	0	505	511	0	0	
2	0	0	0	0	505	510	0	0	
3	0	0	0	0	504	512	0	0	
4	0	0	0	0	507	509	0	0	
5	0	0	0	0	506	510	0	0	
6	0	0	0	0	505	510	0	0	
7	0	0	0	0	507	510	0	0	
8	0	0	0	0	508	511	0	0	
9	0	0	0	0	510	511	0	0	
10	0	0	0	0	511	508	0	0	
11	0	0	0	0	511	511	0	0	
12	0	0	0	0	512	511	0	0	
13	0	0	0	0	512	511	0	0	
14	0	0	0	0	511	509	0	0	
15	0	0	0	0	511	511	0	0	
0	0	0	0	0	509	510	0	0	
1	0	0	0	0	510	511	0	0	
2	0	0	0	0	508	509	0	0	
3	0	0	0	0	508	511	0	0	
4	0	0	0	0	508	510	0	0	
5	0	0	0	0	507	508	0	0	
6	0	0	0	0	505	509	0	0	
7	0	0	0	0	503	509	0	0	
8	0	0	0	0	506	511	0	0	
9	0	0	0	0	508	511	0	0	
10	0	0	0	0	507	511	0	0	
11	0	0	0	0	507	511	0	0	
12	0	0	0	0	508	510	0	0	
13	0	0	0	0	508	511	0	0	
14	0	0	0	0	511	512	0	0	
15	0	0	0	0	511	510	0	0	
0	0	0	0	0	512	511	0	0	
1	0	0	0	0	512	511	0	0	
2	0	0	0	0	511	511	0	0	
3	0	0	0	0	511	511	0	0	
4	0	0	0	0	511	509	0	0	
5	0	0	0	0	509	512	0	0	
6	0	0	0	0	507	511	0	0	
7	0	0	0	0	507	512	0	0	
8	0	0	0	0	507	512	0	0	
9	0	0	0	0	506	509	0	0	
10	0	0	0	0	507	511	0	0	
11	0	0	0	0	505	510	0	0	
12	0	0	0	0	507	510	0	0	
13	0	0	0	0	507	512	0	0	
14	0	0	0	0	507	512	0	0	
15	0	0	0	0	506	508	0	0	
0	0	0	0	0	509	510	0	0	
1	0	0	0	0	510	509	0	0	
2	0	0	0	0	512	510	0	0	
3	0	0	0	0	512	511	0	0	
4	0	0	0	0	510	512	0	0	
5	0	0	0	0	512	510	0	0	
6	0	0	0	0	511	512	0	0	
7	0	0	0	0	512	512	0	0	
8	0	0	0	0	512	510	0	0	
9	0	0	0	0	510	510	0	0	
10	0	0	0	0	511	509	0	0	
11	0	0	0	0	508	509	0	0	
12	0	0	0	0	505	510	0	0	
13	0	0	0	0	507	509	0	0	
14	0	0	0	0	506	509	0	0	
15	0	0	0	0	504	510	0	0	
0	0	0	0	0	505	512	0	0	
1	0	0	0	0	506	513	0	0	
2	0	0	0	0	505	510	0	0	
3	0	0	0	0	508	509	0	0	
4	0	0	0	0	509	509	0	0	
5	0	0	0	0	509	510	0	0	
6	0	0	0	0	511	512	0	0	
7	0	0	0	0	511	512	0	0	
8	0	0	0	0	512	509	0	0	
9	0	0	0	0	513	509	0	0	
10	0	0	0	0	511	510	0	0	
11	0	0	0	0	512	511	0	0	
12	0	0	0	0	510	511	0	0	
13	0	0	0	0	510	510	0	0	
14	0	0	0	0	508	510	0	0	
15	0	0	0	0	508	509	0	0	
0	0	0	0	0	508	510	0	0	
1	0	0	0	0	506	510	0	0	
2	0	0	0	0	505	510	0	0	
3	0	0	0	0	504	508	0	0	
4	0	0	0	0	505	508	0	0	
5	0	0	0	0	505	512	0	0	
6	0	0	0	0	508	510	0	0	
7	0	0	0	0	508	509	0	0	
8	0	0	0	0	508	513	0	0	
9	0	0	0	0	508	512	0	0	
10	0	0	0	0	511	512	0	0	
11	0	0	0	0	511	513	0	0	
12	0	0	0	0	510	512	0	0	
13	0	0	0	0	511	510	0	0	
14	0	0	0	0	512	508	0	0	
15	0	0	0	0	512	512	0	0	
0	0	0	0	0	512	510	0	0	
1	0	0	0	0	510	511	0	0	
2	0	0	0	0	509	510	0	0	
3	0	0	0	0	506	510	0	0	
4	0	0	0	0	506	511	0	0	
5	0	0	0	0	507	510	0	0	
6	0	0	0	0	507	509	0	0	
7	0	0	0	0	506	509	0	0	
8	0	0	0	0	506	509	0	0	
9	0	0	0	0	504	510	0	0	
10	0	0	0	0	504	510	0	0	
11	0	0	0	0	508	511	0	0	
12	0	0	0	0	506	510	0	0	
13	0	0	0	0	510	509	0	0	
14	0	0	0	0	510	512	0	0	
15	0	0	0	0	509	513	0	0	
0	0	0	0	0	514	513	0	0	
1	0	0	0	0	513	510	0	0	
2	0	0	0	0	512	510	0	0	
3	0	0	0	0	512	511	0	0	
4	0	0	0	0	508	513	0	0	
5	0	0	0	0	508	512	0	0	
6	0	0	0	0	508	512	0	0	
7	0	0	0	0	508	510	0	0	
8	0	0	0	0	509	511	0	0	
9	0	0	0	0	507	510	0	0	
10	0	0	0	0	506	510	0	0	
11	0	0	0	0	505	508	0	0	
12	0	0	0	0	504	509	0	0	
13	0	0	0	0	508	512	0	0	
14	0	0	0	0	504	511	0	0	
15	0	0	0	0	507	509	0	0	
0	0	0	0	0	508	510	0	0	
1	0	0	0	0	509	508	0	0	
2	0	0	0	0	511	511	0	0	
3	0	0	0	0	512	510	0	0	
4	0	0	0	0	513	511	0	0	
5	0	0	0	0	510	511	0	0	
6	0	0	0	0	510	509	0	0	
7	0	0	0	0	510	509	0	0	
8	0	0	0	0	512	509	0	0	
9	0	0	0	0	511	511	0	0	
10	0	0	0	0	509	512	0	0	
11	0	0	0	0	507	512	0	0	
12	0	0	0	0	506	512	0	0	
13	0	0	0	0	507	511	0	0	
14	0	0	0	0	505	511	0	0	
15	0	0	0	0	505	509	0	0	
0	0	0	0	0	505	511	0	0	
1	0	0	0	0	507	511	0	0	
2	0	0	0	0	506	508	0	0	
3	0	0	0	0	508	510	0	0	
4	0	0	0	0	510	510	0	0	
5	0	0	0	0	509	510	0	0	
6	0	0	0	0	510	511	0	0	
7	0	0	0	0	511	511	0	0	
8	0	0	0	0	509	510	0	0	
9	0	0	0	0	512	512	0	0	
10	0	0	0	0	511	509	0	0	
11	0	0	0	0	512	510	0	0	
12	0	0	0	0	510	509	0	0	
13	0	0	0	0	507	511	0	0	
14	0	0	0	0	509	510	0	0	
15	0	0	0	0	509	510	0	0	
0	0	0	0	0	508	508	0	0	
1	0	0	0	0	507	511	0	0	
2	0	0	0	0	505	511	0	0	
3	0	0	0	0	505	510	0	0	
4	0	0	0	0	507	509	0	0	
5	0	0	0	0	506	511	0	0	
6	0	0	0	0	507	511	0	0	
7	0	0	0	0	506	511	0	0	
8	0	0	0	0	508	513	0	0	
9	0	0	0	0	511	510	0	0	
10	0	0	0	0	511	511	0	0	
11	0	0	0	0	512	511	0	0	
12	0	0	0	0	511	511	0	0	
13	0	0	0	0	511	511	0	0	
14	0	0	0	0	511	513	0	0	
15	0	0	0	0	511	511	0	0	
0	0	0	0	0	510	509	0	0	
1	0	0	0	0	510	513	0	0	
2	0	0	0	0	509	510	0	0	
3	0	0	0	0	508	511	0	0	
4	0	0	0	0	508	510	0	0	
5	0	0	0	0	505	510	0	0	
6	0	0	0	0	507	510	0	0	
7	0	0	0	0	505	508	0	0	
8	0	0	0	0	505	510	0	0	
9	0	0	0	0	504	508	0	0	
10	0	0	0	0	503	510	0	0	
11	0	0	0	0	507	510	0	0	
12	0	0	0	0	508	508	0	0	
13	0	0	0	0	511	512	0	0	
14	0	0	0	0	511	513	0	0	
15	0	0	0	0	511	508	0	0	
0	0	0	0	0	512	508	0	0	
1	0	0	0	0	513	508	0	0	
2	0	0	0	0	511	510	0	0	
3	0	0	0	0	511	511	0	0	
4	0	0	0	0	509	511	0	0	
5	0	0	0	0	510	511	0	0	
6	0	0	0	0	509	509	0	0	
7	0	0	0	0	509	512	0	0	
8	0	0	0	0	508	510	0	0	
9	0	0	0	0	506	510	0	0	
10	0	0	0	0	506	510	0	0	
11	0	0	0	0	505	509	0	0	
12	0	0	0	0	502	508	0	0	
13	0	0	0	0	503	509	0	0	
14	0	0	0	0	503	511	0	0	
15	0	0	0	0	505	512	0	0	
0	0	0	0	0	509	513	0	0	
1	0	0	0	0	510	511	0	0	
2	0	0	0	0	517	512	0	0	
3	0	0	0	0	515	512	0	0	
4	0	0	0	0	513	510	0	0	
5	0	0	0	0	510	512	0	0	
6	0	0	0	0	510	510	0	0	
7	0	0	0	0	513	512	0	0	
8	0	0	0	0	509	511	0	0	
9	0	0	0	0	509	511	0	0	
10	0	0	0	0	507	511	0	0	
11	0	0	0	0	506	511	0	0	
12	0	0	0	0	506	511	0	0	
13	0	0	0	0	505	508	0	0	
14	0	0	0	0	506	510	0	0	
15	0	0	0	0	506	510	0	0	
0	0	0	0	0	508	509	0	0	
1	0	0	0	0	507	509	0	0	
2	0	0	0	0	505	510	0	0	
3	0	0	0	0	508	509	0	0	
4	0	0	0	0	505	510	0	0	
5	0	0	0	0	509	511	0	0	
6	0	0	0	0	511	510	0	0	
7	0	0	0	0	511	511	0	0	
8	0	0	0	0	513	511	0	0	
9	0	0	0	0	513	512	0	0	
10	0	0	0	0	512	512	0	0	
11	0	0	0	0	511	511	0	0	
12	0	0	0	0	510	513	0	0	
13	0	0	0	0	508	513	0	0	
14	0	0	0	0	507	512	0	0	
15	0	0	0	0	508	510	0	0	
0	0	0	0	0	506	509	0	0	
1	0	0	0	0	503	509	0	0	
2	0	0	0	0	504	510	0	0	
3	0	0	0	0	505	509	0	0	
4	0	0	0	0	507	513	0	0	
5	0	0	0	0	507	509	0	0	
6	0	0	0	0	506	509	0	0	
7	0	0	0	0	511	511	0	0	
8	0	0	0	0	509	511	0	0	
9	0	0	0	0	511	512	0	0	
10	0	0	0	0	510	510	0	0	
11	0	0	0	0	510	510	0	0	
12	0	0	0	0	513	511	0	0	
13	0	0	0	0	511	510	0	0	
14	0	0	0	0	511	511	0	0	
15	0	0	0	0	510	511	0	0	
0	0	0	0	0	511	510	0	0	
1	0	0	0	0	509	511	0	0	
2	0	0	0	0	507	511	0	0	
3	0	0	0	0	507	511	0	0	
4	0	0	0	0	505	512	0	0	
5	0	0	0	0	505	511	0	0	
6	0	0	0	0	505	510	0	0	
7	0	0	0	0	503	510	0	0	
8	0	0	0	0	505	508	0	0	
9	0	0	0	0	504	509	0	0	
10	0	0	0	0	507	509	0	0	
11	0	0	0	0	508	511	0	0	
12	0	0	0	0	513	512	0	0	
13	0	0	0	0	514	512	0	0	
14	0	0	0	0	512	513	0	0	
15	0	0	0	0	510	512	0	0	
0	0	0	0	0	510	512	0	0	
1	0	0	0	0	511	510	0	0	
2	0	0	0	0	511	510	0	0	
3	0	0	0	0	511	511	0	0	
4	0	0	0	0	512	509	0	0	
5	0	0	0	0	511	512	0	0	
6	0	0	0	0	508	510	0	0	
7	0	0	0	0	507	512	0	0	
8	0	0	0	0	505	510	0	0	
9	0	0	0	0	506	512	0	0	
10	0	0	0	0	507	510	0	0	
11	0	0	0	0	507	510	0	0	
12	0	0	0	0	505	511	0	0	
13	0	0	0	0	505	510	0	0	
14	0	0	0	0	504	505	0	0	
15	0	0	0	0	508	508	0	0	
0	0	0	0	0	510	511	0	0	
1	0	0	0	0	510	509	0	0	
2	0	0	0	0	512	510	0	0	
3	0	0	0	0	510	511	0	0	
4	0	0	0	0	511	511	0	0	
5	0	0	0	0	510	510	0	0	
6	0	0	0	0	510	511	0	0	
7	0	0	0	0	508	510	0	0	
8	0	0	0	0	508	509	0	0	
9	0	0	0	0	506	512	0	0	
10	0	0	0	0	507	513	0	0	
11	0	0	0	0	505	510	0	0	
12	0	0	0	0	510	511	0	0	
13	0	0	0	0	512	510	0	0	
14	0	0	0	0	515	510	0	0	
15	0	0	0	0	509	511	0	0	
0	0	0	0	0	504	510	0	0	
1	0	0	0	0	504	511	0	0	
2	0	0	0	0	505	511	0	0	
3	0	0	0	0	508	509	0	0	
4	0	0	0	0	510	511	0	0	
5	0	0	0	0	510	511	0	0	
6	0	0	0	0	510	511	0	0	
7	0	0	0	0	508	510	0	0	
8	0	0	0	0	512	510	0	0	
9	0	0	0	0	511	512	0	0	
10	0	0	0	0	510	513	0	0	
11	0	0	0	0	511	512	0	0	
12	0	0	0	0	510	510	0	0	
13	0	0	0	0	511	510	0	0	
14	0	0	0	0	510	510	0	0	
15	0	0	0	0	508	512	0	0	
0	0	0	0	0	505	513	0	0	
1	0	0	0	0	505	511	0	0	
2	0	0	0	0	505	511	0	0	
3	0	0	0	0	505	510	0	0	
4	0	0	0	0	506	509	0	0	
5	0	0	0	0	506	509	0	0	
6	0	0	0	0	505	508	0	0	
7	0	0	0	0	505	508	0	0	
8	0	0	0	0	509	510	0	0	
9	0	0	0	0	510	509	0	0	
10	0	0	0	0	510	510	0	0	
11	0	0	0	0	511	509	0	0	
12	0	0	0	0	512	509	0	0	
13	0	0	0	0	512	510	0	0	
14	0	0	0	0	512	511	0	0	
15	0	0	0	0	510	513	0	0	
0	0	0	0	0	510	511	0	0	
1	0	0	0	0	511	515	0	0	
2	0	0	0	0	508	510	0	0	
3	0	0	0	0	507	511	0	0	
4	0	0	0	0	505	510	0	0	
5	0	0	0	0	505	510	0	0	
6	0	0	0	0	507	509	0	0	
7	0	0	0	0	507	508	0	0	
8	0	0	0	0	507	508	0	0	
9	0	0	0	0	507	510	0	0	
10	0	0	0	0	507	510	0	0	
11	0	0	0	0	506	512	0	0	
12	0	0	0	0	507	511	0	0	
13	0	0	0	0	509	509	0	0	
14	0	0	0	0	509	510	0	0	
15	0	0	0	0	511	509	0	0	
0	0	0	0	0	513	508	0	0	
1	0	0	0	0	511	513	0	0	
2	0	0	0	0	513	511	0	0	
3	0	0	0	0	511	513	0	0	
4	0	0	0	0	507	513	0	0	
5	0	0	0	0	509	513	0	0	
6	0	0	0	0	507	512	0	0	
7	0	0	0	0	507	511	0	0	
8	0	0	0	0	509	508	0	0	
9	0	0	0	0	506	511	0	0	
10	0	0	0	0	504	511	0	0	
11	0	0	0	0	504	511	0	0	
12	0	0	0	0	504	508	0	0	
13	0	0	0	0	507	511	0	0	
14	0	0	0	0	507	510	0	0	
15	0	0	0	0	509	508	0	0	
0	0	0	0	0	508	509	0	0	
1	0	0	0	0	510	510	0	0	
2	0	0	0	0	513	512	0	0	
3	0	0	0	0	512	511	0	0	
4	0	0	0	0	512	512	0	0	
5	0	0	0	0	511	511	0	0	
6	0	0	0	0	510	512	0	0	
7	0	0	0	0	513	509	0	0	
8	0	0	0	0	511	509	0	0	
9	0	0	0	0	509	510	0	0	
10	0	0	0	0	508	512	0	0	
11	0	0	0	0	505	511	0	0	
12	0	0	0	0	507	509	0	0	
13	0	0	0	0	505	510	0	0	
14	0	0	0	0	506	511	0	0	
15	0	0	0	0	504	509	0	0	
0	0	0	0	0	505	511	0	0	
1	0	0	0	0	505	510	0	0	
2	0	0	0	0	506	511	0	0	
3	0	0	0	0	505	509	0	0	
4	0	0	0	0	508	511	0	0	
5	0	0	0	0	513	511	0	0	
6	0	0	0	0	515	512	0	0	
7	0	0	0	0	513	511	0	0	
8	0	0	0	0	513	510	0	0	
9	0	0	0	0	510	510	0	0	
10	0	0	0	0	511	512	0	0	
11	0	0	0	0	510	512	0	0	
12	0	0	0	0	507	508	0	0	
13	0	0	0	0	511	511	0	0	
14	0	0	0	0	508	510	0	0	
15	0	0	0	0	505	512	0	0	
0	0	0	0	0	508	509	0	0	
1	0	0	0	0	507	512	0	0	
2	0	0	0	0	505	511	0	0	
3	0	0	0	0	505	511	0	0	
4	0	0	0	0	506	512	0	0	
5	0	0	0	0	505	511	0	0	
6	0	0	0	0	507	511	0	0	
7	0	0	0	0	507	509	0	0	
8	0	0	0	0	509	509	0	0	
9	0	0	0	0	510	511	0	0	
10	0	0	0	0	512	512	0	0	
11	0	0	0	0	510	510	0	0	
12	0	0	0	0	512	511	0	0	
13	0	0	0	0	514	511	0	0	
14	0	0	0	0	512	511	0	0	
15	0	0	0	0	511	510	0	0	
0	0	0	0	0	510	508	0	0	
1	0	0	0	0	508	512	0	0	
2	0	0	0	0	508	510	0	0	
3	0	0	0	0	505	511	0	0	
4	0	0	0	0	507	511	0	0	
5	0	0	0	0	508	509	0	0	
6	0	0	0	0	504	511	0	0	
7	0	0	0	0	505	510	0	0	
8	0	0	0	0	508	514	0	0	
9	0	0	0	0	506	511	0	0	
10	0	0	0	0	507	508	0	0	
11	0	0	0	0	510	507	0	0	
12	0	0	0	0	508	508	0	0	
13	0	0	0	0	511	510	0	0	
14	0	0	0	0	511	509	0	0	
15	0	0	0	0	512	512	0	0	
0	0	0	0	0	512	514	0	0	
1	0	0	0	0	509	514	0	0	
2	0	0	0	0	509	512	0	0	
3	0	0	0	0	509	511	0	0	
4	0	0	0	0	507	509	0	0	
5	0	0	0	0	507	511	0	0	
6	0	0	0	0	507	510	0	0	
7	0	0	0	0	506	508	0	0	
8	0	0	0	0	505	509	0	0	
9	0	0	0	0	513	511	0	0	
10	0	0	0	0	519	512	0	0	
11	0	0	0	0	507	511	0	0	
12	0	0	0	0	504	508	0	0	
13	0	0	0	0	505	511	0	0	
14	0	0	0	0	507	510	0	0	
15	0	0	0	0	505	511	0	0	
0	0	0	0	0	505	511	0	0	
1	0	0	0	0	508	512	0	0	
2	0	0	0	0	512	513	0	0	
3	0	0	0	0	513	512	0	0	
4	0	0	0	0	512	509	0	0	
5	0	0	0	0	512	510	0	0	
6	0	0	0	0	509	510	0	0	
7	0	0	0	0	510	513	0	0	
8	0	0	0	0	509	510	0	0	
9	0	0	0	0	510	512	0	0	
10	0	0	0	0	507	513	0	0	
11	0	0	0	0	508	511	0	0	
12	0	0	0	0	505	509	0	0	
13	0	0	0	0	505	510	0	0	
14	0	0	0	0	506	509	0	0	
15	0	0	0	0	505	510	0	0	
0	0	0	0	0	505	510	0	0	
1	0	0	0	0	508	510	0	0	
2	0	0	0	0	507	509	0	0	
3	0	0	0	0	509	509	0	0	
4	0	0	0	0	508	511	0	0	
5	0	0	0	0	508	511	0	0	
6	0	0	0	0	510	510	0	0	
7	0	0	0	0	512	511	0	0	
8	0	0	0	0	513	512	0	0	
9	0	0	0	0	515	511	0	0	
10	0	0	0	0	511	509	0	0	
11	0	0	0	0	511	511	0	0	
12	0	0	0	0	506	510	0	0	
13	0	0	0	0	506	510	0	0	
14	0	0	0	0	507	511	0	0	
15	0	0	0	0	504	511	0	0	
0	0	0	0	0	504	510	0	0	
1	0	0	0	0	504	510	0	0	
2	0	0	0	0	505	510	0	0	
3	0	0	0	0	508	512	0	0	
4	0	0	0	0	509	513	0	0	
5	0	0	0	0	510	510	0	0	
6	0	0	0	0	509	510	0	0	
7	0	0	0	0	511	507	0	0	
8	0	0	0	0	511	509	0	0	
9	0	0	0	0	512	509	0	0	
10	0	0	0	0	510	511	0	0	
11	0	0	0	0	512	511	0	0	
12	0	0	0	0	513	510	0	0	
13	0	0	0	0	512	512	0	0	
14	0	0	0	0	510	510	0	0	
15	0	0	0	0	510	512	0	0	
0	0	0	0	0	507	509	0	0	
1	0	0	0	0	507	509	0	0	
2	0	0	0	0	507	508	0	0	
3	0	0	0	0	506	509	0	0	
4	0	0	0	0	505	511	0	0	
5	0	0	0	0	507	511	0	0	
6	0	0	0	0	505	511	0	0	
7	0	0	0	0	507	511	0	0	
8	0	0	0	0	505	512	0	0	
9	0	0	0	0	504	510	0	0	
10	0	0	0	0	505	512	0	0	
11	0	0	0	0	508	510	0	0	
12	0	0	0	0	509	510	0	0	
13	0	0	0	0	512	511	0	0	
14	0	0	0	0	511	512	0	0	
15	0	0	0	0	512	512	0	0	
0	0	0	0	0	511	511	0	0	
1	0	0	0	0	510	510	0	0	
2	0	0	0	0	512	510	0	0	
3	0	0	0	0	510	510	0	0	
4	0	0	0	0	509	509	0	0	
5	0	0	0	0	511	510	0	0	
6	0	0	0	0	510	511	0	0	
7	0	0	0	0	510	510	0	0	
8	0	0	0	0	510	510	0	0	
9	0	0	0	0	506	509	0	0	
10	0	0	0	0	503	510	0	0	
11	0	0	0	0	504	510	0	0	
12	0	0	0	0	504	510	0	0	
13	0	0	0	0	505	511	0	0	
14	0	0	0	0	504	511	0	0	
15	0	0	0	0	503	512	0	0	
0	0	0	0	0	504	509	0	0	
1	0	0	0	0	513	511	0	0	
2	0	0	0	0	519	511	0	0	
3	0	0	0	0	520	512	0	0	
4	0	0	0	0	511	512	0	0	
5	0	0	0	0	510	510	0	0	
6	0	0	0	0	507	512	0	0	
7	0	0	0	0	510	511	0	0	
8	0	0	0	0	508	511	0	0	
9	0	0	0	0	507	511	0	0	
10	0	0	0	0	510	514	0	0	
11	0	0	0	0	506	509	0	0	
12	0	0	0	0	508	509	0	0	
13	0	0	0	0	508	509	0	0	
14	0	0	0	0	505	509	0	0	
15	0	0	0	0	505	513	0	0	
0	0	0	0	0	503	513	0	0	
1	0	0	0	0	504	510	0	0	
2	0	0	0	0	505	512	0	0	
3	0	0	0	0	505	509	0	0	
4	0	0	0	0	507	509	0	0	
5	0	0	0	0	508	508	0	0	
6	0	0	0	0	511	511	0	0	
7	0	0	0	0	511	509	0	0	
8	0	0	0	0	511	508	0	0	
9	0	0	0	0	512	511	0	0	
10	0	0	0	0	515	509	0	0	
11	0	0	0	0	516	510	0	0	
12	0	0	0	0	513	511	0	0	
13	0	0	0	0	508	511	0	0	
14	0	0	0	0	508	511	0	0	
15	0	0	0	0	505	512	0	0	
0	0	0	0	0	508	512	0	0	
1	0	0	0	0	507	511	0	0	
2	0	0	0	0	504	512	0	0	
3	0	0	0	0	505	510	0	0	
4	0	0	0	0	508	508	0	0	
5	0	0	0	0	506	510	0	0	
6	0	0	0	0	509	509	0	0	
7	0	0	0	0	506	509	0	0	
8	0	0	0	0	506	511	0	0	
9	0	0	0	0	511	511	0	0	
10	0	0	0	0	513	513	0	0	
11	0	0	0	0	511	514	0	0	
12	0	0	0	0	512	512	0	0	
13	0	0	0	0	511	508	0	0	
14	0	0	0	0	512	511	0	0	
15	0	0	0	0	511	511	0	0	
0	0	0	0	0	510	510	0	0	
1	0	0	0	0	510	510	0	0	
2	0	0	0	0	510	509	0	0	
3	0	0	0	0	508	507	0	0	
4	0	0	0	0	506	508	0	0	
5	0	0	0	0	505	511	0	0	
6	0	0	0	0	507	513	0	0	
7	0	0	0	0	508	511	0	0	
8	0	0	0	0	506	510	0	0	
9	0	0	0	0	505	511	0	0	
10	0	0	0	0	505	511	0	0	
11	0	0	0	0	505	511	0	0	
12	0	0	0	0	507	511	0	0	
13	0	0	0	0	510	511	0	0	
14	0	0	0	0	511	511	0	0	
15	0	0	0	0	512	509	0	0	
0	0	0	0	0	509	512	0	0	
1	0	0	0	0	511	511	0	0	
2	0	0	0	0	510	510	0	0	
3	0	0	0	0	512	511	0	0	
4	0	0	0	0	509	511	0	0	
5	0	0	0	0	509	510	0	0	
6	0	0	0	0	508	511	0	0	
7	0	0	0	0	506	511	0	0	
8	0	0	0	0	507	511	0	0	
9	0	0	0	0	506	510	0	0	
10	0	0	0	0	508	508	0	0	
11	0	0	0	0	505	510	0	0	
12	0	0	0	0	507	510	0	0	
13	0	0	0	0	507	511	0	0	
14	0	0	0	0	505	512	0	0	
15	0	0	0	0	505	509	0	0	
0	0	0	0	0	505	511	0	0	
1	0	0	0	0	509	511	0	0	
2	0	0	0	0	511	511	0	0	
3	0	0	0	0	515	510	0	0	
4	0	0	0	0	522	510	0	0	
5	0	0	0	0	515	510	0	0	
6	0	0	0	0	515	511	0	0	
7	0	0	0	0	509	510	0	0	
8	0	0	0	0	505	512	0	0	
9	0	0	0	0	508	512	0	0	
10	0	0	0	0	506	511	0	0	
11	0	0	0	0	507	511	0	0	
12	0	0	0	0	506	512	0	0	
13	0	0	0	0	507	512	0	0	
14	0	0	0	0	505	512	0	0	
15	0	0	0	0	506	512	0	0	
0	0	0	0	0	505	511	0	0	
1	0	0	0	0	507	509	0	0	
2	0	0	0	0	504	510	0	0	
3	0	0	0	0	508	511	0	0	
4	0	0	0	0	508	509	0	0	
5	0	0	0	0	509	511	0	0	
6	0	0	0	0	515	509	0	0	
7	0	0	0	0	518	510	0	0	
8	0	0	0	0	514	511	0	0	
9	0	0	0	0	513	510	0	0	
10	0	0	0	0	512	509	0	0	
11	0	0	0	0	508	509	0	0	
12	0	0	0	0	507	511	0	0	
13	0	0	0	0	510	511	0	0	
14	0	0	0	0	507	510	0	0	
15	0	0	0	0	504	510	0	0	
0	0	0	0	0	506	510	0	0	
1	0	0	0	0	506	508	0	0	
2	0	0	0	0	505	508	0	0	
3	0	0	0	0	505	511	0	0	
4	0	0	0	0	502	510	0	0	
5	0	0	0	0	507	512	0	0	
6	0	0	0	0	505	510	0	0	
7	0	0	0	0	504	512	0	0	
8	0	0	0	0	509	513	0	0	
9	0	0	0	0	511	511	0	0	
10	0	0	0	0	511	513	0	0	
11	0	0	0	0	514	511	0	0	
12	0	0	0	0	512	510	0	0	
13	0	0	0	0	510	508	0	0	
14	0	0	0	0	511	509	0	0	
15	0	0	0	0	510	511	0	0	
0	0	0	0	0	511	513	0	0	
1	0	0	0	0	511	510	0	0	
2	0	0	0	0	509	510	0	0	
3	0	0	0	0	510	511	0	0	
4	0	0	0	0	508	512	0	0	
5	0	0	0	0	506	510	0	0	
6	0	0	0	0	506	510	0	0	
7	0	0	0	0	507	509	0	0	
8	0	0	0	0	506	509	0	0	
9	0	0	0	0	502	510	0	0	
10	0	0	0	0	503	510	0	0	
11	0	0	0	0	507	509	0	0	
12	0	0	0	0	509	511	0	0	
13	0	0	0	0	511	509	0	0	
14	0	0	0	0	512	510	0	0	
15	0	0	0	0	509	510	0	0	
0	0	0	0	0	511	513	0	0	
1	0	0	0	0	511	512	0	0	
2	0	0	0	0	511	512	0	0	
3	0	0	0	0	512	512	0	0	
4	0	0	0	0	509	511	0	0	
5	0	0	0	0	508	510	0	0	
6	0	0	0	0	506	510	0	0	
7	0	0	0	0	506	510	0	0	
8	0	0	0	0	507	511	0	0	
9	0	0	0	0	509	510	0	0	
10	0	0	0	0	507	510	0	0	
11	0	0	0	0	506	511	0	0	
12	0	0	0	0	508	510	0	0	
13	0	0	0	0	506	510	0	0	
14	0	0	0	0	508	510	0	0	
15	0	0	0	0	507	510	0	0	
0	0	0	0	0	508	513	0	0	
1	0	0	0	0	508	509	0	0	
2	0	0	0	0	508	510	0	0	
3	0	0	0	0	509	510	0	0	
4	0	0	0	0	512	511	0	0	
5	0	0	0	0	515	511	0	0	
6	0	0	0	0	510	509	0	0	
7	0	0	0	0	511	510	0	0	
8	0	0	0	0	510	511	0	0	
9	0	0	0	0	510	511	0	0	
10	0	0	0	0	508	512	0	0	
11	0	0	0	0	508	511	0	0	
12	0	0	0	0	506	511	0	0	
13	0	0	0	0	506	511	0	0	
14	0	0	0	0	505	511	0	0	
15	0	0	0	0	506	511	0	0	
0	0	0	0	0	504	510	0	0	
1	0	0	0	0	506	511	0	0	
2	0	0	0	0	506	511	0	0	
3	0	0	0	0	507	510	0	0	
4	0	0	0	0	508	508	0	0	
5	0	0	0	0	511	507	0	0	
6	0	0	0	0	511	510	0	0	
7	0	0	0	0	511	511	0	0	
8	0	0	0	0	513	512	0	0	
9	0	0	0	0	513	512	0	0	
10	0	0	0	0	513	508	0	0	
11	0	0	0	0	513	511	0	0	
12	0	0	0	0	511	510	0	0	
13	0	0	0	0	508	511	0	0	
14	0	0	0	0	508	512	0	0	
15	0	0	0	0	508	511	0	0	
0	0	0	0	0	507	510	0	0	
1	0	0	0	0	508	511	0	0	
2	0	0	0	0	505	510	0	0	
3	0	0	0	0	505	511	0	0	
4	0	0	0	0	505	512	0	0	
5	0	0	0	0	505	512	0	0	
6	0	0	0	0	504	509	0	0	
7	0	0	0	0	502	510	0	0	
8	0	0	0	0	506	511	0	0	
9	0	0	0	0	512	510	0	0	
10	0	0	0	0	512	508	0	0	
11	0	0	0	0	510	509	0	0	
12	0	0	0	0	519	512	0	0	
13	0	0	0	0	520	512	0	0	
14	0	0	0	0	517	512	0	0	
15	0	0	0	0	511	511	0	0	
0	0	0	0	0	508	508	0	0	
1	0	0	0	0	507	509	0	0	
2	0	0	0	0	506	509	0	0	
3	0	0	0	0	504	510	0	0	
4	0	0	0	0	505	509	0	0	
5	0	0	0	0	504	510	0	0	
6	0	0	0	0	504	511	0	0	
7	0	0	0	0	507	510	0	0	
8	0	0	0	0	505	507	0	0	
9	0	0	0	0	504	509	0	0	
10	0	0	0	0	506	511	0	0	
11	0	0	0	0	508	509	0	0	
12	0	0	0	0	509	511	0	0	
13	0	0	0	0	510	510	0	0	
14	0	0	0	0	511	509	0	0	
15	0	0	0	0	510	513	0	0	
0	0	0	0	0	511	513	0	0	
1	0	0	0	0	513	513	0	0	
2	0	0	0	0	511	512	0	0	
3	0	0	0	0	513	511	0	0	
4	0	0	0	0	510	509	0	0	
5	0	0	0	0	510	509	0	0	
6	0	0	0	0	508	511	0	0	
7	0	0	0	0	506	512	0	0	
8	0	0	0	0	506	512	0	0	
9	0	0	0	0	505	510	0	0	
10	0	0	0	0	504	510	0	0	
11	0	0	0	0	504	510	0	0	
12	0	0	0	0	506	510	0	0	
13	0	0	0	0	506	509	0	0	
14	0	0	0	0	507	510	0	0	
15	0	0	0	0	510	511	0	0	
0	0	0	0	0	509	511	0	0	
1	0	0	0	0	511	510	0	0	
2	0	0	0	0	512	514	0	0	
3	0	0	0	0	511	511	0	0	
4	0	0	0	0	514	511	0	0	
5	0	0	0	0	513	512	0	0	
6	0	0	0	0	514	509	0	0	
7	0	0	0	0	511	512	0	0	
8	0	0	0	0	507	511	0	0	
9	0	0	0	0	509	512	0	0	
10	0	0	0	0	510	511	0	0	
11	0	0	0	0	507	511	0	0	
12	0	0	0	0	505	510	0	0	
13	0	0	0	0	504	512	0	0	
14	0	0	0	0	504	511	0	0	
15	0	0	0	0	505	509	0	0	
0	0	0	0	0	505	508	0	0	
1	0	0	0	0	508	508	0	0	
2	0	0	0	0	507	506	0	0	
3	0	0	0	0	508	510	0	0	
4	0	0	0	0	506	509	0	0	
5	0	0	0	0	509	508	0	0	
6	0	0	0	0	512	511	0	0	
7	0	0	0	0	510	510	0	0	
8	0	0	0	0	513	511	0	0	
9	0	0	0	0	511	510	0	0	
10	0	0	0	0	511	515	0	0	
11	0	0	0	0	511	511	0	0	
12	0	0	0	0	511	511	0	0	
13	0	0	0	0	510	511	0	0	
14	0	0	0	0	510	512	0	0	
15	0	0	0	0	508	512	0	0	
0	0	0	0	0	507	511	0	0	
1	0	0	0	0	505	511	0	0	
2	0	0	0	0	504	512	0	0	
3	0	0	0	0	505	511	0	0	
4	0	0	0	0	508	510	0	0	
5	0	0	0	0	507	510	0	0	
6	0	0	0	0	508	508	0	0	
7	0	0	0	0	507	509	0	0	
8	0	0	0	0	508	509	0	0	
9	0	0	0	0	508	510	0	0	
10	0	0	0	0	510	511	0	0	
11	0	0	0	0	511	511	0	0	
12	0	0	0	0	510	510	0	0	
13	0	0	0	0	512	512	0	0	
14	0	0	0	0	512	513	0	0	
15	0	0	0	0	511	512	0	0	
0	0	0	0	0	512	510	0	0	
1	0	0	0	0	510	509	0	0	
2	0	0	0	0	508	510	0	0	
3	0	0	0	0	505	510	0	0	
4	0	0	0	0	507	508	0	0	
5	0	0	0	0	504	511	0	0	
6	0	0	0	0	504	510	0	0	
7	0	0	0	0	505	512	0	0	
8	0	0	0	0	504	511	0	0	
9	0	0	0	0	507	510	0	0	
10	0	0	0	0	509	510	0	0	
11	0	0	0	0	509	510	0	0	
12	0	0	0	0	508	512	0	0	
13	0	0	0	0	511	509	0	0	
14	0	0	0	0	509	510	0	0	
15	0	0	0	0	512	510	0	0	
0	0	0	0	0	513	511	0	0	
1	0	0	0	0	513	510	0	0	
2	0	0	0	0	515	508	0	0	
3	0	0	0	0	512	513	0	0	
4	0	0	0	0	507	509	0	0	
5	0	0	0	0	507	509	0	0	
6	0	0	0	0	507	511	0	0	
7	0	0	0	0	504	510	0	0	
8	0	0	0	0	504	510	0	0	
9	0	0	0	0	504	511	0	0	
10	0	0	0	0	504	511	0	0	
11	0	0	0	0	504	512	0	0	
12	0	0	0	0	502	511	0	0	
13	0	0	0	0	507	511	0	0	
14	0	0	0	0	510	509	0	0	
15	0	0	0	0	519	513	0	0	
0	0	0	0	0	513	510	0	0	
1	0	0	0	0	505	509	0	0	
2	0	0	0	0	507	511	0	0	
3	0	0	0	0	508	511	0	0	
4	0	0	0	0	512	509	0	0	
5	0	0	0	0	515	511	0	0	
6	0	0	0	0	514	512	0	0	
7	0	0	0	0	511	513	0	0	
8	0	0	0	0	510	512	0	0	
9	0	0	0	0	508	512	0	0	
10	0	0	0	0	507	510	0	0	
11	0	0	0	0	505	508	0	0	
12	0	0	0	0	507	508	0	0	
13	0	0	0	0	505	510	0	0	
14	0	0	0	0	505	511	0	0	
15	0	0	0	0	504	508	0	0	
0	0	0	0	0	504	509	0	0	
1	0	0	0	0	504	511	0	0	
2	0	0	0	0	506	510	0	0	
3	0	0	0	0	507	511	0	0	
4	0	0	0	0	507	510	0	0	
5	0	0	0	0	509	510	0	0	
6	0	0	0	0	509	512	0	0	
7	0	0	0	0	511	512	0	0	
8	0	0	0	0	513	512	0	0	
9	0	0	0	0	515	509	0	0	
10	0	0	0	0	515	511	0	0	
11	0	0	0	0	511	513	0	0	
12	0	0	0	0	511	512	0	0	
13	0	0	0	0	511	510	0	0	
14	0	0	0	0	508	510	0	0	
15	0	0	0	0	507	509	0	0	
0	0	0	0	0	504	510	0	0	
1	0	0	0	0	507	511	0	0	
2	0	0	0	0	505	510	0	0	
3	0	0	0	0	505	510	0	0	
4	0	0	0	0	505	508	0	0	
5	0	0	0	0	504	510	0	0	
6	0	0	0	0	508	510	0	0	
7	0	0	0	0	506	511	0	0	
8	0	0	0	0	506	512	0	0	
9	0	0	0	0	507	511	0	0	
10	0	0	0	0	510	512	0	0	
11	0	0	0	0	511	510	0	0	
12	0	0	0	0	513	510	0	0	
13	0	0	0	0	513	510	0	0	
14	0	0	0	0	510	511	0	0	
15	0	0	0	0	510	512	0	0	
0	0	0	0	0	511	512	0	0	
1	0	0	0	0	510	509	0	0	
2	0	0	0	0	511	511	0	0	
3	0	0	0	0	509	511	0	0	
4	0	0	0	0	508	509	0	0	
5	0	0	0	0	505	508	0	0	
6	0	0	0	0	504	511	0	0	
7	0	0	0	0	507	511	0	0	
8	0	0	0	0	507	511	0	0	
9	0	0	0	0	506	511	0	0	
10	0	0	0	0	507	508	0	0	
11	0	0	0	0	507	508	0	0	
12	0	0	0	0	508	510	0	0	
13	0	0	0	0	509	511	0	0	
14	0	0	0	0	510	509	0	0	
15	0	0	0	0	511	510	0	0	
0	0	0	0	0	511	511	0	0	
1	0	0	0	0	512	511	0	0	
2	0	0	0	0	512	511	0	0	
3	0	0	0	0	511	512	0	0	
4	0	0	0	0	509	512	0	0	
5	0	0	0	0	508	511	0	0	
6	0	0	0	0	509	511	0	0	
7	0	0	0	0	506	511	0	0	
8	0	0	0	0	508	510	0	0	
9	0	0	0	0	506	510	0	0	
10	0	0	0	0	505	510	0	0	
11	0	0	0	0	507	508	0	0	
12	0	0	0	0	504	508	0	0	
13	0	0	0	0	505	510	0	0	
14	0	0	0	0	508	511	0	0	
15	0	0	0	0	510	510	0	0	
0	0	0	0	0	508	509	0	0	
1	0	0	0	0	511	512	0	0	
2	0	0	0	0	511	512	0	0	
3	0	0	0	0	509	510	0	0	
4	0	0	0	0	511	510	0	0	
5	0	0	0	0	513	511	0	0	
6	0	0	0	0	511	512	0	0	
7	0	0	0	0	512	512	0	0	
8	0	0	0	0	508	510	0	0	
9	0	0	0	0	508	512	0	0	
10	0	0	0	0	508	508	0	0	
11	0	0	0	0	508	510	0	0	
12	0	0	0	0	508	511	0	0	
13	0	0	0	0	508	510	0	0	
14	0	0	0	0	509	510	0	0	
15	0	0	0	0	508	512	0	0	
0	0	0	0	0	507	512	0	0	
1	0	0	0	0	507	513	0	0	
2	0	0	0	0	504	510	0	0	
3	0	0	0	0	506	508	0	0	
4	0	0	0	0	507	511	0	0	
5	0	0	0	0	511	508	0	0	
6	0	0	0	0	511	510	0	0	
7	0	0	0	0	510	509	0	0	
8	0	0	0	0	510	508	0	0	
9	0	0	0	0	509	513	0	0	
10	0	0	0	0	512	511	0	0	
11	0	0	0	0	512	514	0	0	
12	0	0	0	0	509	511	0	0	
13	0	0	0	0	507	510	0	0	
14	0	0	0	0	509	511	0	0	
15	0	0	0	0	507	508	0	0	
0	0	0	0	0	505	511	0	0	
1	0	0	0	0	507	511	0	0	
2	0	0	0	0	505	511	0	0	
3	0	0	0	0	504	511	0	0	
4	0	0	0	0	505	510	0	0	
5	0	0	0	0	505	510	0	0	
6	0	0	0	0	505	510	0	0	
7	0	0	0	0	508	511	0	0	
8	0	0	0	0	507	511	0	0	
9	0	0	0	0	510	513	0	0	
10	0	0	0	0	509	510	0	0	
11	0	0	0	0	511	509	0	0	
12	0	0	0	0	513	511	0	0	
13	0	0	0	0	515	511	0	0	
14	0	0	0	0	517	513	0	0	
15	0	0	0	0	521	512	0	0	
0	0	0	0	0	509	511	0	0	
1	0	0	0	0	505	512	0	0	
2	0	0	0	0	505	511	0	0	
3	0	0	0	0	503	509	0	0	
4	0	0	0	0	503	512	0	0	
5	0	0	0	0	503	508	0	0	
6	0	0	0	0	507	509	0	0	
7	0	0	0	0	507	511	0	0	
8	0	0	0	0	507	508	0	0	
9	0	0	0	0	508	508	0	0	
10	0	0	0	0	509	509	0	0	
11	0	0	0	0	508	510	0	0	
12	0	0	0	0	506	510	0	0	
13	0	0	0	0	509	510	0	0	
14	0	0	0	0	510	509	0	0	
15	0	0	0	0	510	510	0	0	
0	0	0	0	0	512	511	0	0	
1	0	0	0	0	509	511	0	0	
2	0	0	0	0	512	514	0	0	
3	0	0	0	0	511	511	0	0	
4	0	0	0	0	509	510	0	0	
5	0	0	0	0	510	511	0	0	
6	0	0	0	0	509	511	0	0	
7	0	0	0	0	507	510	0	0	
8	0	0	0	0	505	511	0	0	
9	0	0	0	0	506	512	0	0	
10	0	0	0	0	506	511	0	0	
11	0	0	0	0	505	508	0	0	
12	0	0	0	0	504	510	0	0	
13	0	0	0	0	505	511	0	0	
14	0	0	0	0	507	510	0	0	
15	0	0	0	0	507	511	0	0	
0	0	0	0	0	507	509	0	0	
1	0	0	0	0	509	509	0	0	
2	0	0	0	0	510	511	0	0	
3	0	0	0	0	512	510	0	0	
4	0	0	0	0	513	512	0	0	
5	0	0	0	0	515	511	0	0	
6	0	0	0	0	513	510	0	0	
7	0	0	0	0	512	510	0	0	
8	0	0	0	0	512	512	0	0	
9	0	0	0	0	508	510	0	0	
10	0	0	0	0	508	511	0	0	
11	0	0	0	0	505	511	0	0	
12	0	0	0	0	504	511	0	0	
13	0	0	0	0	504	510	0	0	
14	0	0	0	0	504	511	0	0	
15	0	0	0	0	504	510	0	0	
0	0	0	0	0	504	511	0	0	
1	0	0	0	0	508	510	0	0	
2	0	0	0	0	510	512	0	0	
3	0	0	0	0	513	511	0	0	
4	0	0	0	0	508	511	0	0	
5	0	0	0	0	507	511	0	0	
6	0	0	0	0	508	510	0	0	
7	0	0	0	0	508	511	0	0	
8	0	0	0	0	511	511	0	0	
9	0	0	0	0	511	512	0	0	
10	0	0	0	0	515	511	0	0	
11	0	0	0	0	513	509	0	0	
12	0	0	0	0	510	509	0	0	
13	0	0	0	0	510	510	0	0	
14	0	0	0	0	509	508	0	0	
15	0	0	0	0	508	510	0	0	
0	0	0	0	0	505	511	0	0	
1	0	0	0	0	504	512	0	0	
2	0	0	0	0	505	510	0	0	
3	0	0	0	0	504	511	0	0	
4	0	0	0	0	505	510	0	0	
5	0	0	0	0	506	513	0	0	
6	0	0	0	0	506	508	0	0	
7	0	0	0	0	508	509	0	0	
8	0	0	0	0	507	513	0	0	
9	0	0	0	0	510	511	0	0	
10	0	0	0	0	511	510	0	0	
11	0	0	0	0	517	510	0	0	
12	0	0	0	0	524	511	0	0	
13	0	0	0	0	514	511	0	0	
14	0	0	0	0	507	512	0	0	
15	0	0	0	0	506	511	0	0	
0	0	0	0	0	504	510	0	0	
1	0	0	0	0	508	511	0	0	
2	0	0	0	0	510	511	0	0	
3	0	0	0	0	512	511	0	0	
4	0	0	0	0	511	510	0	0	
5	0	0	0	0	507	510	0	0	
6	0	0	0	0	505	511	0	0	
7	0	0	0	0	502	510	0	0	
8	0	0	0	0	502	512	0	0	
9	0	0	0	0	504	511	0	0	
10	0	0	0	0	504	513	0	0	
11	0	0	0	0	506	511	0	0	
12	0	0	0	0	508	509	0	0	
13	0	0	0	0	510	507	0	0	
14	0	0	0	0	514	507	0	0	
15	0	0	0	0	512	507	0	0	
0	0	0	0	0	512	509	0	0	
1	0	0	0	0	511	510	0	0	
2	0	0	0	0	511	511	0	0	
3	0	0	0	0	505	512	0	0	
4	0	0	0	0	509	511	0	0	
5	0	0	0	0	510	513	0	0	
6	0	0	0	0	513	512	0	0	
7	0	0	0	0	509	513	0	0	
8	0	0	0	0	504	512	0	0	
9	0	0	0	0	506	510	0	0	
10	0	0	0	0	507	512	0	0	
11	0	0	0	0	505	508	0	0	
12	0	0	0	0	503	507	0	0	
13	0	0	0	0	511	510	0	0	
14	0	0	0	0	510	514	0	0	
15	0	0	0	0	507	512	0	0	
0	0	0	0	0	505	511	0	0	
1	0	0	0	0	507	510	0	0	
2	0	0	0	0	510	510	0	0	
3	0	0	0	0	511	511	0	0	
4	0	0	0	0	513	510	0	0	
5	0	0	0	0	513	511	0	0	
6	0	0	0	0	513	509	0	0	
7	0	0	0	0	512	509	0	0	
8	0	0	0	0	509	510	0	0	
9	0	0	0	0	510	509	0	0	
10	0	0	0	0	509	511	0	0	
11	0	0	0	0	509	511	0	0	
12	0	0	0	0	508	510	0	0	
13	0	0	0	0	506	510	0	0	
14	0	0	0	0	505	511	0	0	
15	0	0	0	0	504	509	0	0	
0	0	0	0	0	505	508	0	0	
1	0	0	0	0	504	507	0	0	
2	0	0	0	0	504	511	0	0	
3	0	0	0	0	508	511	0	0	
4	0	0	0	0	509	509	0	0	
5	0	0	0	0	510	509	0	0	
6	0	0	0	0	510	512	0	0	
7	0	0	0	0	513	512	0	0	
8	0	0	0	0	515	511	0	0	
9	0	0	0	0	516	511	0	0	
10	0	0	0	0	511	511	0	0	
11	0	0	0	0	510	510	0	0	
12	0	0	0	0	508	510	0	0	
13	0	0	0	0	508	511	0	0	
14	0	0	0	0	510	511	0	0	
15	0	0	0	0	507	509	0	0	
0	0	0	0	0	504	511	0	0	
1	0	0	0	0	504	511	0	0	
2	0	0	0	0	505	509	0	0	
3	0	0	0	0	507	512	0	0	
4	0	0	0	0	512	510	0	0	
5	0	0	0	0	511	510	0	0	
6	0	0	0	0	504	511	0	0	
7	0	0	0	0	508	509	0	0	
8	0	0	0	0	507	510	0	0	
9	0	0	0	0	509	512	0	0	
10	0	0	0	0	509	510	0	0	
11	0	0	0	0	510	510	0	0	
12	0	0	0	0	511	513	0	0	
13	0	0	0	0	511	512	0	0	
14	0	0	0	0	511	512	0	0	
15	0	0	0	0	511	511	0	0	
0	0	0	0	0	509	511	0	0	
1	0	0	0	0	508	510	0	0	
2	0	0	0	0	508	511	0	0	
3	0	0	0	0	509	511	0	0	
4	0	0	0	0	504	512	0	0	
5	0	0	0	0	504	512	0	0	
6	0	0	0	0	509	509	0	0	
7	0	0	0	0	511	509	0	0	
8	0	0	0	0	508	509	0	0	
9	0	0	0	0	509	511	0	0	
10	0	0	0	0	498	510	0	0	
11	0	0	0	0	504	510	0	0	
12	0	0	0	0	510	509	0	0	
13	0	0	0	0	515	509	0	0	
14	0	0	0	0	513	512	0	0	
15	0	0	0	0	512	511	0	0	
0	0	0	0	0	510	512	0	0	
1	0	0	0	0	510	511	0	0	
2	0	0	0	0	513	512	0	0	
3	0	0	0	0	513	508	0	0	
4	0	0	0	0	511	510	0	0	
5	0	0	0	0	509	510	0	0	
6	0	0	0	0	507	508	0	0	
7	0	0	0	0	504	509	0	0	
8	0	0	0	0	503	510	0	0	
9	0	0	0	0	503	509	0	0	
10	0	0	0	0	507	511	0	0	
11	0	0	0	0	504	509	0	0	
12	0	0	0	0	505	509	0	0	
13	0	0	0	0	506	510	0	0	
14	0	0	0	0	506	512	0	0	
15	0	0	0	0	510	510	0	0	
0	0	0	0	0	513	512	0	0	
1	0	0	0	0	521	510	0	0	
2	0	0	0	0	518	510	0	0	
3	0	0	0	0	509	511	0	0	
4	0	0	0	0	508	509	0	0	
5	0	0	0	0	509	510	0	0	
6	0	0	0	0	508	510	0	0	
7	0	0	0	0	510	509	0	0	
8	0	0	0	0	505	511	0	0	
9	0	0	0	0	508	512	0	0	
10	0	0	0	0	508	512	0	0	
11	0	0	0	0	508	511	0	0	
12	0	0	0	0	505	510	0	0	
13	0	0	0	0	504	510	0	0	
14	0	0	0	0	506	510	0	0	
15	0	0	0	0	504	510	0	0	
0	0	0	0	0	506	510	0	0	
1	0	0	0	0	507	510	0	0	
2	0	0	0	0	508	508	0	0	
3	0	0	0	0	509	509	0	0	
4	0	0	0	0	509	511	0	0	
5	0	0	0	0	509	511	0	0	
6	0	0	0	0	510	509	0	0	
7	0	0	0	0	513	510	0	0	
8	0	0	0	0	511	510	0	0	
9	0	0	0	0	511	511	0	0	
10	0	0	0	0	511	511	0	0	
11	0	0	0	0	508	508	0	0	
12	0	0	0	0	511	513	0	0	
13	0	0	0	0	512	511	0	0	
14	0	0	0	0	510	510	0	0	
15	0	0	0	0	508	507	0	0	
0	0	0	0	0	506	511	0	0	
1	0	0	0	0	504	510	0	0	
2	0	0	0	0	503	508	0	0	
3	0	0	0	0	504	511	0	0	
4	0	0	0	0	504	510	0	0	
5	0	0	0	0	506	510	0	0	
6	0	0	0	0	512	510	0	0	
7	0	0	0	0	507	510	0	0	
8	0	0	0	0	505	510	0	0	
9	0	0	0	0	512	508	0	0	
10	0	0	0	0	512	511	0	0	
11	0	0	0	0	516	511	0	0	
12	0	0	0	0	514	512	0	0	
13	0	0	0	0	508	512	0	0	
14	0	0	0	0	512	512	0	0	
15	0	0	0	0	509	513	0	0	
0	0	0	0	0	508	512	0	0	
1	0	0	0	0	507	511	0	0	
2	0	0	0	0	507	512	0	0	
3	0	0	0	0	505	511	0	0	
4	0	0	0	0	505	511	0	0	
5	0	0	0	0	505	511	0	0	
6	0	0	0	0	507	511	0	0	
7	0	0	0	0	505	512	0	0	
8	0	0	0	0	508	510	0	0	
9	0	0	0	0	508	507	0	0	
10	0	0	0	0	508	508	0	0	
11	0	0	0	0	505	509	0	0	
12	0	0	0	0	507	508	0	0	
13	0	0	0	0	511	508	0	0	
14	0	0	0	0	508	510	0	0	
15	0	0	0	0	509	511	0	0	
0	0	0	0	0	511	512	0	0	
1	0	0	0	0	510	512	0	0	
2	0	0	0	0	514	510	0	0	
3	0	0	0	0	512	511	0	0	
4	0	0	0	0	511	510	0	0	
5	0	0	0	0	509	510	0	0	
6	0	0	0	0	504	510	0	0	
7	0	0	0	0	504	511	0	0	
8	0	0	0	0	504	511	0	0	
9	0	0	0	0	508	511	0	0	
10	0	0	0	0	510	514	0	0	
11	0	0	0	0	514	509	0	0	
12	0	0	0	0	518	511	0	0	
13	0	0	0	0	509	510	0	0	
14	0	0	0	0	500	511	0	0	
15	0	0	0	0	502	510	0	0	
0	0	0	0	0	508	511	0	0	
1	0	0	0	0	507	510	0	0	
2	0	0	0	0	507	510	0	0	
3	0	0	0	0	508	512	0	0	
4	0	0	0	0	512	512	0	0	
5	0	0	0	0	513	511	0	0	
6	0	0	0	0	513	510	0	0	
7	0	0	0	0	514	510	0	0	
8	0	0	0	0	512	509	0	0	
9	0	0	0	0	509	509	0	0	
10	0	0	0	0	507	510	0	0	
11	0	0	0	0	504	512	0	0	
12	0	0	0	0	504	511	0	0	
13	0	0	0	0	505	513	0	0	
14	0	0	0	0	508	511	0	0	
15	0	0	0	0	505	509	0	0	
0	0	0	0	0	509	511	0	0	
1	0	0	0	0	508	510	0	0	
2	0	0	0	0	509	511	0	0	
3	0	0	0	0	508	509	0	0	
4	0	0	0	0	509	509	0	0	
5	0	0	0	0	509	510	0	0	
6	0	0	0	0	511	510	0	0	
7	0	0	0	0	510	508	0	0	
8	0	0	0	0	511	511	0	0	
9	0	0	0	0	512	511	0	0	
10	0	0	0	0	511	511	0	0	
11	0	0	0	0	509	511	0	0	
12	0	0	0	0	506	510	0	0	
13	0	0	0	0	508	512	0	0	
14	0	0	0	0	509	512	0	0	
15	0	0	0	0	506	511	0	0	
0	0	0	0	0	504	512	0	0	
1	0	0	0	0	505	511	0	0	
2	0	0	0	0	506	511	0	0	
3	0	0	0	0	505	508	0	0	
4	0	0	0	0	506	510	0	0	
5	0	0	0	0	509	512	0	0	
6	0	0	0	0	514	511	0	0	
7	0	0	0	0	512	510	0	0	
8	0	0	0	0	508	510	0	0	
9	0	0	0	0	508	511	0	0	
10	0	0	0	0	509	513	0	0	
11	0	0	0	0	513	509	0	0	
12	0	0	0	0	515	508	0	0	
13	0	0	0	0	512	510	0	0	
14	0	0	0	0	510	511	0	0	
15	0	0	0	0	509	512	0	0	
0	0	0	0	0	505	511	0	0	
1	0	0	0	0	507	510	0	0	
2	0	0	0	0	505	509	0	0	
3	0	0	0	0	505	508	0	0	
4	0	0	0	0	507	511	0	0	
5	0	0	0	0	506	511	0	0	
6	0	0	0	0	505	511	0	0	
7	0	0	0	0	504	512	0	0	
8	0	0	0	0	504	509	0	0	
9	0	0	0	0	507	509	0	0	
10	0	0	0	0	508	510	0	0	
11	0	0	0	0	508	510	0	0	
12	0	0	0	0	508	510	0	0	
13	0	0	0	0	510	510	0	0	
14	0	0	0	0	509	509	0	0	
15	0	0	0	0	510	509	0	0	
0	0	0	0	0	508	510	0	0	
1	0	0	0	0	510	511	0	0	
2	0	0	0	0	512	510	0	0	
3	0	0	0	0	516	512	0	0	
4	0	0	0	0	518	513	0	0	
5	0	0	0	0	509	513	0	0	
6	0	0	0	0	508	513	0	0	
7	0	0	0	0	506	511	0	0	
8	0	0	0	0	507	511	0	0	
9	0	0	0	0	509	511	0	0	
10	0	0	0	0	505	511	0	0	
11	0	0	0	0	504	510	0	0	
12	0	0	0	0	504	511	0	0	
13	0	0	0	0	507	510	0	0	
14	0	0	0	0	505	511	0	0	
15	0	0	0	0	506	511	0	0	
0	0	0	0	0	500	508	0	0	
1	0	0	0	0	509	510	0	0	
2	0	0	0	0	511	511	0	0	
3	0	0	0	0	510	513	0	0	
4	0	0	0	0	510	511	0	0	
5	0	0	0	0	510	511	0	0	
6	0	0	0	0	511	511	0	0	
7	0	0	0	0	511	508	0	0	
8	0	0	0	0	508	510	0	0	
9	0	0	0	0	510	511	0	0	
10	0	0	0	0	513	510	0	0	
11	0	0	0	0	521	510	0	0	
12	0	0	0	0	515	511	0	0	
13	0	0	0	0	501	508	0	0	
14	0	0	0	0	504	509	0	0	
15	0	0	0	0	502	509	0	0	
0	0	0	0	0	503	508	0	0	
1	0	0	0	0	504	510	0	0	
2	0	0	0	0	504	509	0	0	
3	0	0	0	0	504	511	0	0	
4	0	0	0	0	505	510	0	0	
5	0	0	0	0	510	512	0	0	
6	0	0	0	0	511	510	0	0	
7	0	0	0	0	514	511	0	0	
8	0	0	0	0	512	512	0	0	
9	0	0	0	0	509	512	0	0	
10	0	0	0	0	510	511	0	0	
11	0	0	0	0	515	512	0	0	
12	0	0	0	0	516	508	0	0	
13	0	0	0	0	513	508	0	0	
14	0	0	0	0	513	511	0	0	
15	0	0	0	0	508	513	0	0	
0	0	0	0	0	499	515	0	0	
1	0	0	0	0	503	511	0	0	
2	0	0	0	0	507	508	0	0	
3	0	0	0	0	508	511	0	0	
4	0	0	0	0	506	507	0	0	
5	0	0	0	0	507	509	0	0	
6	0	0	0	0	506	509	0	0	
7	0	0	0	0	509	509	0	0	
8	0	0	0	0	509	511	0	0	
9	0	0	0	0	505	509	0	0	
10	0	0	0	0	503	511	0	0	
11	0	0	0	0	505	512	0	0	
12	0	0	0	0	511	512	0	0	
13	0	0	0	0	513	511	0	0	
14	0	0	0	0	517	512	0	0	
15	0	0	0	0	518	513	0	0	
0	0	0	0	0	518	511	0	0	
1	0	0	0	0	521	510	0	0	
2	0	0	0	0	515	512	0	0	
3	0	0	0	0	504	509	0	0	
4	0	0	0	0	504	511	0	0	
5	0	0	0	0	505	511	0	0	
6	0	0	0	0	494	510	0	0	
7	0	0	0	0	483	511	0	0	
8	0	0	0	0	494	511	0	0	
9	0	0	0	0	504	511	0	0	
10	0	0	0	0	509	510	0	0	
11	0	0	0	0	511	511	0	0	
12	0	0	0	0	512	511	0	0	
13	0	0	0	0	512	511	0	0	
14	0	0	0	0	509	512	0	0	
15	0	0	0	0	509	510	0	0	
0	0	0	0	0	518	509	0	0	
1	0	0	0	0	519	512	0	0	
2	0	0	0	0	523	508	0	0	
3	0	0	0	0	518	508	0	0	
4	0	0	0	0	504	510	0	0	
5	0	0	0	0	505	512	0	0	
6	0	0	0	0	499	511	0	0	
7	0	0	0	0	499	509	0	0	
8	0	0	0	0	512	509	0	0	
9	0	0	0	0	515	510	0	0	
10	0	0	0	0	520	513	0	0	
11	0	0	0	0	512	511	0	0	
12	0	0	0	0	493	512	0	0	
13	0	0	0	0	496	512	0	0	
14	0	0	0	0	505	511	0	0	
15	0	0	0	0	509	510	0	0	
0	0	0	0	0	504	510	0	0	
1	0	0	0	0	500	511	0	0	
2	0	0	0	0	500	511	0	0	
3	0	0	0	0	507	513	0	0	
4	0	0	0	0	513	510	0	0	
5	0	0	0	0	524	509	0	0	
6	0	0	0	0	525	508	0	0	
7	0	0	0	0	515	512	0	0	
8	0	0	0	0	514	512	0	0	
9	0	0	0	0	512	510	0	0	
10	0	0	0	0	507	511	0	0	
11	0	0	0	0	505	510	0	0	
12	0	0	0	0	506	511	0	0	
13	0	0	0	0	506	510	0	0	
14	0	0	0	0	501	512	0	0	
15	0	0	0	0	500	507	0	0	
0	0	0	0	0	496	508	0	0	
1	0	0	0	0	501	512	0	0	
2	0	0	0	0	501	509	0	0	
3	0	0	0	0	506	506	0	0	
4	0	0	0	0	508	508	0	0	
5	0	0	0	0	503	513	0	0	
6	0	0	0	0	511	526	0	0	
7	0	0	0	0	516	524	0	0	
8	0	0	0	0	521	523	0	0	
9	0	0	0	0	524	513	0	0	
10	0	0	0	0	525	508	0	0	
11	0	0	0	0	511	501	0	0	
12	0	0	0	0	507	504	0	0	
13	0	0	0	0	517	506	0	0	
14	0	0	0	0	515	504	0	0	
15	0	0	0	0	514	505	0	0	
0	0	0	0	0	513	512	0	0	
1	0	0	0	0	508	507	0	0	
2	0	0	0	0	518	508	0	0	
3	0	0	0	0	503	509	0	0	
4	0	0	0	0	489	510	0	0	
5	0	0	0	0	488	507	0	0	
6	0	0	0	0	484	503	0	0	
7	0	0	0	0	482	503	0	0	
8	0	0	0	0	480	505	0	0	
9	0	0	0	0	488	506	0	0	
10	0	0	0	0	504	510	0	0	
11	0	0	0	0	525	519	0	0	
12	0	0	0	0	519	529	0	0	
13	0	0	0	0	502	530	0	0	
14	0	0	0	0	513	534	0	0	
15	0	0	0	0	547	535	0	0	
0	0	0	0	0	541	524	0	0	
1	0	0	0	0	536	518	0	0	
2	0	0	0	0	538	511	0	0	
3	0	0	0	0	511	494	0	0	
4	0	0	0	0	487	491	0	0	
5	0	0	0	0	496	496	0	0	
6	0	0	0	0	493	486	0	0	
7	0	0	0	0	507	472	0	0	
8	0	0	0	0	490	485	0	0	
9	0	0	0	0	497	508	0	0	
10	0	0	0	0	496	524	0	0	
11	0	0	0	0	513	521	0	0	
12	0	0	0	0	496	508	0	0	
13	0	0	0	0	520	506	0	0	
14	0	0	0	0	535	508	0	0	
15	0	0	0	0	519	516	0	0	
0	0	0	0	0	506	517	0	0	
1	0	0	0	0	504	523	0	0	
2	0	0	0	0	466	518	0	0	
3	0	0	0	0	456	502	0	0	
4	0	0	0	0	458	521	0	0	
5	0	0	0	0	486	533	0	0	
6	0	0	0	0	610	540	0	0	
7	0	0	0	0	610	521	0	0	
8	0	0	0	0	559	493	0	0	
9	0	0	0	0	521	484	0	0	
10	0	0	0	0	497	481	0	0	
11	0	0	0	0	487	500	0	0	
12	0	0	0	0	478	543	0	0	
13	0	0	0	0	475	542	0	0	
14	0	0	0	0	522	537	0	0	
15	0	0	0	0	530	537	0	0	
0	0	0	0	0	484	507	0	0	
1	0	0	0	0	480	485	0	0	
2	0	0	0	0	472	487	0	0	
3	0	0	0	0	491	499	0	0	
4	0	0	0	0	509	491	0	0	
5	0	0	0	0	549	485	5	0	
6	0	0	0	0	547	473	7	0	
7	0	0	0	0	507	469	8	0	
8	0	0	0	0	484	496	8	0	
9	0	0	0	0	492	516	8	0	
10	0	0	0	0	512	512	13	0	
11	0	0	0	0	484	505	14	0	
12	0	0	0	0	515	492	14	0	
13	0	0	0	0	539	517	13	0	
14	0	0	0	0	522	544	15	0	
15	0	0	0	0	527	550	15	0	
0	0	0	0	0	523	561	14	0	
1	0	0	0	0	487	544	15	0	
2	0	0	0	0	498	538	18	0	
3	0	0	0	0	495	529	16	0	
4	0	0	0	0	496	511	18	0	
5	0	0	0	0	503	496	20	0	
6	0	0	0	0	514	506	21	0	
7	0	0	0	0	521	525	22	0	
8	0	0	0	0	535	497	22	0	
9	0	0	0	0	509	471	20	0	
10	0	0	0	0	503	464	18	0	
11	0	0	0	0	522	500	23	0	
12	0	0	0	0	532	542	25	0	
13	0	0	0	0	506	559	26	0	
14	0	0	0	0	487	543	31	0	
15	0	0	0	0	471	543	31	0	
0	0	0	0	0	450	536	34	0	
1	0	0	0	0	521	513	34	0	
2	0	0	0	0	529	472	41	0	
3	0	0	0	0	524	430	44	0	
4	0	0	0	0	515	431	44	0	
5	0	0	0	0	493	467	46	0	
6	0	0	0	0	522	474	47	0	
7	0	0	0	0	556	524	55	0	
8	0	0	0	0	536	583	55	0	
9	0	0	0	0	545	564	59	0	
10	0	0	0	0	511	517	62	0	
11	0	0	0	0	486	502	66	0	
12	0	0	0	0	496	500	63	0	
13	0	0	0	0	519	497	69	0	
14	0	0	0	0	491	506	71	0	
15	0	0	0	0	446	528	75	0	
0	0	0	0	0	462	535	78	0	
1	0	0	0	0	522	524	83	0	
2	0	0	0	0	507	505	87	0	
3	0	0	0	0	465	514	89	0	
4	0	0	0	0	425	503	83	0	
5	0	0	0	0	457	488	83	0	
6	0	0	0	0	548	512	87	0	
7	0	0	0	0	637	522	86	0	
8	0	0	0	0	662	542	90	0	
9	0	0	0	0	561	530	94	0	
10	0	0	0	0	488	529	94	0	
11	0	0	0	0	491	514	96	0	
12	0	0	0	0	468	486	94	0	
13	0	0	0	0	452	452	96	0	
14	0	0	0	0	448	453	98	0	
15	0	0	0	0	466	519	102	0	
0	0	0	0	0	531	536	96	0	
1	0	0	0	0	547	515	95	0	
2	0	0	0	0	538	505	98	0	
3	0	0	0	0	506	507	97	0	
4	0	0	0	0	502	541	99	0	
5	0	0	0	0	489	541	104	0	
6	0	0	0	0	483	523	108	0	
7	0	0	0	0	506	505	108	0	
8	0	0	0	0	562	492	113	0	
9	0	0	0	0	535	480	108	0	
10	0	0	0	0	494	453	111	0	
11	0	0	0	0	513	488	119	0	
12	0	0	0	0	546	547	118	0	
13	0	0	0	0	522	549	120	0	
14	0	0	0	0	476	530	128	0	
15	0	0	0	0	470	534	131	0	
0	0	0	0	0	463	502	132	0	
1	0	0	0	0	495	518	135	0	
2	0	0	0	0	515	508	143	0	
3	0	0	0	0	562	508	139	0	
4	0	0	0	0	561	491	143	0	
5	0	0	0	0	557	527	146	0	
6	0	0	0	0	500	513	150	0	
7	0	0	0	0	487	504	161	0	
8	0	0	0	0	483	492	165	0	
9	0	0	0	0	456	507	164	0	
10	0	0	0	0	520	505	168	0	
11	0	0	0	0	566	536	164	0	
12	0	0	0	0	553	547	171	0	
13	0	0	0	0	482	482	173	0	
14	0	0	0	0	463	486	177	0	
15	0	0	0	0	459	505	179	0	
0	0	0	0	0	469	524	183	0	
1	0	0	0	0	496	517	197	0	
2	0	0	0	0	563	524	201	0	
3	0	0	0	0	568	521	212	0	
4	0	0	0	0	558	513	214	0	
5	0	0	0	0	535	505	215	0	
6	0	0	0	0	526	526	212	0	
7	0	0	0	0	512	521	216	0	
8	0	0	0	0	488	488	211	0	
9	0	0	0	0	507	493	220	0	
10	0	0	0	0	480	505	219	0	
11	0	0	0	0	466	492	240	0	
12	0	0	0	0	455	511	260	0	
13	0	0	0	0	444	510	265	0	
14	0	0	0	0	475	496	267	0	
15	0	0	0	0	508	482	273	0	
0	0	0	0	0	489	496	275	0	
1	0	0	0	0	533	522	283	0	
2	0	0	0	0	563	525	289	0	
3	0	0	0	0	545	520	297	0	
4	0	0	0	0	524	510	300	0	
5	0	0	0	0	540	532	299	0	
6	0	0	0	0	507	519	303	0	
7	0	0	0	0	486	502	302	0	
8	0	0	0	0	477	518	304	0	
9	0	0	0	0	498	520	306	0	
10	0	0	0	0	515	519	305	0	
11	0	0	0	0	472	540	310	0	
12	0	0	0	0	455	508	312	0	
13	0	0	0	0	499	508	310	0	
14	0	0	0	0	551	494	307	0	
15	0	0	0	0	561	484	308	0	
0	0	0	0	0	567	498	315	0	
1	0	0	0	0	515	539	309	0	
2	0	0	0	0	476	542	309	0	
3	0	0	0	0	478	527	305	0	
4	0	0	0	0	517	504	303	0	
5	0	0	0	0	557	513	302	0	
6	0	0	0	0	558	521	311	0	
7	0	0	0	0	572	515	309	0	
8	0	0	0	0	533	506	310	0	
9	0	0	0	0	456	482	309	0	
10	0	0	0	0	414	428	311	0	
11	0	0	0	0	463	494	311	0	
12	0	0	0	0	540	543	315	0	
13	0	0	0	0	558	535	313	0	
14	0	0	0	0	533	523	320	0	
15	0	0	0	0	487	518	316	0	
0	0	0	0	0	494	516	314	0	
1	0	0	0	0	502	547	317	0	
2	0	0	0	0	487	531	314	0	
3	0	0	0	0	510	497	315	0	
4	0	0	0	0	528	486	315	0	
5	0	0	0	0	523	486	316	0	
6	0	0	0	0	506	500	317	0	
7	0	0	0	0	518	523	318	0	
8	0	0	0	0	525	535	319	0	
9	0	0	0	0	522	537	319	0	
10	0	0	0	0	497	515	316	0	
11	0	0	0	0	516	500	316	0	
12	0	0	0	0	490	490	310	0	
13	0	0	0	0	461	497	315	0	
14	0	0	0	0	482	477	320	0	
15	0	0	0	0	499	478	321	0	
0	0	0	0	0	495	499	322	0	
1	0	0	0	0	500	501	323	0	
2	0	0	0	0	527	515	323	0	
3	0	0	0	0	551	524	323	0	
4	0	0	0	0	553	527	327	0	
5	0	0	0	0	541	518	325	0	
6	0	0	0	0	513	542	326	0	
7	0	0	0	0	456	526	333	0	
8	0	0	0	0	471	513	333	0	
9	0	0	0	0	493	520	332	0	
10	0	0	0	0	496	504	330	0	
11	0	0	0	0	506	491	331	0	
12	0	0	0	0	540	489	332	0	
13	0	0	0	0	538	517	329	0	
14	0	0	0	0	531	527	332	0	
15	0	0	0	0	518	531	334	0	
0	0	0	0	0	507	512	333	0	
1	0	0	0	0	510	524	331	0	
2	0	0	0	0	502	493	336	0	
3	0	0	0	0	503	504	339	0	
4	0	0	0	0	492	516	337	0	
5	0	0	0	0	491	510	335	0	
6	0	0	0	0	505	496	335	0	
7	0	0	0	0	516	497	335	0	
8	0	0	0	0	499	505	337	0	
9	0	0	0	0	465	516	338	0	
10	0	0	0	0	487	501	339	0	
11	0	0	0	0	577	504	340	0	
12	0	0	0	0	534	498	344	0	
13	0	0	0	0	488	491	345	0	
14	0	0	0	0	500	497	349	0	
15	0	0	0	0	515	536	348	0	
0	0	0	0	0	519	534	351	0	
1	0	0	0	0	535	513	353	0	
2	0	0	0	0	544	519	350	0	
3	0	0	0	0	514	535	352	0	
4	0	0	0	0	501	530	350	0	
5	0	0	0	0	503	528	352	0	
6	0	0	0	0	520	514	354	0	
7	0	0	0	0	496	460	357	0	
8	0	0	0	0	404	470	358	0	
9	0	0	0	0	400	521	359	0	
10	0	0	0	0	493	511	358	0	
11	0	0	0	0	571	521	359	0	
12	0	0	0	0	588	519	359	0	
13	0	0	0	0	556	523	362	0	
14	0	0	0	0	521	518	363	0	
15	0	0	0	0	497	487	363	0	
0	0	0	0	0	487	483	364	0	
1	0	0	0	0	480	484	360	0	
2	0	0	0	0	529	517	361	0	
3	0	0	0	0	514	522	362	0	
4	0	0	0	0	516	521	361	0	
5	0	0	0	0	516	529	361	0	
6	0	0	0	0	502	520	363	0	
7	0	0	0	0	466	507	362	0	
8	0	0	0	0	484	513	363	0	
9	0	0	0	0	495	505	363	0	
10	0	0	0	0	500	527	363	0	
11	0	0	0	0	502	526	363	0	
12	0	0	0	0	515	531	364	0	
13	0	0	0	0	531	503	365	0	
14	0	0	0	0	553	520	365	0	
15	0	0	0	0	559	518	365	0	
0	0	0	0	0	529	475	366	0	
1	0	0	0	0	514	456	366	0	
2	0	0	0	0	485	482	365	0	
3	0	0	0	0	500	501	364	0	
4	0	0	0	0	489	519	367	0	
5	0	0	0	0	496	532	366	0	
6	0	0	0	0	489	536	364	0	
7	0	0	0	0	508	530	364	0	
8	0	0	0	0	527	535	364	0	
9	0	0	0	0	542	521	365	0	
10	0	0	0	0	520	510	363	0	
11	0	0	0	0	481	473	362	0	
12	0	0	0	0	476	500	362	0	
13	0	0	0	0	504	515	361	0	
14	0	0	0	0	515	522	360	0	
15	0	0	0	0	499	517	361	0	
0	0	0	0	0	511	514	363	0	
1	0	0	0	0	524	497	362	0	
2	0	0	0	0	527	508	360	0	
3	0	0	0	0	540	512	361	0	
4	0	0	0	0	506	496	361	0	
5	0	0	0	0	520	508	361	0	
6	0	0	0	0	522	509	362	0	
7	0	0	0	0	505	519	359	0	
8	0	0	0	0	501	515	359	0	
9	0	0	0	0	495	491	357	0	
10	0	0	0	0	492	492	353	0	
11	0	0	0	0	483	515	352	0	
12	0	0	0	0	477	524	354	0	
13	0	0	0	0	481	512	355	0	
14	0	0	0	0	507	514	353	0	
15	0	0	0	0	539	529	354	0	
0	0	0	0	0	536	533	353	0	
1	0	0	0	0	523	542	353	0	
2	0	0	0	0	515	522	353	0	
3	0	0	0	0	493	503	356	0	
4	0	0	0	0	499	496	356	0	
5	0	0	0	0	514	501	356	0	
6	0	0	0	0	507	490	358	0	
7	0	0	0	0	488	456	358	0	
8	0	0	0	0	508	486	359	0	
9	0	0	0	0	508	517	359	0	
10	0	0	0	0	508	532	361	0	
11	0	0	0	0	504	520	361	0	
12	0	0	0	0	526	523	361	0	
13	0	0	0	0	534	508	363	0	
14	0	0	0	0	546	506	364	0	
15	0	0	0	0	527	528	364	0	
0	0	0	0	0	500	522	365	0	
1	0	0	0	0	480	519	367	0	
2	0	0	0	0	451	513	367	0	
3	0	0	0	0	458	516	367	0	
4	0	0	0	0	474	500	368	0	
5	0	0	0	0	511	506	367	0	
6	0	0	0	0	516	499	367	0	
7	0	0	0	0	513	480	368	0	
8	0	0	0	0	509	482	368	0	
9	0	0	0	0	544	523	369	0	
10	0	0	0	0	584	542	369	0	
11	0	0	0	0	600	505	371	0	
12	0	0	0	0	527	513	370	0	
13	0	0	0	0	472	530	371	0	
14	0	0	0	0	477	519	371	0	
15	0	0	0	0	468	504	372	0	
0	0	0	0	0	467	511	372	0	
1	0	0	0	0	477	508	372	0	
2	0	0	0	0	512	496	371	0	
3	0	0	0	0	516	504	371	0	
4	0	0	0	0	528	535	371	0	
5	0	0	0	0	556	533	373	0	
6	0	0	0	0	519	521	375	0	
7	0	0	0	0	512	509	373	0	
8	0	0	0	0	510	508	373	0	
9	0	0	0	0	524	506	373	0	
10	0	0	0	0	510	496	374	0	
11	0	0	0	0	474	499	374	0	
12	0	0	0	0	481	508	378	0	
13	0	0	0	0	487	503	376	0	
14	0	0	0	0	485	504	374	0	
15	0	0	0	0	474	503	375	0	
0	0	0	0	0	514	519	374	0	
1	0	0	0	0	554	548	374	0	
2	0	0	0	0	537	524	373	0	
3	0	0	0	0	554	504	372	0	
4	0	0	0	0	524	489	374	0	
5	0	0	0	0	512	497	372	0	
6	0	0	0	0	487	507	373	0	
7	0	0	0	0	480	516	371	0	
8	0	0	0	0	491	515	370	0	
9	0	0	0	0	489	512	369	0	
10	0	0	0	0	479	499	371	0	
11	0	0	0	0	501	492	371	0	
12	0	0	0	0	535	515	369	0	
13	0	0	0	0	558	530	369	0	
14	0	0	0	0	524	510	370	0	
15	0	0	0	0	496	507	369	0	
0	0	0	0	0	482	500	368	0	
1	0	0	0	0	526	509	368	0	
2	0	0	0	0	534	504	367	0	
3	0	0	0	0	513	530	366	0	
4	0	0	0	0	488	516	366	0	
5	0	0	0	0	495	518	367	0	
6	0	0	0	0	497	518	365	0	
7	0	0	0	0	528	509	364	0	
8	0	0	0	0	522	513	366	0	
9	0	0	0	0	513	501	366	0	
10	0	0	0	0	516	495	364	0	
11	0	0	0	0	498	508	361	0	
12	0	0	0	0	503	516	360	0	
13	0	0	0	0	494	511	360	0	
14	0	0	0	0	505	510	360	0	
15	0	0	0	0	510	516	359	0	
0	0	0	0	0	503	515	361	0	
1	0	0	0	0	496	513	359	0	
2	0	0	0	0	506	513	359	0	
3	0	0	0	0	501	504	358	0	
4	0	0	0	0	533	514	356	0	
5	0	0	0	0	530	521	357	0	
6	0	0	0	0	514	520	356	0	
7	0	0	0	0	520	501	358	0	
8	0	0	0	0	506	499	357	0	
9	0	0	0	0	476	485	357	0	
10	0	0	0	0	485	498	358	0	
11	0	0	0	0	507	519	359	0	
12	0	0	0	0	507	510	357	0	
13	0	0	0	0	496	512	358	0	
14	0	0	0	0	498	514	357	0	
15	0	0	0	0	480	508	358	0	
0	0	0	0	0	499	515	359	0	
1	0	0	0	0	523	531	359	0	
2	0	0	0	0	504	526	358	0	
3	0	0	0	0	492	516	359	0	
4	0	0	0	0	500	495	361	0	
5	0	0	0	0	513	497	361	0	
6	0	0	0	0	525	504	361	0	
7	0	0	0	0	552	510	360	0	
8	0	0	0	0	564	519	361	0	
9	0	0	0	0	529	521	361	0	
10	0	0	0	0	505	515	359	0	
11	0	0	0	0	512	518	359	0	
12	0	0	0	0	547	531	359	0	
13	0	0	0	0	502	521	359	0	
14	0	0	0	0	451	503	359	0	
15	0	0	0	0	458	496	356	0	
0	0	0	0	0	484	474	355	0	
1	0	0	0	0	522	485	354	0	
2	0	0	0	0	557	521	353	0	
3	0	0	0	0	559	530	352	0	
4	0	0	0	0	521	529	351	0	
5	0	0	0	0	505	498	350	0	
6	0	0	0	0	483	495	350	0	
7	0	0	0	0	464	508	349	0	
8	0	0	0	0	476	519	350	0	
9	0	0	0	0	498	501	348	0	
10	0	0	0	0	510	495	349	0	
11	0	0	0	0	501	518	348	0	
12	0	0	0	0	500	518	349	0	
13	0	0	0	0	534	512	349	0	
14	0	0	0	0	583	528	348	0	
15	0	0	0	0	527	526	347	0	
0	0	0	0	0	496	526	345	0	
1	0	0	0	0	496	517	345	0	
2	0	0	0	0	481	511	345	0	
3	0	0	0	0	470	514	344	0	
4	0	0	0	0	472	502	344	0	
5	0	0	0	0	472	482	345	0	
6	0	0	0	0	510	491	344	0	
7	0	0	0	0	540	511	344	0	
8	0	0	0	0	557	513	346	0	
9	0	0	0	0	531	516	347	0	
10	0	0	0	0	525	521	348	0	
11	0	0	0	0	505	505	347	0	
12	0	0	0	0	494	498	348	0	
13	0	0	0	0	501	519	347	0	
14	0	0	0	0	482	527	348	0	
15	0	0	0	0	480	521	348	0	
0	0	0	0	0	492	499	348	0	
1	0	0	0	0	507	489	349	0	
2	0	0	0	0	526	511	351	0	
3	0	0	0	0	553	516	351	0	
4	0	0	0	0	566	510	352	0	
5	0	0	0	0	526	507	354	0	
6	0	0	0	0	521	532	355	0	
7	0	0	0	0	519	539	356	0	
8	0	0	0	0	499	512	356	0	
9	0	0	0	0	460	494	356	0	
10	0	0	0	0	463	495	356	0	
11	0	0	0	0	497	496	355	0	
12	0	0	0	0	511	483	356	0	
13	0	0	0	0	524	482	356	0	
14	0	0	0	0	513	492	355	0	
15	0	0	0	0	527	506	357	0	
0	0	0	0	0	535	527	356	0	
1	0	0	0	0	515	544	357	0	
2	0	0	0	0	513	543	360	0	
3	0	0	0	0	502	533	359	0	
4	0	0	0	0	506	531	358	0	
5	0	0	0	0	516	527	360	0	
6	0	0	0	0	515	510	358	0	
7	0	0	0	0	509	473	359	0	
8	0	0	0	0	473	485	360	0	
9	0	0	0	0	453	497	360	0	
10	0	0	0	0	492	507	360	0	
11	0	0	0	0	540	520	360	0	
12	0	0	0	0	523	510	359	0	
13	0	0	0	0	511	528	359	0	
14	0	0	0	0	505	530	359	0	
15	0	0	0	0	501	520	358	0	
0	0	0	0	0	496	519	360	0	
1	0	0	0	0	495	510	358	0	
2	0	0	0	0	535	513	358	0	
3	0	0	0	0	529	485	358	0	
4	0	0	0	0	496	486	358	0	
5	0	0	0	0	467	493	359	0	
6	0	0	0	0	484	514	359	0	
7	0	0	0	0	519	513	358	0	
8	0	0	0	0	524	509	356	0	
9	0	0	0	0	515	506	355	0	
10	0	0	0	0	511	505	355	0	
11	0	0	0	0	514	526	355	0	
12	0	0	0	0	529	524	355	0	
13	0	0	0	0	532	523	354	0	
14	0	0	0	0	544	520	356	0	
15	0	0	0	0	550	516	355	0	
0	0	0	0	0	553	491	355	0	
1	0	0	0	0	520	496	354	0	
2	0	0	0	0	489	521	354	0	
3	0	0	0	0	471	518	356	0	
4	0	0	0	0	470	489	357	0	
5	0	0	0	0	463	503	358	0	
6	0	0	0	0	447	512	358	0	
7	0	0	0	0	449	526	358	0	
8	0	0	0	0	499	520	358	0	
9	0	0	0	0	523	508	358	0	
10	0	0	0	0	550	517	359	0	
11	0	0	0	0	534	505	358	0	
12	0	0	0	0	510	509	357	0	
13	0	0	0	0	492	520	359	0	
14	0	0	0	0	514	519	359	0	
15	0	0	0	0	528	530	357	0	
0	0	0	0	0	522	515	355	0	
1	0	0	0	0	505	492	358	0	
2	0	0	0	0	529	491	355	0	
3	0	0	0	0	542	503	357	0	
4	0	0	0	0	516	491	355	0	
5	0	0	0	0	493	489	356	0	
6	0	0	0	0	510	508	358	0	
7	0	0	0	0	516	524	358	0	
8	0	0	0	0	468	529	357	0	
9	0	0	0	0	479	537	359	0	
10	0	0	0	0	498	516	359	0	
11	0	0	0	0	513	514	361	0	
12	0	0	0	0	522	505	359	0	
13	0	0	0	0	550	510	360	0	
14	0	0	0	0	548	503	359	0	
15	0	0	0	0	526	491	361	0	
0	0	0	0	0	486	477	364	0	
1	0	0	0	0	493	514	362	0	
2	0	0	0	0	495	547	362	0	
3	0	0	0	0	475	526	363	0	
4	0	0	0	0	483	496	364	0	
5	0	0	0	0	532	488	362	0	
6	0	0	0	0	542	504	363	0	
7	0	0	0	0	525	509	363	0	
8	0	0	0	0	515	514	362	0	
9	0	0	0	0	521	514	362	0	
10	0	0	0	0	540	524	360	0	
11	0	0	0	0	519	505	360	0	
12	0	0	0	0	500	510	361	0	
13	0	0	0	0	452	505	363	0	
14	0	0	0	0	471	519	362	0	
15	0	0	0	0	495	501	362	0	
0	0	0	0	0	504	531	363	0	
1	0	0	0	0	546	531	364	0	
2	0	0	0	0	578	524	365	0	
3	0	0	0	0	541	522	366	0	
4	0	0	0	0	474	507	365	0	
5	0	0	0	0	442	475	366	0	
6	0	0	0	0	442	485	368	0	
7	0	0	0	0	467	499	367	0	
8	0	0	0	0	489	503	366	0	
9	0	0	0	0	512	505	367	0	
10	0	0	0	0	536	528	369	0	
11	0	0	0	0	536	530	368	0	
12	0	0	0	0	516	519	368	0	
13	0	0	0	0	517	516	368	0	
14	0	0	0	0	505	506	370	0	
15	0	0	0	0	512	500	372	0	
0	0	0	0	0	529	503	371	0	
1	0	0	0	0	534	504	369	0	
2	0	0	0	0	510	518	369	0	
3	0	0	0	0	516	513	369	0	
4	0	0	0	0	519	516	368	0	
5	0	0	0	0	515	513	368	0	
6	0	0	0	0	511	511	369	0	
7	0	0	0	0	497	505	368	0	
8	0	0	0	0	518	518	368	0	
9	0	0	0	0	518	507	369	0	
10	0	0	0	0	490	502	369	0	
11	0	0	0	0	507	514	369	0	
12	0	0	0	0	535	511	368	0	
13	0	0	0	0	518	499	367	0	
14	0	0	0	0	487	502	368	0	
15	0	0	0	0	483	532	368	0	
0	0	0	0	0	494	513	368	0	
1	0	0	0	0	532	515	367	0	
2	0	0	0	0	539	504	366	0	
3	0	0	0	0	532	513	364	0	
4	0	0	0	0	508	533	364	0	
5	0	0	0	0	491	527	364	0	
6	0	0	0	0	466	497	364	0	
7	0	0	0	0	461	504	365	0	
8	0	0	0	0	461	494	366	0	
9	0	0	0	0	478	496	366	0	
10	0	0	0	0	504	506	367	0	
11	0	0	0	0	524	504	368	0	
12	0	0	0	0	531	511	367	0	
13	0	0	0	0	542	507	368	0	
14	0	0	0	0	542	506	367	0	
15	0	0	0	0	539	512	367	0	
0	0	0	0	0	519	518	366	0	
1	0	0	0	0	468	503	366	0	
2	0	0	0	0	496	514	369	0	
3	0	0	0	0	515	515	367	0	
4	0	0	0	0	531	509	367	0	
5	0	0	0	0	521	519	367	0	
6	0	0	0	0	519	514	364	0	
7	0	0	0	0	522	537	364	0	
8	0	0	0	0	492	493	364	0	
9	0	0	0	0	490	500	364	0	
10	0	0	0	0	502	531	364	0	
11	0	0	0	0	500	507	364	0	
12	0	0	0	0	524	510	363	0	
13	0	0	0	0	498	515	363	0	
14	0	0	0	0	511	516	363	0	
15	0	0	0	0	520	507	364	0	
0	0	0	0	0	540	504	364	0	
1	0	0	0	0	526	500	364	0	
2	0	0	0	0	500	516	364	0	
3	0	0	0	0	492	507	364	0	
4	0	0	0	0	495	519	364	0	
5	0	0	0	0	485	516	363	0	
6	0	0	0	0	513	496	364	0	
7	0	0	0	0	528	497	367	0	
8	0	0	0	0	491	505	366	0	
9	0	0	0	0	491	506	365	0	
10	0	0	0	0	560	508	366	0	
11	0	0	0	0	564	510	366	0	
12	0	0	0	0	527	510	367	0	
13	0	0	0	0	488	518	364	0	
14	0	0	0	0	479	511	365	0	
15	0	0	0	0	482	530	364	0	
0	0	0	0	0	446	511	365	0	
1	0	0	0	0	465	503	366	0	
2	0	0	0	0	539	513	365	0	
3	0	0	0	0	556	504	365	0	
4	0	0	0	0	503	512	364	0	
5	0	0	0	0	480	487	364	0	
6	0	0	0	0	501	482	363	0	
7	0	0	0	0	539	515	364	0	
8	0	0	0	0	523	521	363	0	
9	0	0	0	0	508	526	365	0	
10	0	0	0	0	505	524	364	0	
11	0	0	0	0	530	530	363	0	
12	0	0	0	0	515	523	364	0	
13	0	0	0	0	440	506	364	0	
14	0	0	0	0	424	498	364	0	
15	0	0	0	0	500	504	362	0	
0	0	0	0	0	552	514	363	0	
1	0	0	0	0	564	504	363	0	
2	0	0	0	0	543	496	360	0	
3	0	0	0	0	511	511	359	0	
4	0	0	0	0	474	535	359	0	
5	0	0	0	0	472	529	357	0	
6	0	0	0	0	489	520	358	0	
7	0	0	0	0	536	504	357	0	
8	0	0	0	0	578	497	356	0	
9	0	0	0	0	521	491	355	0	
10	0	0	0	0	515	511	355	0	
11	0	0	0	0	522	510	354	0	
12	0	0	0	0	540	516	353	0	
13	0	0	0	0	524	512	354	0	
14	0	0	0	0	503	511	355	0	
15	0	0	0	0	510	526	356	0	
0	0	0	0	0	500	532	356	0	
1	0	0	0	0	487	514	356	0	
2	0	0	0	0	473	479	357	0	
3	0	0	0	0	487	461	356	0	
4	0	0	0	0	494	499	356	0	
5	0	0	0	0	512	560	356	0	
6	0	0	0	0	510	534	358	0	
7	0	0	0	0	500	513	357	0	
8	0	0	0	0	484	511	356	0	
9	0	0	0	0	478	504	359	0	
10	0	0	0	0	492	503	359	0	
11	0	0	0	0	512	507	359	0	
12	0	0	0	0	560	517	359	0	
13	0	0	0	0	564	523	359	0	
14	0	0	0	0	537	519	359	0	
15	0	0	0	0	532	509	358	0	
0	0	0	0	0	525	499	356	0	
1	0	0	0	0	510	505	356	0	
2	0	0	0	0	459	505	358	0	
3	0	0	0	0	440	501	358	0	
4	0	0	0	0	459	502	358	0	
5	0	0	0	0	511	506	356	0	
6	0	0	0	0	579	524	355	0	
7	0	0	0	0	554	497	355	0	
8	0	0	0	0	476	488	355	0	
9	0	0	0	0	448	509	354	0	
10	0	0	0	0	467	509	354	0	
11	0	0	0	0	484	519	354	0	
12	0	0	0	0	493	521	354	0	
13	0	0	0	0	532	524	354	0	
14	0	0	0	0	563	515	355	0	
15	0	0	0	0	560	513	356	0	
0	0	0	0	0	511	517	356	0	
1	0	0	0	0	513	516	354	0	
2	0	0	0	0	531	519	355	0	
3	0	0	0	0	529	498	356	0	
4	0	0	0	0	516	500	358	0	
5	0	0	0	0	509	505	359	0	
6	0	0	0	0	520	510	358	0	
7	0	0	0	0	499	505	358	0	
8	0	0	0	0	499	510	359	0	
9	0	0	0	0	525	513	359	0	
10	0	0	0	0	515	526	360	0	
11	0	0	0	0	504	511	360	0	
12	0	0	0	0	491	502	359	0	
13	0	0	0	0	465	508	359	0	
14	0	0	0	0	473	510	360	0	
15	0	0	0	0	487	499	359	0	
0	0	0	0	0	488	514	356	0	
1	0	0	0	0	495	519	359	0	
2	0	0	0	0	510	520	358	0	
3	0	0	0	0	531	502	359	0	
4	0	0	0	0	532	510	359	0	
5	0	0	0	0	528	505	358	0	
6	0	0	0	0	542	500	358	0	
7	0	0	0	0	545	511	357	0	
8	0	0	0	0	518	533	359	0	
9	0	0	0	0	524	533	359	0	
10	0	0	0	0	512	524	359	0	
11	0	0	0	0	501	502	359	0	
12	0	0	0	0	492	499	359	0	
13	0	0	0	0	467	499	359	0	
14	0	0	0	0	427	487	358	0	
15	0	0	0	0	467	514	359	0	
0	0	0	0	0	519	515	359	0	
1	0	0	0	0	513	503	359	0	
2	0	0	0	0	518	511	358	0	
3	0	0	0	0	531	498	359	0	
4	0	0	0	0	511	503	361	0	
5	0	0	0	0	511	513	360	0	
6	0	0	0	0	516	513	361	0	
7	0	0	0	0	513	523	361	0	
8	0	0	0	0	519	532	361	0	
9	0	0	0	0	540	515	361	0	
10	0	0	0	0	521	505	362	0	
11	0	0	0	0	537	512	362	0	
12	0	0	0	0	534	518	361	0	
13	0	0	0	0	510	516	359	0	
14	0	0	0	0	496	515	359	0	
15	0	0	0	0	505	508	357	0	
0	0	0	0	0	502	502	356	0	
1	0	0	0	0	502	505	358	0	
2	0	0	0	0	506	495	356	0	
3	0	0	0	0	518	520	353	0	
4	0	0	0	0	483	524	355	0	
5	0	0	0	0	473	516	355	0	
6	0	0	0	0	509	503	354	0	
7	0	0	0	0	543	507	355	0	
8	0	0	0	0	513	504	356	0	
9	0	0	0	0	480	517	356	0	
10	0	0	0	0	476	519	356	0	
11	0	0	0	0	496	509	359	0	
12	0	0	0	0	514	504	359	0	
13	0	0	0	0	527	502	359	0	
14	0	0	0	0	524	507	356	0	
15	0	0	0	0	515	507	357	0	
0	0	0	0	0	493	512	358	0	
1	0	0	0	0	491	511	356	0	
2	0	0	0	0	512	509	357	0	
3	0	0	0	0	513	502	358	0	
4	0	0	0	0	535	529	358	0	
5	0	0	0	0	554	518	357	0	
6	0	0	0	0	547	507	358	0	
7	0	0	0	0	479	497	357	0	
8	0	0	0	0	438	496	356	0	
9	0	0	0	0	454	508	353	0	
10	0	0	0	0	507	526	354	0	
11	0	0	0	0	511	528	354	0	
12	0	0	0	0	507	502	354	0	
13	0	0	0	0	526	503	357	0	
14	0	0	0	0	522	507	357	0	
15	0	0	0	0	537	516	356	0	
0	0	0	0	0	549	526	355	0	
1	0	0	0	0	537	518	355	0	
2	0	0	0	0	506	516	354	0	
3	0	0	0	0	493	505	352	0	
4	0	0	0	0	502	504	350	0	
5	0	0	0	0	508	512	351	0	
6	0	0	0	0	505	498	350	0	
7	0	0	0	0	515	508	349	0	
8	0	0	0	0	500	519	350	0	
9	0	0	0	0	495	517	350	0	
10	0	0	0	0	508	517	350	0	
11	0	0	0	0	505	502	349	0	
12	0	0	0	0	507	491	348	0	
13	0	0	0	0	496	501	348	0	
14	0	0	0	0	487	503	348	0	
15	0	0	0	0	496	511	347	0	
0	0	0	0	0	505	518	345	0	
1	0	0	0	0	507	527	344	0	
2	0	0	0	0	519	540	345	0	
3	0	0	0	0	536	537	345	0	
4	0	0	0	0	544	528	348	0	
5	0	0	0	0	523	503	346	0	
6	0	0	0	0	521	488	344	0	
7	0	0	0	0	515	487	344	0	
8	0	0	0	0	503	493	343	0	
9	0	0	0	0	494	516	342	0	
10	0	0	0	0	503	524	342	0	
11	0	0	0	0	512	528	341	0	
12	0	0	0	0	504	497	343	0	
13	0	0	0	0	502	485	340	0	
14	0	0	0	0	471	477	341	0	
15	0	0	0	0	441	492	339	0	
0	0	0	0	0	491	531	340	0	
1	0	0	0	0	501	528	340	0	
2	0	0	0	0	483	510	338	0	
3	0	0	0	0	496	505	335	0	
4	0	0	0	0	550	504	335	0	
5	0	0	0	0	566	512	335	0	
6	0	0	0	0	533	515	334	0	
7	0	0	0	0	529	515	332	0	
8	0	0	0	0	501	516	329	0	
9	0	0	0	0	483	516	328	0	
10	0	0	0	0	491	513	328	0	
11	0	0	0	0	519	514	328	0	
12	0	0	0	0	532	514	330	0	
13	0	0	0	0	540	513	332	0	
14	0	0	0	0	533	514	329	0	
15	0	0	0	0	523	512	329	0	
0	0	0	0	0	497	511	329	0	
1	0	0	0	0	496	519	325	0	
2	0	0	0	0	501	525	322	0	
3	0	0	0	0	498	512	323	0	
4	0	0	0	0	510	513	324	0	
5	0	0	0	0	508	502	323	0	
6	0	0	0	0	495	501	324	0	
7	0	0	0	0	494	508	319	0	
8	0	0	0	0	496	504	322	0	
9	0	0	0	0	504	518	318	0	
10	0	0	0	0	512	511	319	0	
11	0	0	0	0	510	510	319	0	
12	0	0	0	0	507	516	318	0	
13	0	0	0	0	498	513	316	0	
14	0	0	0	0	504	507	316	0	
15	0	0	0	0	505	501	314	0	
0	0	0	0	0	517	498	312	0	
1	0	0	0	0	524	506	315	0	
2	0	0	0	0	531	514	314	0	
3	0	0	0	0	524	507	315	0	
4	0	0	0	0	518	505	316	0	
5	0	0	0	0	507	507	316	0	
6	0	0	0	0	498	512	316	0	
7	0	0	0	0	505	516	313	0	
8	0	0	0	0	502	508	311	0	
9	0	0	0	0	490	509	310	0	
10	0	0	0	0	495	515	310	0	
11	0	0	0	0	518	519	311	0	
12	0	0	0	0	523	513	311	0	
13	0	0	0	0	523	502	311	0	
14	0	0	0	0	495	504	313	0	
15	0	0	0	0	477	506	312	0	
0	0	0	0	0	492	508	313	0	
1	0	0	0	0	511	528	312	0	
2	0	0	0	0	521	526	312	0	
3	0	0	0	0	538	523	311	0	
4	0	0	0	0	527	508	311	0	
5	0	0	0	0	521	512	309	0	
6	0	0	0	0	507	510	310	0	
7	0	0	0	0	502	510	312	0	
8	0	0	0	0	494	511	309	0	
9	0	0	0	0	501	512	310	0	
10	0	0	0	0	502	509	311	0	
11	0	0	0	0	518	507	309	0	
12	0	0	0	0	518	504	310	0	
13	0	0	0	0	506	501	310	0	
14	0	0	0	0	509	505	309	0	
15	0	0	0	0	507	505	306	0	
0	0	0	0	0	497	509	306	0	
1	0	0	0	0	498	509	305	0	
2	0	0	0	0	498	513	305	0	
3	0	0	0	0	503	516	304	0	
4	0	0	0	0	511	508	305	0	
5	0	0	0	0	514	510	302	0	
6	0	0	0	0	508	507	302	0	
7	0	0	0	0	511	490	303	0	
8	0	0	0	0	509	506	304	0	
9	0	0	0	0	511	514	304	0	
10	0	0	0	0	524	514	302	0	
11	0	0	0	0	516	512	299	0	
12	0	0	0	0	516	511	302	0	
13	0	0	0	0	522	513	300	0	
14	0	0	0	0	516	516	298	0	
15	0	0	0	0	499	512	298	0	
0	0	0	0	0	491	509	298	0	
1	0	0	0	0	496	511	299	0	
2	0	0	0	0	496	512	297	0	
3	0	0	0	0	504	513	298	0	
4	0	0	0	0	500	510	299	0	
5	0	0	0	0	507	515	291	0	
6	0	0	0	0	510	520	290	0	
7	0	0	0	0	515	517	291	0	
8	0	0	0	0	510	513	291	0	
9	0	0	0	0	503	508	280	0	
10	0	0	0	0	516	508	274	0	
11	0	0	0	0	531	509	271	0	
12	0	0	0	0	512	501	268	0	
13	0	0	0	0	502	505	267	0	
14	0	0	0	0	504	504	267	0	
15	0	0	0	0	511	505	266	0	
0	0	0	0	0	514	518	267	0	
1	0	0	0	0	504	518	264	0	
2	0	0	0	0	508	512	261	0	
3	0	0	0	0	521	509	260	0	
4	0	0	0	0	512	510	253	0	
5	0	0	0	0	490	512	252	0	
6	0	0	0	0	483	513	250	0	
7	0	0	0	0	501	514	247	0	
8	0	0	0	0	530	514	246	0	
9	0	0	0	0	536	506	246	0	
10	0	0	0	0	519	515	247	0	
11	0	0	0	0	511	518	245	0	
12	0	0	0	0	502	518	243	0	
13	0	0	0	0	498	525	240	0	
14	0	0	0	0	500	521	240	0	
15	0	0	0	0	513	515	237	0	
0	0	0	0	0	513	506	236	0	
1	0	0	0	0	516	507	233	0	
2	0	0	0	0	517	495	231	0	
3	0	0	0	0	505	471	230	0	
4	0	0	0	0	503	474	230	0	
5	0	0	0	0	508	490	227	0	
6	0	0	0	0	507	502	224	0	
7	0	0	0	0	505	508	224	0	
8	0	0	0	0	504	520	220	0	
9	0	0	0	0	501	531	219	0	
10	0	0	0	0	500	536	219	0	
11	0	0	0	0	500	535	219	0	
12	0	0	0	0	500	538	220	0	
13	0	0	0	0	500	534	216	0	
14	0	0	0	0	501	519	211	0	
15	0	0	0	0	506	504	207	0	
0	0	0	0	0	519	495	205	0	
1	0	0	0	0	521	502	202	0	
2	0	0	0	0	514	504	200	0	
3	0	0	0	0	499	496	194	0	
4	0	0	0	0	499	488	191	0	
5	0	0	0	0	513	487	189	0	
6	0	0	0	0	511	504	186	0	
7	0	0	0	0	487	510	184	0	
8	0	0	0	0	516	518	178	0	
9	0	0	0	0	525	531	175	0	
10	0	0	0	0	525	515	173	0	
11	0	0	0	0	530	514	169	0	
12	0	0	0	0	525	518	167	0	
13	0	0	0	0	537	516	169	0	
14	0	0	0	0	504	504	167	0	
15	0	0	0	0	511	495	166	0	
0	0	0	0	0	520	490	162	0	
1	0	0	0	0	515	480	160	0	
2	0	0	0	0	509	492	150	0	
3	0	0	0	0	521	511	148	0	
4	0	0	0	0	519	513	149	0	
5	0	0	0	0	488	517	147	0	
6	0	0	0	0	467	523	147	0	
7	0	0	0	0	435	520	146	0	
8	0	0	0	0	451	516	145	0	
9	0	0	0	0	485	514	137	0	
10	0	0	0	0	491	514	135	0	
11	0	0	0	0	519	516	133	0	
12	0	0	0	0	553	518	132	0	
13	0	0	0	0	540	517	130	0	
14	0	0	0	0	531	511	126	0	
15	0	0	0	0	538	515	129	0	
0	0	0	0	0	530	520	128	0	
1	0	0	0	0	513	517	127	0	
2	0	0	0	0	506	508	124	0	
3	0	0	0	0	517	507	126	0	
4	0	0	0	0	495	509	124	0	
5	0	0	0	0	482	507	127	0	
6	0	0	0	0	488	510	125	0	
7	0	0	0	0	506	510	122	0	
8	0	0	0	0	514	503	124	0	
9	0	0	0	0	551	506	122	0	
10	0	0	0	0	585	510	123	0	
11	0	0	0	0	556	512	119	0	
12	0	0	0	0	511	514	120	0	
13	0	0	0	0	492	511	118	0	
14	0	0	0	0	468	512	115	0	
15	0	0	0	0	477	515	120	0	
0	0	0	0	0	467	516	116	0	
1	0	0	0	0	472	511	116	0	
2	0	0	0	0	499	510	115	0	
3	0	0	0	0	498	509	113	0	
4	0	0	0	0	510	509	115	0	
5	0	0	0	0	511	511	114	0	
6	0	0	0	0	488	512	116	0	
7	0	0	0	0	472	509	117	0	
8	0	0	0	0	473	510	117	0	
9	0	0	0	0	512	509	117	0	
10	0	0	0	0	542	511	115	0	
11	0	0	0	0	531	515	115	0	
12	0	0	0	0	527	513	114	0	
13	0	0	0	0	519	515	116	0	
14	0	0	0	0	530	513	118	0	
15	0	0	0	0	544	511	118	0	
0	0	0	0	0	535	511	116	0	
1	0	0	0	0	523	511	117	0	
2	0	0	0	0	525	510	115	0	
3	0	0	0	0	502	511	117	0	
4	0	0	0	0	511	508	120	0	
5	0	0	0	0	515	507	121	0	
6	0	0	0	0	510	505	119	0	
7	0	0	0	0	500	508	115	0	
8	0	0	0	0	483	507	116	0	
9	0	0	0	0	496	507	116	0	
10	0	0	0	0	472	502	118	0	
11	0	0	0	0	469	509	114	0	
12	0	0	0	0	495	508	115	0	
13	0	0	0	0	512	512	114	0	
14	0	0	0	0	527	515	111	0	
15	0	0	0	0	517	515	112	0	
0	0	0	0	0	519	512	115	0	
1	0	0	0	0	551	509	115	0	
2	0	0	0	0	524	511	113	0	
3	0	0	0	0	502	510	105	0	
4	0	0	0	0	498	510	108	0	
5	0	0	0	0	486	511	101	0	
6	0	0	0	0	498	513	101	0	
7	0	0	0	0	506	511	100	0	
8	0	0	0	0	513	511	102	0	
9	0	0	0	0	510	510	106	0	
10	0	0	0	0	486	509	99	0	
11	0	0	0	0	497	512	101	0	
12	0	0	0	0	521	513	100	0	
13	0	0	0	0	512	512	101	0	
14	0	0	0	0	519	513	100	0	
15	0	0	0	0	508	511	97	0	
0	0	0	0	0	495	510	96	0	
1	0	0	0	0	520	509	97	0	
2	0	0	0	0	521	508	100	0	
3	0	0	0	0	519	507	97	0	
4	0	0	0	0	526	505	94	0	
5	0	0	0	0	524	507	92	0	
6	0	0	0	0	527	515	92	0	
7	0	0	0	0	508	515	89	0	
8	0	0	0	0	494	513	89	0	
9	0	0	0	0	490	512	88	0	
10	0	0	0	0	499	513	89	0	
11	0	0	0	0	484	512	91	0	
12	0	0	0	0	506	510	90	0	
13	0	0	0	0	496	507	93	0	
14	0	0	0	0	491	508	94	0	
15	0	0	0	0	486	507	96	0	
0	0	0	0	0	508	510	98	0	
1	0	0	0	0	508	512	97	0	
2	0	0	0	0	508	512	99	0	
3	0	0	0	0	539	510	100	0	
4	0	0	0	0	563	510	100	0	
5	0	0	0	0	583	512	100	0	
6	0	0	0	0	539	511	100	0	
7	0	0	0	0	499	508	98	0	
8	0	0	0	0	480	506	99	0	
9	0	0	0	0	484	512	97	0	
10	0	0	0	0	483	512	96	0	
11	0	0	0	0	478	513	95	0	
12	0	0	0	0	486	512	93	0	
13	0	0	0	0	502	511	94	0	
14	0	0	0	0	508	512	93	0	
15	0	0	0	0	510	510	91	0	
0	0	0	0	0	528	509	90	0	
1	0	0	0	0	536	511	88	0	
2	0	0	0	0	521	509	80	0	
3	0	0	0	0	492	508	76	0	
4	0	0	0	0	497	509	71	0	
5	0	0	0	0	512	511	70	0	
6	0	0	0	0	520	511	65	0	
7	0	0	0	0	524	511	62	0	
8	0	0	0	0	512	510	59	0	
9	0	0	0	0	495	509	60	0	
10	0	0	0	0	494	511	55	0	
11	0	0	0	0	489	512	51	0	
12	0	0	0	0	477	508	49	0	
13	0	0	0	0	489	509	42	0	
14	0	0	0	0	501	513	32	0	
15	0	0	0	0	523	512	27	0	
0	0	0	0	0	519	510	16	0	
1	0	0	0	0	527	513	6	0	
2	0	0	0	0	516	508	0	0	
3	0	0	0	0	536	512	0	0	
4	0	0	0	0	529	511	0	0	
5	0	0	0	0	512	509	0	0	
6	0	0	0	0	494	510	0	0	
7	0	0	0	0	504	510	0	0	
8	0	0	0	0	506	509	0	0	
9	0	0	0	0	508	513	0	0	
10	0	0	0	0	503	510	0	0	
11	0	0	0	0	502	512	0	0	
12	0	0	0	0	508	512	0	0	
13	0	0	0	0	506	509	0	0	
14	0	0	0	0	504	508	0	0	
15	0	0	0	0	519	513	0	0	
0	0	0	0	0	524	514	0	0	
1	0	0	0	0	521	512	0	0	
2	0	0	0	0	526	511	0	0	
3	0	0	0	0	511	511	0	0	
4	0	0	0	0	505	513	0	0	
5	0	0	0	0	496	508	0	0	
6	0	0	0	0	487	505	0	0	
7	0	0	0	0	478	505	0	0	
8	0	0	0	0	504	509	0	0	
9	0	0	0	0	515	511	0	0	
10	0	0	0	0	519	512	0	0	
11	0	0	0	0	521	511	0	0	
12	0	0	0	0	516	511	0	0	
13	0	0	0	0	517	513	0	0	
14	0	0	0	0	504	512	0	0	
15	0	0	0	0	490	510	0	0	
0	0	0	0	0	492	509	0	0	
1	0	0	0	0	492	510	0	0	
2	0	0	0	0	512	511	0	0	
3	0	0	0	0	519	511	0	0	
4	0	0	0	0	510	510	0	0	
5	0	0	0	0	524	510	0	0	
6	0	0	0	0	510	509	0	0	
7	0	0	0	0	505	511	0	0	
8	0	0	0	0	512	510	0	0	
9	0	0	0	0	520	512	0	0	
10	0	0	0	0	514	509	0	0	
11	0	0	0	0	510	511	0	0	
12	0	0	0	0	510	511	0	0	
13	0	0	0	0	509	512	0	0	
14	0	0	0	0	511	511	0	0	
15	0	0	0	0	505	514	0	0	
0	0	0	0	0	499	512	0	0	
1	0	0	0	0	501	511	0	0	
2	0	0	0	0	504	508	0	0	
3	0	0	0	0	511	510	0	0	
4	0	0	0	0	507	509	0	0	
5	0	0	0	0	509	510	0	0	
6	0	0	0	0	505	512	0	0	
7	0	0	0	0	507	510	0	0	
8	0	0	0	0	508	511	0	0	
9	0	0	0	0	511	511	0	0	
10	0	0	0	0	510	509	0	0	
11	0	0	0	0	516	510	0	0	
12	0	0	0	0	516	511	0	0	
13	0	0	0	0	511	507	0	0	
14	0	0	0	0	504	508	0	0	
15	0	0	0	0	500	508	0	0	
0	0	0	0	0	513	510	0	0	
1	0	0	0	0	522	509	0	0	
2	0	0	0	0	514	512	0	0	
3	0	0	0	0	513	511	0	0	
4	0	0	0	0	504	511	0	0	
5	0	0	0	0	498	511	0	0	
6	0	0	0	0	496	510	0	0	
7	0	0	0	0	495	508	0	0	
8	0	0	0	0	505	511	0	0	
9	0	0	0	0	504	510	0	0	
10	0	0	0	0	508	508	0	0	
11	0	0	0	0	511	511	0	0	
12	0	0	0	0	510	509	0	0	
13	0	0	0	0	519	511	0	0	
14	0	0	0	0	515	512	0	0	
15	0	0	0	0	508	511	0	0	
0	0	0	0	0	519	511	0	0	
1	0	0	0	0	513	512	0	0	
2	0	0	0	0	504	510	0	0	
3	0	0	0	0	502	510	0	0	
4	0	0	0	0	511	508	0	0	
5	0	0	0	0	516	511	0	0	
6	0	0	0	0	526	509	0	0	
7	0	0	0	0	523	508	0	0	
8	0	0	0	0	517	512	0	0	
9	0	0	0	0	496	509	0	0	
10	0	0	0	0	501	510	0	0	
11	0	0	0	0	489	512	0	0	
12	0	0	0	0	489	511	0	0	
13	0	0	0	0	507	509	0	0	
14	0	0	0	0	511	512	0	0	
15	0	0	0	0	495	510	0	0	
0	0	0	0	0	509	512	0	0	
1	0	0	0	0	511	510	0	0	
2	0	0	0	0	515	513	0	0	
3	0	0	0	0	511	510	0	0	
4	0	0	0	0	518	510	0	0	
5	0	0	0	0	518	510	0	0	
6	0	0	0	0	516	509	0	0	
7	0	0	0	0	520	509	0	0	
8	0	0	0	0	516	511	0	0	
9	0	0	0	0	507	511	0	0	
10	0	0	0	0	496	511	0	0	
11	0	0	0	0	499	509	0	0	
12	0	0	0	0	500	512	0	0	
13	0	0	0	0	502	510	0	0	
14	0	0	0	0	515	510	0	0	
15	0	0	0	0	510	509	0	0	
0	0	0	0	0	504	511	0	0	
1	0	0	0	0	505	511	0	0	
2	0	0	0	0	508	512	0	0	
3	0	0	0	0	507	511	0	0	
4	0	0	0	0	507	511	0	0	
5	0	0	0	0	518	512	0	0	
6	0	0	0	0	511	511	0	0	
7	0	0	0	0	509	511	0	0	
8	0	0	0	0	511	512	0	0	
9	0	0	0	0	510	510	0	0	
10	0	0	0	0	511	511	0	0	
11	0	0	0	0	508	513	0	0	
12	0	0	0	0	510	512	0	0	
13	0	0	0	0	521	511	0	0	
14	0	0	0	0	513	511	0	0	
15	0	0	0	0	504	507	0	0	
0	0	0	0	0	501	510	0	0	
1	0	0	0	0	500	507	0	0	
2	0	0	0	0	502	509	0	0	
3	0	0	0	0	505	510	0	0	
4	0	0	0	0	508	510	0	0	
5	0	0	0	0	505	508	0	0	
6	0	0	0	0	508	510	0	0	
7	0	0	0	0	503	508	0	0	
8	0	0	0	0	507	510	0	0	
9	0	0	0	0	511	509	0	0	
10	0	0	0	0	509	510	0	0	
11	0	0	0	0	509	511	0	0	
12	0	0	0	0	509	511	0	0	
13	0	0	0	0	513	512	0	0	
14	0	0	0	0	512	509	0	0	
15	0	0	0	0	521	512	0	0	
0	0	0	0	0	518	511	0	0	
1	0	0	0	0	498	511	0	0	
2	0	0	0	0	500	512	0	0	
3	0	0	0	0	501	513	0	0	
4	0	0	0	0	513	511	0	0	
5	0	0	0	0	516	512	0	0	
6	0	0	0	0	507	512	0	0	
7	0	0	0	0	499	510	0	0	
8	0	0	0	0	502	510	0	0	
9	0	0	0	0	511	510	0	0	
10	0	0	0	0	522	510	0	0	
11	0	0	0	0	515	510	0	0	
12	0	0	0	0	516	512	0	0	
13	0	0	0	0	514	512	0	0	
14	0	0	0	0	508	511	0	0	
15	0	0	0	0	500	510	0	0	
0	0	0	0	0	508	511	0	0	
1	0	0	0	0	505	511	0	0	
2	0	0	0	0	509	510	0	0	
3	0	0	0	0	508	511	0	0	
4	0	0	0	0	515	509	0	0	
5	0	0	0	0	509	510	0	0	
6	0	0	0	0	505	509	0	0	
7	0	0	0	0	508	513	0	0	
8	0	0	0	0	505	513	0	0	
9	0	0	0	0	505	510	0	0	
10	0	0	0	0	510	511	0	0	
11	0	0	0	0	514	510	0	0	
12	0	0	0	0	516	510	0	0	
13	0	0	0	0	511	511	0	0	
14	0	0	0	0	503	510	0	0	
15	0	0	0	0	498	509	0	0	
0	0	0	0	0	494	509	0	0	
1	0	0	0	0	503	511	0	0	
2	0	0	0	0	508	513	0	0	
3	0	0	0	0	510	511	0	0	
4	0	0	0	0	511	510	0	0	
5	0	0	0	0	515	509	0	0	
6	0	0	0	0	518	509	0	0	
7	0	0	0	0	512	510	0	0	
8	0	0	0	0	508	511	0	0	
9	0	0	0	0	508	510	0	0	
10	0	0	0	0	506	511	0	0	
11	0	0	0	0	503	512	0	0	
12	0	0	0	0	504	511	0	0	
13	0	0	0	0	502	511	0	0	
14	0	0	0	0	493	509	0	0	
15	0	0	0	0	505	510	0	0	
0	0	0	0	0	519	511	0	0	
1	0	0	0	0	513	511	0	0	
2	0	0	0	0	517	508	0	0	
3	0	0	0	0	518	510	0	0	
4	0	0	0	0	531	510	0	0	
5	0	0	0	0	512	512	0	0	
6	0	0	0	0	503	511	0	0	
7	0	0	0	0	504	513	0	0	
8	0	0	0	0	508	513	0	0	
9	0	0	0	0	507	512	0	0	
10	0	0	0	0	509	510	0	0	
11	0	0	0	0	508	509	0	0	
12	0	0	0	0	508	510	0	0	
13	0	0	0	0	509	507	0	0	
14	0	0	0	0	507	508	0	0	
15	0	0	0	0	505	511	0	0	
0	0	0	0	0	503	511	0	0	
1	0	0	0	0	505	509	0	0	
2	0	0	0	0	504	512	0	0	
3	0	0	0	0	507	511	0	0	
4	0	0	0	0	507	511	0	0	
5	0	0	0	0	506	508	0	0	
6	0	0	0	0	505	508	0	0	
7	0	0	0	0	507	511	0	0	
8	0	0	0	0	508	511	0	0	
9	0	0	0	0	506	512	0	0	
10	0	0	0	0	513	510	0	0	
11	0	0	0	0	516	511	0	0	
12	0	0	0	0	517	511	0	0	
13	0	0	0	0	517	512	0	0	
14	0	0	0	0	514	511	0	0	
15	0	0	0	0	521	510	0	0	
0	0	0	0	0	510	511	0	0	
1	0	0	0	0	506	513	0	0	
2	0	0	0	0	500	510	0	0	
3	0	0	0	0	491	512	0	0	
4	0	0	0	0	500	512	0	0	
5	0	0	0	0	505	511	0	0	
6	0	0	0	0	508	511	0	0	
7	0	0	0	0	508	510	0	0	
8	0	0	0	0	508	511	0	0	
9	0	0	0	0	511	511	0	0	
10	0	0	0	0	508	510	0	0	
11	0	0	0	0	508	510	0	0	
12	0	0	0	0	508	510	0	0	
13	0	0	0	0	514	509	0	0	
14	0	0	0	0	512	507	0	0	
15	0	0	0	0	507	512	0	0	
0	0	0	0	0	509	513	0	0	
1	0	0	0	0	506	511	0	0	
2	0	0	0	0	509	512	0	0	
3	0	0	0	0	510	510	0	0	
4	0	0	0	0	513	510	0	0	
5	0	0	0	0	519	510	0	0	
6	0	0	0	0	512	510	0	0	
7	0	0	0	0	512	513	0	0	
8	0	0	0	0	503	511	0	0	
9	0	0	0	0	506	509	0	0	
10	0	0	0	0	508	508	0	0	
11	0	0	0	0	509	510	0	0	
12	0	0	0	0	499	507	0	0	
13	0	0	0	0	500	510	0	0	
14	0	0	0	0	506	508	0	0	
15	0	0	0	0	510	510	0	0	
0	0	0	0	0	508	510	0	0	
1	0	0	0	0	511	512	0	0	
2	0	0	0	0	510	512	0	0	
3	0	0	0	0	506	511	0	0	
4	0	0	0	0	509	511	0	0	
5	0	0	0	0	511	510	0	0	
6	0	0	0	0	513	512	0	0	
7	0	0	0	0	514	511	0	0	
8	0	0	0	0	511	510	0	0	
9	0	0	0	0	511	509	0	0	
10	0	0	0	0	509	510	0	0	
11	0	0	0	0	502	510	0	0	
12	0	0	0	0	503	511	0	0	
13	0	0	0	0	504	508	0	0	
14	0	0	0	0	507	508	0	0	
15	0	0	0	0	510	510	0	0	
0	0	0	0	0	521	509	0	0	
1	0	0	0	0	515	508	0	0	
2	0	0	0	0	511	512	0	0	
3	0	0	0	0	496	512	0	0	
4	0	0	0	0	504	510	0	0	
5	0	0	0	0	508	508	0	0	
6	0	0	0	0	524	512	0	0	
7	0	0	0	0	511	511	0	0	
8	0	0	0	0	508	511	0	0	
9	0	0	0	0	515	511	0	0	
10	0	0	0	0	504	511	0	0	
11	0	0	0	0	507	513	0	0	
12	0	0	0	0	513	512	0	0	
13	0	0	0	0	508	510	0	0	
14	0	0	0	0	498	508	0	0	
15	0	0	0	0	495	510	0	0	
0	0	0	0	0	499	507	0	0	
1	0	0	0	0	505	509	0	0	
2	0	0	0	0	505	509	0	0	
3	0	0	0	0	510	511	0	0	
4	0	0	0	0	520	510	0	0	
5	0	0	0	0	519	509	0	0	
6	0	0	0	0	508	511	0	0	
7	0	0	0	0	506	513	0	0	
8	0	0	0	0	507	511	0	0	
9	0	0	0	0	510	509	0	0	
10	0	0	0	0	509	511	0	0	
11	0	0	0	0	504	513	0	0	
12	0	0	0	0	515	510	0	0	
13	0	0	0	0	517	511	0	0	
14	0	0	0	0	515	511	0	0	
15	0	0	0	0	515	512	0	0	
0	0	0	0	0	511	512	0	0	
1	0	0	0	0	504	510	0	0	
2	0	0	0	0	500	512	0	0	
3	0	0	0	0	501	510	0	0	
4	0	0	0	0	505	511	0	0	
5	0	0	0	0	513	510	0	0	
6	0	0	0	0	518	513	0	0	
7	0	0	0	0	509	511	0	0	
8	0	0	0	0	505	508	0	0	
9	0	0	0	0	504	508	0	0	
10	0	0	0	0	505	510	0	0	
11	0	0	0	0	505	510	0	0	
12	0	0	0	0	509	511	0	0	
13	0	0	0	0	496	509	0	0	
14	0	0	0	0	500	509	0	0	
15	0	0	0	0	511	509	0	0	
0	0	0	0	0	518	512	0	0	
1	0	0	0	0	516	511	0	0	
2	0	0	0	0	519	511	0	0	
3	0	0	0	0	510	512	0	0	
4	0	0	0	0	511	511	0	0	
5	0	0	0	0	507	510	0	0	
6	0	0	0	0	508	508	0	0	
7	0	0	0	0	512	509	0	0	
8	0	0	0	0	506	511	0	0	
9	0	0	0	0	503	512	0	0	
10	0	0	0	0	501	512	0	0	
11	0	0	0	0	500	511	0	0	
12	0	0	0	0	500	508	0	0	
13	0	0	0	0	509	507	0	0	
14	0	0	0	0	519	509	0	0	
15	0	0	0	0	518	510	0	0	
0	0	0	0	0	509	511	0	0	
1	0	0	0	0	506	511	0	0	
2	0	0	0	0	508	511	0	0	
3	0	0	0	0	510	510	0	0	
4	0	0	0	0	509	512	0	0	
5	0	0	0	0	508	511	0	0	
6	0	0	0	0	505	512	0	0	
7	0	0	0	0	508	511	0	0	
8	0	0	0	0	515	513	0	0	
9	0	0	0	0	513	512	0	0	
10	0	0	0	0	513	512	0	0	
11	0	0	0	0	520	513	0	0	
12	0	0	0	0	511	511	0	0	
13	0	0	0	0	501	508	0	0	
14	0	0	0	0	507	508	0	0	
15	0	0	0	0	507	509	0	0	
0	0	0	0	0	498	510	0	0	
1	0	0	0	0	501	512	0	0	
2	0	0	0	0	506	510	0	0	
3	0	0	0	0	507	510	0	0	
4	0	0	0	0	509	509	0	0	
5	0	0	0	0	511	511	0	0	
6	0	0	0	0	508	511	0	0	
7	0	0	0	0	511	511	0	0	
8	0	0	0	0	511	511	0	0	
9	0	0	0	0	513	513	0	0	
10	0	0	0	0	511	513	0	0	
11	0	0	0	0	510	513	0	0	
12	0	0	0	0	512	511	0	0	
13	0	0	0	0	512	511	0	0	
14	0	0	0	0	510	511	0	0	
15	0	0	0	0	506	510	0	0	
0	0	0	0	0	504	511	0	0	
1	0	0	0	0	509	510	0	0	
2	0	0	0	0	504	511	0	0	
3	0	0	0	0	504	511	0	0	
4	0	0	0	0	502	509	0	0	
5	0	0	0	0	502	509	0	0	
6	0	0	0	0	500	509	0	0	
7	0	0	0	0	507	510	0	0	
8	0	0	0	0	510	507	0	0	
9	0	0	0	0	511	509	0	0	
10	0	0	0	0	513	509	0	0	
11	0	0	0	0	526	510	0	0	
12	0	0	0	0	515	511	0	0	
13	0	0	0	0	513	512	0	0	
14	0	0	0	0	507	509	0	0	
15	0	0	0	0	508	513	0	0	
0	0	0	0	0	510	509	0	0	
1	0	0	0	0	510	511	0	0	
2	0	0	0	0	510	510	0	0	
3	0	0	0	0	507	510	0	0	
4	0	0	0	0	504	510	0	0	
5	0	0	0	0	504	511	0	0	
6	0	0	0	0	495	512	0	0	
7	0	0	0	0	496	511	0	0	
8	0	0	0	0	508	511	0	0	
9	0	0	0	0	512	511	0	0	
10	0	0	0	0	523	511	0	0	
11	0	0	0	0	511	508	0	0	
12	0	0	0	0	507	510	0	0	
13	0	0	0	0	502	509	0	0	
14	0	0	0	0	508	512	0	0	
15	0	0	0	0	512	511	0	0	
0	0	0	0	0	516	512	0	0	
1	0	0	0	0	511	510	0	0	
2	0	0	0	0	510	509	0	0	
3	0	0	0	0	508	514	0	0	
4	0	0	0	0	505	510	0	0	
5	0	0	0	0	504	510	0	0	
6	0	0	0	0	510	512	0	0	
7	0	0	0	0	508	508	0	0	
8	0	0	0	0	513	510	0	0	
9	0	0	0	0	516	511	0	0	
10	0	0	0	0	514	513	0	0	
11	0	0	0	0	502	510	0	0	
12	0	0	0	0	503	511	0	0	
13	0	0	0	0	500	511	0	0	
14	0	0	0	0	501	510	0	0	
15	0	0	0	0	506	511	0	0	
0	0	0	0	0	509	510	0	0	
1	0	0	0	0	510	510	0	0	
2	0	0	0	0	511	512	0	0	
3	0	0	0	0	511	509	0	0	
4	0	0	0	0	513	510	0	0	
5	0	0	0	0	512	508	0	0	
6	0	0	0	0	513	511	0	0	
7	0	0	0	0	510	510	0	0	
8	0	0	0	0	510	509	0	0	
9	0	0	0	0	509	511	0	0	
10	0	0	0	0	507	512	0	0	
11	0	0	0	0	506	509	0	0	
12	0	0	0	0	501	510	0	0	
13	0	0	0	0	505	508	0	0	
14	0	0	0	0	515	510	0	0	
15	0	0	0	0	522	508	0	0	
0	0	0	0	0	506	509	0	0	
1	0	0	0	0	504	510	0	0	
2	0	0	0	0	503	510	0	0	
3	0	0	0	0	504	510	0	0	
4	0	0	0	0	504	513	0	0	
5	0	0	0	0	501	507	0	0	
6	0	0	0	0	507	511	0	0	
7	0	0	0	0	511	511	0	0	
8	0	0	0	0	513	510	0	0	
9	0	0	0	0	515	510	0	0	
10	0	0	0	0	517	510	0	0	
11	0	0	0	0	526	512	0	0	
12	0	0	0	0	515	511	0	0	
13	0	0	0	0	507	510	0	0	
14	0	0	0	0	504	512	0	0	
15	0	0	0	0	500	511	0	0	
0	0	0	0	0	500	514	0	0	
1	0	0	0	0	500	511	0	0	
2	0	0	0	0	502	509	0	0	
3	0	0	0	0	503	510	0	0	
4	0	0	0	0	502	509	0	0	
5	0	0	0	0	504	512	0	0	
6	0	0	0	0	511	511	0	0	
7	0	0	0	0	519	511	0	0	
8	0	0	0	0	514	511	0	0	
9	0	0	0	0	512	510	0	0	
10	0	0	0	0	511	509	0	0	
11	0	0	0	0	512	507	0	0	
12	0	0	0	0	508	510	0	0	
13	0	0	0	0	509	512	0	0	
14	0	0	0	0	511	512	0	0	
15	0	0	0	0	509	510	0	0	
0	0	0	0	0	508	511	0	0	
1	0	0	0	0	508	511	0	0	
2	0	0	0	0	508	510	0	0	
3	0	0	0	0	507	510	0	0	
4	0	0	0	0	505	512	0	0	
5	0	0	0	0	499	510	0	0	
6	0	0	0	0	500	512	0	0	
7	0	0	0	0	502	512	0	0	
8	0	0	0	0	503	514	0	0	
9	0	0	0	0	504	511	0	0	
10	0	0	0	0	514	508	0	0	
11	0	0	0	0	518	511	0	0	
12	0	0	0	0	520	511	0	0	
13	0	0	0	0	508	510	0	0	
14	0	0	0	0	508	510	0	0	
15	0	0	0	0	511	512	0	0	
0	0	0	0	0	512	511	0	0	
1	0	0	0	0	512	512	0	0	
2	0	0	0	0	512	511	0	0	
3	0	0	0	0	520	509	0	0	
4	0	0	0	0	515	511	0	0	
5	0	0	0	0	509	512	0	0	
6	0	0	0	0	506	510	0	0	
7	0	0	0	0	507	508	0	0	
8	0	0	0	0	506	511	0	0	
9	0	0	0	0	508	510	0	0	
10	0	0	0	0	507	510	0	0	
11	0	0	0	0	503	512	0	0	
12	0	0	0	0	501	512	0	0	
13	0	0	0	0	503	511	0	0	
14	0	0	0	0	499	512	0	0	
15	0	0	0	0	494	512	0	0	
0	0	0	0	0	497	510	0	0	
1	0	0	0	0	507	508	0	0	
2	0	0	0	0	511	511	0	0	
3	0	0	0	0	516	508	0	0	
4	0	0	0	0	518	510	0	0	
5	0	0	0	0	515	512	0	0	
6	0	0	0	0	516	512	0	0	
7	0	0	0	0	511	509	0	0	
8	0	0	0	0	510	512	0	0	
9	0	0	0	0	511	512	0	0	
10	0	0	0	0	514	510	0	0	
11	0	0	0	0	515	511	0	0	
12	0	0	0	0	505	509	0	0	
13	0	0	0	0	504	509	0	0	
14	0	0	0	0	503	511	0	0	
15	0	0	0	0	503	510	0	0	
0	0	0	0	0	509	513	0	0	
1	0	0	0	0	507	511	0	0	
2	0	0	0	0	509	511	0	0	
3	0	0	0	0	519	511	0	0	
4	0	0	0	0	509	511	0	0	
5	0	0	0	0	505	509	0	0	
6	0	0	0	0	507	512	0	0	
7	0	0	0	0	511	512	0	0	
8	0	0	0	0	510	510	0	0	
9	0	0	0	0	514	509	0	0	
10	0	0	0	0	519	510	0	0	
11	0	0	0	0	511	510	0	0	
12	0	0	0	0	508	511	0	0	
13	0	0	0	0	508	511	0	0	
14	0	0	0	0	507	510	0	0	
15	0	0	0	0	501	508	0	0	
0	0	0	0	0	506	510	0	0	
1	0	0	0	0	508	511	0	0	
2	0	0	0	0	506	510	0	0	
3	0	0	0	0	505	511	0	0	
4	0	0	0	0	507	511	0	0	
5	0	0	0	0	505	510	0	0	
6	0	0	0	0	505	511	0	0	
7	0	0	0	0	502	510	0	0	
8	0	0	0	0	502	508	0	0	
9	0	0	0	0	511	508	0	0	
10	0	0	0	0	509	511	0	0	
11	0	0	0	0	511	510	0	0	
12	0	0	0	0	515	513	0	0	
13	0	0	0	0	518	511	0	0	
14	0	0	0	0	513	511	0	0	
15	0	0	0	0	521	512	0	0	
0	0	0	0	0	512	511	0	0	
1	0	0	0	0	508	511	0	0	
2	0	0	0	0	504	511	0	0	
3	0	0	0	0	504	512	0	0	
4	0	0	0	0	502	510	0	0	
5	0	0	0	0	505	511	0	0	
6	0	0	0	0	504	508	0	0	
7	0	0	0	0	504	508	0	0	
8	0	0	0	0	505	509	0	0	
9	0	0	0	0	506	508	0	0	
10	0	0	0	0	507	506	0	0	
11	0	0	0	0	508	508	0	0	
12	0	0	0	0	510	512	0	0	
13	0	0	0	0	510	510	0	0	
14	0	0	0	0	513	513	0	0	
15	0	0	0	0	515	511	0	0	
0	0	0	0	0	516	511	0	0	
1	0	0	0	0	515	512	0	0	
2	0	0	0	0	511	514	0	0	
3	0	0	0	0	507	512	0	0	
4	0	0	0	0	510	511	0	0	
5	0	0	0	0	509	510	0	0	
6	0	0	0	0	507	511	0	0	
7	0	0	0	0	505	510	0	0	
8	0	0	0	0	507	510	0	0	
9	0	0	0	0	509	510	0	0	
10	0	0	0	0	502	511	0	0	
11	0	0	0	0	501	511	0	0	
12	0	0	0	0	505	511	0	0	
13	0	0	0	0	505	510	0	0	
14	0	0	0	0	507	512	0	0	
15	0	0	0	0	505	508	0	0	
0	0	0	0	0	509	511	0	0	
1	0	0	0	0	509	510	0	0	
2	0	0	0	0	509	510	0	0	
3	0	0	0	0	510	510	0	0	
4	0	0	0	0	511	511	0	0	
5	0	0	0	0	513	512	0	0	
6	0	0	0	0	519	510	0	0	
7	0	0	0	0	521	511	0	0	
8	0	0	0	0	516	513	0	0	
9	0	0	0	0	514	511	0	0	
10	0	0	0	0	506	510	0	0	
11	0	0	0	0	500	511	0	0	
12	0	0	0	0	499	512	0	0	
13	0	0	0	0	499	509	0	0	
14	0	0	0	0	498	509	0	0	
15	0	0	0	0	496	511	0	0	
0	0	0	0	0	495	508	0	0	
1	0	0	0	0	513	511	0	0	
2	0	0	0	0	518	511	0	0	
3	0	0	0	0	510	511	0	0	
4	0	0	0	0	511	512	0	0	
5	0	0	0	0	513	509	0	0	
6	0	0	0	0	512	511	0	0	
7	0	0	0	0	513	508	0	0	
8	0	0	0	0	515	509	0	0	
9	0	0	0	0	515	509	0	0	
10	0	0	0	0	511	511	0	0	
11	0	0	0	0	511	511	0	0	
12	0	0	0	0	509	512	0	0	
13	0	0	0	0	510	511	0	0	
14	0	0	0	0	505	509	0	0	
15	0	0	0	0	504	510	0	0	
0	0	0	0	0	502	509	0	0	
1	0	0	0	0	500	511	0	0	
2	0	0	0	0	503	510	0	0	
3	0	0	0	0	506	509	0	0	
4	0	0	0	0	510	511	0	0	
5	0	0	0	0	508	510	0	0	
6	0	0	0	0	505	510	0	0	
7	0	0	0	0	507	511	0	0	
8	0	0	0	0	510	512	0	0	
9	0	0	0	0	511	514	0	0	
10	0	0	0	0	511	512	0	0	
11	0	0	0	0	515	508	0	0	
12	0	0	0	0	517	509	0	0	
13	0	0	0	0	511	511	0	0	
14	0	0	0	0	506	511	0	0	
15	0	0	0	0	509	510	0	0	
0	0	0	0	0	509	511	0	0	
1	0	0	0	0	510	510	0	0	
2	0	0	0	0	509	512	0	0	
3	0	0	0	0	513	511	0	0	
4	0	0	0	0	515	510	0	0	
5	0	0	0	0	515	513	0	0	
6	0	0	0	0	503	509	0	0	
7	0	0	0	0	502	507	0	0	
8	0	0	0	0	500	511	0	0	
9	0	0	0	0	499	511	0	0	
10	0	0	0	0	501	512	0	0	
11	0	0	0	0	501	510	0	0	
12	0	0	0	0	505	509	0	0	
13	0	0	0	0	519	510	0	0	
14	0	0	0	0	528	514	0	0	
15	0	0	0	0	516	513	0	0	
0	0	0	0	0	508	513	0	0	
1	0	0	0	0	509	511	0	0	
2	0	0	0	0	509	508	0	0	
3	0	0	0	0	509	510	0	0	
4	0	0	0	0	507	510	0	0	
5	0	0	0	0	508	510	0	0	
6	0	0	0	0	508	511	0	0	
7	0	0	0	0	507	512	0	0	
8	0	0	0	0	507	510	0	0	
9	0	0	0	0	504	508	0	0	
10	0	0	0	0	507	511	0	0	
11	0	0	0	0	507	510	0	0	
12	0	0	0	0	504	511	0	0	
13	0	0	0	0	505	508	0	0	
14	0	0	0	0	507	511	0	0	
15	0	0	0	0	506	510	0	0	
0	0	0	0	0	510	513	0	0	
1	0	0	0	0	511	511	0	0	
2	0	0	0	0	511	510	0	0	
3	0	0	0	0	511	510	0	0	
4	0	0	0	0	515	510	0	0	
5	0	0	0	0	512	510	0	0	
6	0	0	0	0	512	509	0	0	
7	0	0	0	0	509	511	0	0	
8	0	0	0	0	507	510	0	0	
9	0	0	0	0	506	514	0	0	
10	0	0	0	0	511	513	0	0	
11	0	0	0	0	509	512	0	0	
12	0	0	0	0	505	509	0	0	
13	0	0	0	0	506	511	0	0	
14	0	0	0	0	512	509	0	0	
15	0	0	0	0	503	512	0	0	
0	0	0	0	0	511	510	0	0	
1	0	0	0	0	502	511	0	0	
2	0	0	0	0	502	510	0	0	
3	0	0	0	0	507	510	0	0	
4	0	0	0	0	507	511	0	0	
5	0	0	0	0	510	509	0	0	
6	0	0	0	0	511	510	0	0	
7	0	0	0	0	516	511	0	0	
8	0	0	0	0	520	511	0	0	
9	0	0	0	0	525	511	0	0	
10	0	0	0	0	511	510	0	0	
11	0	0	0	0	508	508	0	0	
12	0	0	0	0	506	511	0	0	
13	0	0	0	0	505	511	0	0	
14	0	0	0	0	503	512	0	0	
15	0	0	0	0	503	512	0	0	
0	0	0	0	0	502	510	0	0	
1	0	0	0	0	506	509	0	0	
2	0	0	0	0	503	508	0	0	
3	0	0	0	0	503	510	0	0	
4	0	0	0	0	508	510	0	0	
5	0	0	0	0	507	511	0	0	
6	0	0	0	0	505	511	0	0	
7	0	0	0	0	510	512	0	0	
8	0	0	0	0	513	511	0	0	
9	0	0	0	0	510	511	0	0	
10	0	0	0	0	511	509	0	0	
11	0	0	0	0	511	511	0	0	
12	0	0	0	0	509	511	0	0	
13	0	0	0	0	511	511	0	0	
14	0	0	0	0	512	512	0	0	
15	0	0	0	0	517	510	0	0	
0	0	0	0	0	522	510	0	0	
1	0	0	0	0	515	512	0	0	
2	0	0	0	0	505	514	0	0	
3	0	0	0	0	502	508	0	0	
4	0	0	0	0	504	510	0	0	
5	0	0	0	0	502	508	0	0	
6	0	0	0	0	499	512	0	0	
7	0	0	0	0	503	511	0	0	
8	0	0	0	0	505	507	0	0	
9	0	0	0	0	506	511	0	0	
10	0	0	0	0	507	511	0	0	
11	0	0	0	0	508	513	0	0	
12	0	0	0	0	508	510	0	0	
13	0	0	0	0	510	512	0	0	
14	0	0	0	0	511	510	0	0	
15	0	0	0	0	511	511	0	0	
0	0	0	0	0	513	510	0	0	
1	0	0	0	0	516	511	0	0	
2	0	0	0	0	513	512	0	0	
3	0	0	0	0	511	510	0	0	
4	0	0	0	0	511	511	0	0	
5	0	0	0	0	507	513	0	0	
6	0	0	0	0	506	510	0	0	
7	0	0	0	0	506	510	0	0	
8	0	0	0	0	501	509	0	0	
9	0	0	0	0	502	508	0	0	
10	0	0	0	0	503	511	0	0	
11	0	0	0	0	512	511	0	0	
12	0	0	0	0	511	511	0	0	
13	0	0	0	0	500	511	0	0	
14	0	0	0	0	503	513	0	0	
15	0	0	0	0	507	511	0	0	
0	0	0	0	0	509	510	0	0	
1	0	0	0	0	511	508	0	0	
2	0	0	0	0	514	512	0	0	
3	0	0	0	0	518	509	0	0	
4	0	0	0	0	513	509	0	0	
5	0	0	0	0	514	510	0	0	
6	0	0	0	0	510	511	0	0	
7	0	0	0	0	507	512	0	0	
8	0	0	0	0	508	510	0	0	
9	0	0	0	0	510	510	0	0	
10	0	0	0	0	504	511	0	0	
11	0	0	0	0	504	510	0	0	
12	0	0	0	0	511	511	0	0	
13	0	0	0	0	510	511	0	0	
14	0	0	0	0	513	513	0	0	
15	0	0	0	0	506	513	0	0	
0	0	0	0	0	503	511	0	0	
1	0	0	0	0	505	510	0	0	
2	0	0	0	0	503	509	0	0	
3	0	0	0	0	502	510	0	0	
4	0	0	0	0	508	511	0	0	
5	0	0	0	0	516	507	0	0	
6	0	0	0	0	511	510	0	0	
7	0	0	0	0	509	508	0	0	
8	0	0	0	0	508	510	0	0	
9	0	0	0	0	507	511	0	0	
10	0	0	0	0	510	512	0	0	
11	0	0	0	0	512	513	0	0	
12	0	0	0	0	515	510	0	0	
13	0	0	0	0	519	511	0	0	
14	0	0	0	0	511	511	0	0	
15	0	0	0	0	510	510	0	0	
0	0	0	0	0	516	509	0	0	
1	0	0	0	0	508	512	0	0	
2	0	0	0	0	503	511	0	0	
3	0	0	0	0	502	510	0	0	
4	0	0	0	0	497	510	0	0	
5	0	0	0	0	497	511	0	0	
6	0	0	0	0	502	510	0	0	
7	0	0	0	0	504	509	0	0	
8	0	0	0	0	505	509	0	0	
9	0	0	0	0	513	508	0	0	
10	0	0	0	0	513	510	0	0	
11	0	0	0	0	513	508	0	0	
12	0	0	0	0	512	511	0	0	
13	0	0	0	0	511	510	0	0	
14	0	0	0	0	514	511	0	0	
15	0	0	0	0	511	512	0	0	
0	0	0	0	0	508	511	0	0	
1	0	0	0	0	507	514	0	0	
2	0	0	0	0	508	511	0	0	
3	0	0	0	0	509	511	0	0	
4	0	0	0	0	507	511	0	0	
5	0	0	0	0	505	509	0	0	
6	0	0	0	0	505	509	0	0	
7	0	0	0	0	505	510	0	0	
8	0	0	0	0	504	511	0	0	
9	0	0	0	0	505	508	0	0	
10	0	0	0	0	510	510	0	0	
11	0	0	0	0	510	511	0	0	
12	0	0	0	0	511	511	0	0	
13	0	0	0	0	511	510	0	0	
14	0	0	0	0	511	511	0	0	
15	0	0	0	0	508	512	0	0	
0	0	0	0	0	507	511	0	0	
1	0	0	0	0	510	511	0	0	
2	0	0	0	0	510	510	0	0	
3	0	0	0	0	512	509	0	0	
4	0	0	0	0	511	510	0	0	
5	0	0	0	0	510	511	0	0	
6	0	0	0	0	508	510	0	0	
7	0	0	0	0	507	510	0	0	
8	0	0	0	0	504	510	0	0	
9	0	0	0	0	504	511	0	0	
10	0	0	0	0	501	513	0	0	
11	0	0	0	0	504	512	0	0	
12	0	0	0	0	506	510	0	0	
13	0	0	0	0	515	510	0	0	
14	0	0	0	0	516	509	0	0	
15	0	0	0	0	510	509	0	0	
0	0	0	0	0	516	513	0	0	
1	0	0	0	0	505	514	0	0	
2	0	0	0	0	505	509	0	0	
3	0	0	0	0	515	510	0	0	
4	0	0	0	0	515	511	0	0	
5	0	0	0	0	512	510	0	0	
6	0	0	0	0	512	509	0	0	
7	0	0	0	0	515	508	0	0	
8	0	0	0	0	511	512	0	0	
9	0	0	0	0	504	510	0	0	
10	0	0	0	0	505	510	0	0	
11	0	0	0	0	504	512	0	0	
12	0	0	0	0	504	510	0	0	
13	0	0	0	0	504	510	0	0	
14	0	0	0	0	502	507	0	0	
15	0	0	0	0	506	510	0	0	
0	0	0	0	0	505	509	0	0	
1	0	0	0	0	507	510	0	0	
2	0	0	0	0	508	509	0	0	
3	0	0	0	0	507	512	0	0	
4	0	0	0	0	509	513	0	0	
5	0	0	0	0	512	510	0	0	
6	0	0	0	0	512	511	0	0	
7	0	0	0	0	513	510	0	0	
8	0	0	0	0	512	511	0	0	
9	0	0	0	0	516	512	0	0	
10	0	0	0	0	511	511	0	0	
11	0	0	0	0	508	510	0	0	
12	0	0	0	0	504	510	0	0	
13	0	0	0	0	508	510	0	0	
14	0	0	0	0	507	511	0	0	
15	0	0	0	0	505	510	0	0	
0	0	0	0	0	506	509	0	0	
1	0	0	0	0	503	511	0	0	
2	0	0	0	0	505	508	0	0	
3	0	0	0	0	511	510	0	0	
4	0	0	0	0	519	511	0	0	
5	0	0	0	0	511	510	0	0	
6	0	0	0	0	503	510	0	0	
7	0	0	0	0	506	510	0	0	
8	0	0	0	0	508	510	0	0	
9	0	0	0	0	511	512	0	0	
10	0	0	0	0	513	509	0	0	
11	0	0	0	0	510	510	0	0	
12	0	0	0	0	508	508	0	0	
13	0	0	0	0	508	509	0	0	
14	0	0	0	0	511	511	0	0	
15	0	0	0	0	511	511	0	0	
0	0	0	0	0	510	508	0	0	
1	0	0	0	0	508	511	0	0	
2	0	0	0	0	508	513	0	0	
3	0	0	0	0	506	509	0	0	
4	0	0	0	0	504	512	0	0	
5	0	0	0	0	503	512	0	0	
6	0	0	0	0	505	511	0	0	
7	0	0	0	0	505	511	0	0	
8	0	0	0	0	508	512	0	0	
9	0	0	0	0	504	511	0	0	
10	0	0	0	0	507	509	0	0	
11	0	0	0	0	504	511	0	0	
12	0	0	0	0	507	510	0	0	
13	0	0	0	0	509	510	0	0	
14	0	0	0	0	511	511	0	0	
15	0	0	0	0	515	511	0	0	
0	0	0	0	0	522	511	0	0	
1	0	0	0	0	520	508	0	0	
2	0	0	0	0	524	510	0	0	
3	0	0	0	0	510	510	0	0	
4	0	0	0	0	506	508	0	0	
5	0	0	0	0	502	509	0	0	
6	0	0	0	0	501	509	0	0	
7	0	0	0	0	502	511	0	0	
8	0	0	0	0	505	510	0	0	
9	0	0	0	0	516	511	0	0	
10	0	0	0	0	505	511	0	0	
11	0	0	0	0	501	510	0	0	
12	0	0	0	0	503	510	0	0	
13	0	0	0	0	506	510	0	0	
14	0	0	0	0	508	512	0	0	
15	0	0	0	0	507	511	0	0	
0	0	0	0	0	515	508	0	0	
1	0	0	0	0	513	511	0	0	
2	0	0	0	0	507	513	0	0	
3	0	0	0	0	511	510	0	0	
4	0	0	0	0	512	513	0	0	
5	0	0	0	0	515	512	0	0	
6	0	0	0	0	513	513	0	0	
7	0	0	0	0	507	510	0	0	
8	0	0	0	0	505	511	0	0	
9	0	0	0	0	512	511	0	0	
10	0	0	0	0	508	511	0	0	
11	0	0	0	0	506	509	0	0	
12	0	0	0	0	505	508	0	0	
13	0	0	0	0	502	510	0	0	
14	0	0	0	0	504	511	0	0	
15	0	0	0	0	505	509	0	0	
0	0	0	0	0	505	511	0	0	
1	0	0	0	0	505	509	0	0	
2	0	0	0	0	507	511	0	0	
3	0	0	0	0	503	509	0	0	
4	0	0	0	0	508	511	0	0	
5	0	0	0	0	515	509	0	0	
6	0	0	0	0	510	512	0	0	
7	0	0	0	0	513	510	0	0	
8	0	0	0	0	514	512	0	0	
9	0	0	0	0	512	512	0	0	
10	0	0	0	0	510	509	0	0	
11	0	0	0	0	509	509	0	0	
12	0	0	0	0	512	511	0	0	
13	0	0	0	0	510	510	0	0	
14	0	0	0	0	510	510	0	0	
15	0	0	0	0	511	510	0	0	
0	0	0	0	0	508	512	0	0	
1	0	0	0	0	506	508	0	0	
2	0	0	0	0	507	510	0	0	
3	0	0	0	0	507	509	0	0	
4	0	0	0	0	504	510	0	0	
5	0	0	0	0	505	511	0	0	
6	0	0	0	0	495	511	0	0	
7	0	0	0	0	495	510	0	0	
8	0	0	0	0	498	511	0	0	
9	0	0	0	0	508	510	0	0	
10	0	0	0	0	515	513	0	0	
11	0	0	0	0	522	510	0	0	
12	0	0	0	0	527	509	0	0	
13	0	0	0	0	518	510	0	0	
14	0	0	0	0	519	510	0	0	
15	0	0	0	0	511	513	0	0	
0	0	0	0	0	505	511	0	0	
1	0	0	0	0	502	513	0	0	
2	0	0	0	0	497	510	0	0	
3	0	0	0	0	497	507	0	0	
4	0	0	0	0	499	511	0	0	
5	0	0	0	0	506	510	0	0	
6	0	0	0	0	506	512	0	0	
7	0	0	0	0	519	511	0	0	
8	0	0	0	0	534	509	0	0	
9	0	0	0	0	514	512	0	0	
10	0	0	0	0	502	510	0	0	
11	0	0	0	0	499	510	0	0	
12	0	0	0	0	507	510	0	0	
13	0	0	0	0	509	511	0	0	
14	0	0	0	0	508	510	0	0	
15	0	0	0	0	513	511	0	0	
0	0	0	0	0	513	508	0	0	
1	0	0	0	0	508	508	0	0	
2	0	0	0	0	505	509	0	0	
3	0	0	0	0	508	511	0	0	
4	0	0	0	0	508	509	0	0	
5	0	0	0	0	510	511	0	0	
6	0	0	0	0	508	510	0	0	
7	0	0	0	0	508	509	0	0	
8	0	0	0	0	504	511	0	0	
9	0	0	0	0	505	513	0	0	
10	0	0	0	0	506	510	0	0	
11	0	0	0	0	504	511	0	0	
12	0	0	0	0	508	510	0	0	
13	0	0	0	0	506	510	0	0	
14	0	0	0	0	506	510	0	0	
15	0	0	0	0	507	512	0	0	
0	0	0	0	0	508	512	0	0	
1	0	0	0	0	512	511	0	0	
2	0	0	0	0	511	512	0	0	
3	0	0	0	0	508	510	0	0	
4	0	0	0	0	513	508	0	0	
5	0	0	0	0	515	509	0	0	
6	0	0	0	0	506	512	0	0	
7	0	0	0	0	502	512	0	0	
8	0	0	0	0	502	511	0	0	
9	0	0	0	0	510	511	0	0	
10	0	0	0	0	510	510	0	0	
11	0	0	0	0	515	510	0	0	
12	0	0	0	0	519	513	0	0	
13	0	0	0	0	516	510	0	0	
14	0	0	0	0	510	509	0	0	
15	0	0	0	0	509	507	0	0	
0	0	0	0	0	508	508	0	0	
1	0	0	0	0	500	509	0	0	
2	0	0	0	0	495	513	0	0	
3	0	0	0	0	502	512	0	0	
4	0	0	0	0	504	515	0	0	
5	0	0	0	0	496	510	0	0	
6	0	0	0	0	503	510	0	0	
7	0	0	0	0	516	509	0	0	
8	0	0	0	0	521	511	0	0	
9	0	0	0	0	520	510	0	0	
10	0	0	0	0	516	510	0	0	
11	0	0	0	0	509	510	0	0	
12	0	0	0	0	507	513	0	0	
13	0	0	0	0	507	512	0	0	
14	0	0	0	0	504	509	0	0	
15	0	0	0	0	504	510	0	0	
0	0	0	0	0	510	510	0	0	
1	0	0	0	0	513	510	0	0	
2	0	0	0	0	524	510	0	0	
3	0	0	0	0	513	505	0	0	
4	0	0	0	0	502	508	0	0	
5	0	0	0	0	503	511	0	0	
6	0	0	0	0	499	509	0	0	
7	0	0	0	0	497	512	0	0	
8	0	0	0	0	499	511	0	0	
9	0	0	0	0	504	512	0	0	
10	0	0	0	0	507	510	0	0	
11	0	0	0	0	510	512	0	0	
12	0	0	0	0	516	513	0	0	
13	0	0	0	0	519	513	0	0	
14	0	0	0	0	519	512	0	0	
15	0	0	0	0	527	512	0	0	
0	0	0	0	0	510	510	0	0	
1	0	0	0	0	505	509	0	0	
2	0	0	0	0	503	512	0	0	
3	0	0	0	0	504	511	0	0	
4	0	0	0	0	506	510	0	0	
5	0	0	0	0	505	509	0	0	
6	0	0	0	0	503	509	0	0	
7	0	0	0	0	506	510	0	0	
8	0	0	0	0	508	510	0	0	
9	0	0	0	0	504	511	0	0	
10	0	0	0	0	505	513	0	0	
11	0	0	0	0	502	510	0	0	
12	0	0	0	0	505	510	0	0	
13	0	0	0	0	512	514	0	0	
14	0	0	0	0	509	508	0	0	
15	0	0	0	0	506	512	0	0	
0	0	0	0	0	517	509	0	0	
1	0	0	0	0	521	511	0	0	
2	0	0	0	0	517	511	0	0	
3	0	0	0	0	512	511	0	0	
4	0	0	0	0	511	509	0	0	
5	0	0	0	0	510	511	0	0	
6	0	0	0	0	508	509	0	0	
7	0	0	0	0	509	509	0	0	
8	0	0	0	0	509	509	0	0	
9	0	0	0	0	503	511	0	0	
10	0	0	0	0	500	510	0	0	
11	0	0	0	0	502	510	0	0	
12	0	0	0	0	502	512	0	0	
13	0	0	0	0	503	512	0	0	
14	0	0	0	0	508	511	0	0	
15	0	0	0	0	507	509	0	0	
0	0	0	0	0	509	510	0	0	
1	0	0	0	0	509	511	0	0	
2	0	0	0	0	506	512	0	0	
3	0	0	0	0	511	510	0	0	
4	0	0	0	0	515	509	0	0	
5	0	0	0	0	516	511	0	0	
6	0	0	0	0	517	509	0	0	
7	0	0	0	0	513	511	0	0	
8	0	0	0	0	509	511	0	0	
9	0	0	0	0	509	512	0	0	
10	0	0	0	0	508	510	0	0	
11	0	0	0	0	504	511	0	0	
12	0	0	0	0	503	512	0	0	
13	0	0	0	0	502	511	0	0	
14	0	0	0	0	500	512	0	0	
15	0	0	0	0	501	513	0	0	
0	0	0	0	0	508	508	0	0	
1	0	0	0	0	508	511	0	0	
2	0	0	0	0	511	511	0	0	
3	0	0	0	0	516	511	0	0	
4	0	0	0	0	524	510	0	0	
5	0	0	0	0	514	508	0	0	
6	0	0	0	0	507	510	0	0	
7	0	0	0	0	511	510	0	0	
8	0	0	0	0	513	511	0	0	
9	0	0	0	0	514	514	0	0	
10	0	0	0	0	514	513	0	0	
11	0	0	0	0	507	509	0	0	
12	0	0	0	0	512	506	0	0	
13	0	0	0	0	510	510	0	0	
14	0	0	0	0	503	511	0	0	
15	0	0	0	0	494	512	0	0	
0	0	0	0	0	492	508	0	0	
1	0	0	0	0	511	509	0	0	
2	0	0	0	0	507	511	0	0	
3	0	0	0	0	503	511	0	0	
4	0	0	0	0	499	507	0	0	
5	0	0	0	0	503	508	0	0	
6	0	0	0	0	508	511	0	0	
7	0	0	0	0	514	508	0	0	
8	0	0	0	0	515	510	0	0	
9	0	0	0	0	519	511	0	0	
10	0	0	0	0	513	512	0	0	
11	0	0	0	0	511	511	0	0	
12	0	0	0	0	511	512	0	0	
13	0	0	0	0	515	513	0	0	
14	0	0	0	0	517	512	0	0	
15	0	0	0	0	512	512	0	0	
0	0	0	0	0	509	511	0	0	
1	0	0	0	0	506	508	0	0	
2	0	0	0	0	505	510	0	0	
3	0	0	0	0	505	510	0	0	
4	0	0	0	0	507	508	0	0	
5	0	0	0	0	508	510	0	0	
6	0	0	0	0	505	509	0	0	
7	0	0	0	0	502	511	0	0	
8	0	0	0	0	502	511	0	0	
9	0	0	0	0	503	510	0	0	
10	0	0	0	0	507	511	0	0	
11	0	0	0	0	509	512	0	0	
12	0	0	0	0	521	509	0	0	
13	0	0	0	0	513	513	0	0	
14	0	0	0	0	508	515	0	0	
15	0	0	0	0	512	513	0	0	
0	0	0	0	0	516	510	0	0	
1	0	0	0	0	526	509	0	0	
2	0	0	0	0	516	510	0	0	
3	0	0	0	0	503	509	0	0	
4	0	0	0	0	499	511	0	0	
5	0	0	0	0	503	513	0	0	
6	0	0	0	0	504	512	0	0	
7	0	0	0	0	504	509	0	0	
8	0	0	0	0	501	508	0	0	
9	0	0	0	0	498	509	0	0	
10	0	0	0	0	504	513	0	0	
11	0	0	0	0	506	509	0	0	
12	0	0	0	0	508	510	0	0	
13	0	0	0	0	508	510	0	0	
14	0	0	0	0	508	508	0	0	
15	0	0	0	0	509	510	0	0	
0	0	0	0	0	509	510	0	0	
1	0	0	0	0	513	511	0	0	
2	0	0	0	0	511	511	0	0	
3	0	0	0	0	516	508	0	0	
4	0	0	0	0	514	510	0	0	
5	0	0	0	0	512	511	0	0	
6	0	0	0	0	512	509	0	0	
7	0	0	0	0	509	512	0	0	
8	0	0	0	0	511	513	0	0	
9	0	0	0	0	512	513	0	0	
10	0	0	0	0	509	511	0	0	
11	0	0	0	0	505	510	0	0	
12	0	0	0	0	505	509	0	0	
13	0	0	0	0	503	510	0	0	
14	0	0	0	0	504	510	0	0	
15	0	0	0	0	505	510	0	0	
0	0	0	0	0	505	511	0	0	
1	0	0	0	0	507	511	0	0	
2	0	0	0	0	509	513	0	0	
3	0	0	0	0	508	510	0	0	
4	0	0	0	0	509	513	0	0	
5	0	0	0	0	508	510	0	0	
6	0	0	0	0	510	510	0	0	
7	0	0	0	0	510	511	0	0	
8	0	0	0	0	511	510	0	0	
9	0	0	0	0	513	508	0	0	
10	0	0	0	0	520	511	0	0	
11	0	0	0	0	516	510	0	0	
12	0	0	0	0	508	509	0	0	
13	0	0	0	0	504	509	0	0	
14	0	0	0	0	505	512	0	0	
15	0	0	0	0	501	509	0	0	
0	0	0	0	0	497	510	0	0	
1	0	0	0	0	496	511	0	0	
2	0	0	0	0	500	510	0	0	
3	0	0	0	0	510	509	0	0	
4	0	0	0	0	518	510	0	0	
5	0	0	0	0	525	511	0	0	
6	0	0	0	0	518	510	0	0	
7	0	0	0	0	510	511	0	0	
8	0	0	0	0	502	510	0	0	
9	0	0	0	0	503	510	0	0	
10	0	0	0	0	507	511	0	0	
11	0	0	0	0	511	512	0	0	
12	0	0	0	0	514	511	0	0	
13	0	0	0	0	517	510	0	0	
14	0	0	0	0	511	508	0	0	
15	0	0	0	0	511	510	0	0	
0	0	0	0	0	508	512	0	0	
1	0	0	0	0	507	510	0	0	
2	0	0	0	0	505	509	0	0	
3	0	0	0	0	505	512	0	0	
4	0	0	0	0	504	513	0	0	
5	0	0	0	0	499	513	0	0	
6	0	0	0	0	503	510	0	0	
7	0	0	0	0	511	508	0	0	
8	0	0	0	0	514	509	0	0	
9	0	0	0	0	509	508	0	0	
10	0	0	0	0	497	512	0	0	
11	0	0	0	0	498	511	0	0	
12	0	0	0	0	507	511	0	0	
13	0	0	0	0	519	512	0	0	
14	0	0	0	0	519	512	0	0	
15	0	0	0	0	514	510	0	0	
0	0	0	0	0	513	511	0	0	
1	0	0	0	0	511	511	0	0	
2	0	0	0	0	510	509	0	0	
3	0	0	0	0	508	511	0	0	
4	0	0	0	0	505	509	0	0	
5	0	0	0	0	504	509	0	0	
6	0	0	0	0	508	511	0	0	
7	0	0	0	0	509	511	0	0	
8	0	0	0	0	509	511	0	0	
9	0	0	0	0	505	511	0	0	
10	0	0	0	0	504	510	0	0	
11	0	0	0	0	503	510	0	0	
12	0	0	0	0	503	512	0	0	
13	0	0	0	0	506	510	0	0	
14	0	0	0	0	505	508	0	0	
15	0	0	0	0	509	510	0	0	
0	0	0	0	0	514	510	0	0	
1	0	0	0	0	511	511	0	0	
2	0	0	0	0	511	511	0	0	
3	0	0	0	0	512	512	0	0	
4	0	0	0	0	513	511	0	0	
5	0	0	0	0	513	511	0	0	
6	0	0	0	0	512	511	0	0	
7	0	0	0	0	507	510	0	0	
8	0	0	0	0	505	509	0	0	
9	0	0	0	0	504	511	0	0	
10	0	0	0	0	507	512	0	0	
11	0	0	0	0	515	510	0	0	
12	0	0	0	0	509	513	0	0	
13	0	0	0	0	514	510	0	0	
14	0	0	0	0	512	512	0	0	
15	0	0	0	0	505	509	0	0	
0	0	0	0	0	502	511	0	0	
1	0	0	0	0	501	509	0	0	
2	0	0	0	0	504	511	0	0	
3	0	0	0	0	509	511	0	0	
4	0	0	0	0	512	511	0	0	
5	0	0	0	0	512	510	0	0	
6	0	0	0	0	510	510	0	0	
7	0	0	0	0	510	512	0	0	
8	0	0	0	0	504	513	0	0	
9	0	0	0	0	510	512	0	0	
10	0	0	0	0	513	512	0	0	
11	0	0	0	0	517	511	0	0	
12	0	0	0	0	513	510	0	0	
13	0	0	0	0	507	511	0	0	
14	0	0	0	0	505	509	0	0	
15	0	0	0	0	506	511	0	0	
0	0	0	0	0	506	511	0	0	
1	0	0	0	0	503	513	0	0	
2	0	0	0	0	505	510	0	0	
3	0	0	0	0	504	512	0	0	
4	0	0	0	0	505	507	0	0	
5	0	0	0	0	509	508	0	0	
6	0	0	0	0	510	511	0	0	
7	0	0	0	0	509	511	0	0	
8	0	0	0	0	511	509	0	0	
9	0	0	0	0	513	508	0	0	
10	0	0	0	0	510	509	0	0	
11	0	0	0	0	508	511	0	0	
12	0	0	0	0	504	509	0	0	
13	0	0	0	0	506	511	0	0	
14	0	0	0	0	510	510	0	0	
15	0	0	0	0	510	511	0	0	
0	0	0	0	0	510	511	0	0	
1	0	0	0	0	509	511	0	0	
2	0	0	0	0	509	512	0	0	
3	0	0	0	0	515	510	0	0	
4	0	0	0	0	506	511	0	0	
5	0	0	0	0	505	509	0	0	
6	0	0	0	0	504	507	0	0	
7	0	0	0	0	517	509	0	0	
8	0	0	0	0	521	510	0	0	
9	0	0	0	0	510	511	0	0	
10	0	0	0	0	508	512	0	0	
11	0	0	0	0	510	513	0	0	
12	0	0	0	0	500	511	0	0	
13	0	0	0	0	505	513	0	0	
14	0	0	0	0	509	512	0	0	
15	0	0	0	0	505	509	0	0	
0	0	0	0	0	501	511	0	0	
1	0	0	0	0	506	509	0	0	
2	0	0	0	0	510	514	0	0	
3	0	0	0	0	511	513	0	0	
4	0	0	0	0	512	510	0	0	
5	0	0	0	0	509	511	0	0	
6	0	0	0	0	509	512	0	0	
7	0	0	0	0	509	508	0	0	
8	0	0	0	0	510	508	0	0	
9	0	0	0	0	508	510	0	0	
10	0	0	0	0	507	510	0	0	
11	0	0	0	0	505	510	0	0	
12	0	0	0	0	506	509	0	0	
13	0	0	0	0	508	510	0	0	
14	0	0	0	0	508	509	0	0	
15	0	0	0	0	503	513	0	0	
0	0	0	0	0	505	513	0	0	
1	0	0	0	0	511	512	0	0	
2	0	0	0	0	514	510	0	0	
3	0	0	0	0	517	512	0	0	
4	0	0	0	0	516	511	0	0	
5	0	0	0	0	515	511	0	0	
6	0	0	0	0	517	511	0	0	
7	0	0	0	0	512	508	0	0	
8	0	0	0	0	508	507	0	0	
9	0	0	0	0	503	510	0	0	
10	0	0	0	0	503	512	0	0	
11	0	0	0	0	504	510	0	0	
12	0	0	0	0	506	511	0	0	
13	0	0	0	0	506	511	0	0	
14	0	0	0	0	506	511	0	0	
15	0	0	0	0	504	510	0	0	
0	0	0	0	0	504	509	0	0	
1	0	0	0	0	505	511	0	0	
2	0	0	0	0	504	510	0	0	
3	0	0	0	0	503	512	0	0	
4	0	0	0	0	506	511	0	0	
5	0	0	0	0	511	509	0	0	
6	0	0	0	0	513	511	0	0	
7	0	0	0	0	515	508	0	0	
8	0	0	0	0	512	510	0	0	
9	0	0	0	0	512	511	0	0	
10	0	0	0	0	512	512	0	0	
11	0	0	0	0	512	511	0	0	
12	0	0	0	0	510	510	0	0	
13	0	0	0	0	510	511	0	0	
14	0	0	0	0	510	510	0	0	
15	0	0	0	0	515	509	0	0	
0	0	0	0	0	504	508	0	0	
1	0	0	0	0	511	513	0	0	
2	0	0	0	0	508	509	0	0	
3	0	0	0	0	503	510	0	0	
4	0	0	0	0	502	511	0	0	
5	0	0	0	0	503	511	0	0	
6	0	0	0	0	505	510	0	0	
7	0	0	0	0	503	511	0	0	
8	0	0	0	0	509	512	0	0	
9	0	0	0	0	508	513	0	0	
10	0	0	0	0	512	509	0	0	
11	0	0	0	0	522	510	0	0	
12	0	0	0	0	518	510	0	0	
13	0	0	0	0	511	508	0	0	
14	0	0	0	0	511	509	0	0	
15	0	0	0	0	507	512	0	0	
0	0	0	0	0	504	511	0	0	
1	0	0	0	0	504	512	0	0	
2	0	0	0	0	508	510	0	0	
3	0	0	0	0	508	509	0	0	
4	0	0	0	0	508	509	0	0	
5	0	0	0	0	505	508	0	0	
6	0	0	0	0	504	510	0	0	
7	0	0	0	0	504	512	0	0	
8	0	0	0	0	506	511	0	0	
9	0	0	0	0	508	511	0	0	
10	0	0	0	0	502	510	0	0	
11	0	0	0	0	503	512	0	0	
12	0	0	0	0	516	513	0	0	
13	0	0	0	0	517	510	0	0	
14	0	0	0	0	519	509	0	0	
15	0	0	0	0	516	510	0	0	
0	0	0	0	0	511	511	0	0	
1	0	0	0	0	511	508	0	0	
2	0	0	0	0	507	513	0	0	
3	0	0	0	0	502	512	0	0	
4	0	0	0	0	507	510	0	0	
5	0	0	0	0	509	510	0	0	
6	0	0	0	0	504	510	0	0	
7	0	0	0	0	502	510	0	0	
8	0	0	0	0	507	511	0	0	
9	0	0	0	0	506	511	0	0	
10	0	0	0	0	504	512	0	0	
11	0	0	0	0	506	507	0	0	
12	0	0	0	0	504	506	0	0	
13	0	0	0	0	505	510	0	0	
14	0	0	0	0	511	511	0	0	
15	0	0	0	0	518	510	0	0	
0	0	0	0	0	525	509	0	0	
1	0	0	0	0	520	509	0	0	
2	0	0	0	0	508	511	0	0	
3	0	0	0	0	506	511	0	0	
4	0	0	0	0	508	511	0	0	
5	0	0	0	0	511	513	0	0	
6	0	0	0	0	511	511	0	0	
7	0	0	0	0	509	512	0	0	
8	0	0	0	0	507	513	0	0	
9	0	0	0	0	509	512	0	0	
10	0	0	0	0	507	509	0	0	
11	0	0	0	0	504	510	0	0	
12	0	0	0	0	503	511	0	0	
13	0	0	0	0	502	506	0	0	
14	0	0	0	0	505	509	0	0	
15	0	0	0	0	504	509	0	0	
0	0	0	0	0	507	512	0	0	
1	0	0	0	0	504	511	0	0	
2	0	0	0	0	505	510	0	0	
3	0	0	0	0	510	511	0	0	
4	0	0	0	0	511	510	0	0	
5	0	0	0	0	513	511	0	0	
6	0	0	0	0	514	510	0	0	
7	0	0	0	0	509	510	0	0	
8	0	0	0	0	509	510	0	0	
9	0	0	0	0	510	512	0	0	
10	0	0	0	0	511	511	0	0	
11	0	0	0	0	517	512	0	0	
12	0	0	0	0	516	513	0	0	
13	0	0	0	0	510	511	0	0	
14	0	0	0	0	512	511	0	0	
15	0	0	0	0	509	510	0	0	
0	0	0	0	0	506	510	0	0	
1	0	0	0	0	505	509	0	0	
2	0	0	0	0	499	509	0	0	
3	0	0	0	0	498	513	0	0	
4	0	0	0	0	501	514	0	0	
5	0	0	0	0	509	508	0	0	
6	0	0	0	0	507	506	0	0	
7	0	0	0	0	504	509	0	0	
8	0	0	0	0	507	509	0	0	
9	0	0	0	0	512	511	0	0	
10	0	0	0	0	512	511	0	0	
11	0	0	0	0	519	510	0	0	
12	0	0	0	0	521	508	0	0	
13	0	0	0	0	514	511	0	0	
14	0	0	0	0	509	511	0	0	
15	0	0	0	0	504	510	0	0	
0	0	0	0	0	509	512	0	0	
1	0	0	0	0	511	512	0	0	
2	0	0	0	0	508	509	0	0	
3	0	0	0	0	505	510	0	0	
4	0	0	0	0	504	510	0	0	
5	0	0	0	0	505	510	0	0	
6	0	0	0	0	503	511	0	0	
7	0	0	0	0	502	510	0	0	
8	0	0	0	0	504	511	0	0	
9	0	0	0	0	505	509	0	0	
10	0	0	0	0	506	511	0	0	
11	0	0	0	0	510	511	0	0	
12	0	0	0	0	508	511	0	0	
13	0	0	0	0	512	511	0	0	
14	0	0	0	0	509	512	0	0	
15	0	0	0	0	507	511	0	0	
0	0	0	0	0	508	510	0	0	
1	0	0	0	0	515	512	0	0	
2	0	0	0	0	524	511	0	0	
3	0	0	0	0	527	510	0	0	
4	0	0	0	0	516	511	0	0	
5	0	0	0	0	508	510	0	0	
6	0	0	0	0	503	511	0	0	
7	0	0	0	0	503	511	0	0	
8	0	0	0	0	503	510	0	0	
9	0	0	0	0	502	508	0	0	
10	0	0	0	0	504	508	0	0	
11	0	0	0	0	503	507	0	0	
12	0	0	0	0	502	507	0	0	
13	0	0	0	0	504	509	0	0	
14	0	0	0	0	506	512	0	0	
15	0	0	0	0	500	508	0	0	
0	0	0	0	0	504	509	0	0	
1	0	0	0	0	507	512	0	0	
2	0	0	0	0	507	513	0	0	
3	0	0	0	0	512	510	0	0	
4	0	0	0	0	515	510	0	0	
5	0	0	0	0	519	511	0	0	
6	0	0	0	0	531	512	0	0	
7	0	0	0	0	526	512	0	0	
8	0	0	0	0	519	513	0	0	
9	0	0	0	0	507	510	0	0	
10	0	0	0	0	504	511	0	0	
11	0	0	0	0	502	510	0	0	
12	0	0	0	0	500	508	0	0	
13	0	0	0	0	502	509	0	0	
14	0	0	0	0	500	510	0	0	
15	0	0	0	0	499	510	0	0	
0	0	0	0	0	504	510	0	0	
1	0	0	0	0	515	509	0	0	
2	0	0	0	0	501	512	0	0	
3	0	0	0	0	499	510	0	0	
4	0	0	0	0	503	512	0	0	
5	0	0	0	0	509	513	0	0	
6	0	0	0	0	512	513	0	0	
7	0	0	0	0	511	511	0	0	
8	0	0	0	0	511	512	0	0	
9	0	0	0	0	512	508	0	0	
10	0	0	0	0	518	512	0	0	
11	0	0	0	0	525	511	0	0	
12	0	0	0	0	517	512	0	0	
13	0	0	0	0	508	509	0	0	
14	0	0	0	0	505	508	0	0	
15	0	0	0	0	502	511	0	0	
0	0	0	0	0	502	510	0	0	
1	0	0	0	0	502	511	0	0	
2	0	0	0	0	499	511	0	0	
3	0	0	0	0	503	511	0	0	
4	0	0	0	0	504	509	0	0	
5	0	0	0	0	512	508	0	0	
6	0	0	0	0	508	509	0	0	
7	0	0	0	0	507	510	0	0	
8	0	0	0	0	511	511	0	0	
9	0	0	0	0	516	511	0	0	
10	0	0	0	0	515	511	0	0	
11	0	0	0	0	514	511	0	0	
12	0	0	0	0	512	511	0	0	
13	0	0	0	0	512	513	0	0	
14	0	0	0	0	511	510	0	0	
15	0	0	0	0	509	509	0	0	
0	0	0	0	0	505	510	0	0	
1	0	0	0	0	506	511	0	0	
2	0	0	0	0	509	511	0	0	
3	0	0	0	0	509	512	0	0	
4	0	0	0	0	503	512	0	0	
5	0	0	0	0	508	509	0	0	
6	0	0	0	0	506	507	0	0	
7	0	0	0	0	504	512	0	0	
8	0	0	0	0	507	508	0	0	
9	0	0	0	0	507	510	0	0	
10	0	0	0	0	507	510	0	0	
11	0	0	0	0	503	512	0	0	
12	0	0	0	0	506	511	0	0	
13	0	0	0	0	511	510	0	0	
14	0	0	0	0	509	510	0	0	
15	0	0	0	0	516	508	0	0	
0	0	0	0	0	517	512	0	0	
1	0	0	0	0	515	508	0	0	
2	0	0	0	0	514	508	0	0	
3	0	0	0	0	511	511	0	0	
4	0	0	0	0	506	512	0	0	
5	0	0	0	0	512	513	0	0	
6	0	0	0	0	511	511	0	0	
7	0	0	0	0	509	510	0	0	
8	0	0	0	0	507	509	0	0	
9	0	0	0	0	505	511	0	0	
10	0	0	0	0	499	509	0	0	
11	0	0	0	0	500	512	0	0	
12	0	0	0	0	498	512	0	0	
13	0	0	0	0	497	512	0	0	
14	0	0	0	0	511	513	0	0	
15	0	0	0	0	507	512	0	0	
0	0	0	0	0	512	508	0	0	
1	0	0	0	0	516	506	0	0	
2	0	0	0	0	519	510	0	0	
3	0	0	0	0	523	513	0	0	
4	0	0	0	0	519	511	0	0	
5	0	0	0	0	522	511	0	0	
6	0	0	0	0	509	511	0	0	
7	0	0	0	0	506	512	0	0	
8	0	0	0	0	501	509	0	0	
9	0	0	0	0	499	508	0	0	
10	0	0	0	0	503	510	0	0	
11	0	0	0	0	505	512	0	0	
12	0	0	0	0	504	512	0	0	
13	0	0	0	0	507	512	0	0	
14	0	0	0	0	504	512	0	0	
15	0	0	0	0	505	507	0	0	
0	0	0	0	0	507	510	0	0	
1	0	0	0	0	506	510	0	0	
2	0	0	0	0	507	509	0	0	
3	0	0	0	0	509	509	0	0	
4	0	0	0	0	510	510	0	0	
5	0	0	0	0	510	512	0	0	
6	0	0	0	0	511	513	0	0	
7	0	0	0	0	511	512	0	0	
8	0	0	0	0	511	512	0	0	
9	0	0	0	0	508	511	0	0	
10	0	0	0	0	507	510	0	0	
11	0	0	0	0	508	511	0	0	
12	0	0	0	0	509	511	0	0	
13	0	0	0	0	514	509	0	0	
14	0	0	0	0	512	511	0	0	
15	0	0	0	0	507	507	0	0	
0	0	0	0	0	504	508	0	0	
1	0	0	0	0	503	508	0	0	
2	0	0	0	0	504	511	0	0	
3	0	0	0	0	505	513	0	0	
4	0	0	0	0	511	510	0	0	
5	0	0	0	0	517	511	0	0	
6	0	0	0	0	517	510	0	0	
7	0	0	0	0	506	510	0	0	
8	0	0	0	0	507	512	0	0	
9	0	0	0	0	509	512	0	0	
10	0	0	0	0	508	512	0	0	
11	0	0	0	0	512	513	0	0	
12	0	0	0	0	509	510	0	0	
13	0	0	0	0	502	510	0	0	
14	0	0	0	0	504	510	0	0	
15	0	0	0	0	504	509	0	0	
0	0	0	0	0	505	509	0	0	
1	0	0	0	0	508	509	0	0	
2	0	0	0	0	518	509	0	0	
3	0	0	0	0	515	511	0	0	
4	0	0	0	0	505	512	0	0	
5	0	0	0	0	503	511	0	0	
6	0	0	0	0	501	511	0	0	
7	0	0	0	0	500	511	0	0	
8	0	0	0	0	503	510	0	0	
9	0	0	0	0	513	507	0	0	
10	0	0	0	0	517	509	0	0	
11	0	0	0	0	509	511	0	0	
12	0	0	0	0	509	512	0	0	
13	0	0	0	0	512	510	0	0	
14	0	0	0	0	514	508	0	0	
15	0	0	0	0	511	511	0	0	
0	0	0	0	0	511	511	0	0	
1	0	0	0	0	511	512	0	0	
2	0	0	0	0	512	512	0	0	
3	0	0	0	0	516	509	0	0	
4	0	0	0	0	509	511	0	0	
5	0	0	0	0	507	510	0	0	
6	0	0	0	0	507	510	0	0	
7	0	0	0	0	505	511	0	0	
8	0	0	0	0	504	512	0	0	
9	0	0	0	0	503	509	0	0	
10	0	0	0	0	492	511	0	0	
11	0	0	0	0	498	511	0	0	
12	0	0	0	0	509	512	0	0	
13	0	0	0	0	510	507	0	0	
14	0	0	0	0	513	506	0	0	
15	0	0	0	0	498	506	0	0	
0	0	0	0	0	499	508	0	0	
1	0	0	0	0	508	512	0	0	
2	0	0	0	0	522	515	0	0	
3	0	0	0	0	523	515	0	0	
4	0	0	0	0	519	513	0	0	
5	0	0	0	0	525	512	0	0	
6	0	0	0	0	521	508	0	0	
7	0	0	0	0	517	509	0	0	
8	0	0	0	0	512	511	0	0	
9	0	0	0	0	507	512	0	0	
10	0	0	0	0	505	509	0	0	
11	0	0	0	0	501	510	0	0	
12	0	0	0	0	499	510	0	0	
13	0	0	0	0	503	512	0	0	
14	0	0	0	0	507	512	0	0	
15	0	0	0	0	503	509	0	0	
0	0	0	0	0	500	510	0	0	
1	0	0	0	0	500	513	0	0	
2	0	0	0	0	500	514	0	0	
3	0	0	0	0	506	510	0	0	
4	0	0	0	0	508	512	0	0	
5	0	0	0	0	515	513	0	0	
6	0	0	0	0	518	515	0	0	
7	0	0	0	0	520	512	0	0	
8	0	0	0	0	519	508	0	0	
9	0	0	0	0	511	512	0	0	
10	0	0	0	0	508	508	0	0	
11	0	0	0	0	510	508	0	0	
12	0	0	0	0	511	507	0	0	
13	0	0	0	0	507	511	0	0	
14	0	0	0	0	503	507	0	0	
15	0	0	0	0	508	509	0	0	
0	0	0	0	0	508	508	0	0	
1	0	0	0	0	504	509	0	0	
2	0	0	0	0	503	510	0	0	
3	0	0	0	0	503	512	0	0	
4	0	0	0	0	503	510	0	0	
5	0	0	0	0	508	513	0	0	
6	0	0	0	0	513	514	0	0	
7	0	0	0	0	509	512	0	0	
8	0	0	0	0	509	511	0	0	
9	0	0	0	0	491	513	0	0	
10	0	0	0	0	497	512	0	0	
11	0	0	0	0	516	511	0	0	
12	0	0	0	0	522	511	0	0	
13	0	0	0	0	525	509	0	0	
14	0	0	0	0	518	511	0	0	
15	0	0	0	0	515	511	0	0	
0	0	0	0	0	515	509	0	0	
1	0	0	0	0	511	508	0	0	
2	0	0	0	0	513	514	0	0	
3	0	0	0	0	499	512	0	0	
4	0	0	0	0	477	510	0	0	
5	0	0	0	0	493	507	0	0	
6	0	0	0	0	512	504	0	0	
7	0	0	0	0	516	506	0	0	
8	0	0	0	0	505	506	0	0	
9	0	0	0	0	516	512	0	0	
10	0	0	0	0	502	512	0	0	
11	0	0	0	0	504	512	0	0	
12	0	0	0	0	514	511	0	0	
13	0	0	0	0	521	511	0	0	
14	0	0	0	0	520	512	0	0	
15	0	0	0	0	516	515	0	0	
0	0	0	0	0	519	519	0	0	
1	0	0	0	0	513	517	0	0	
2	0	0	0	0	506	510	0	0	
3	0	0	0	0	504	511	0	0	
4	0	0	0	0	502	514	0	0	
5	0	0	0	0	502	510	0	0	
6	0	0	0	0	508	507	0	0	
7	0	0	0	0	502	502	0	0	
8	0	0	0	0	508	506	0	0	
9	0	0	0	0	505	502	0	0	
10	0	0	0	0	513	502	0	0	
11	0	0	0	0	503	514	0	0	
12	0	0	0	0	509	513	0	0	
13	0	0	0	0	532	521	0	0	
14	0	0	0	0	523	514	0	0	
15	0	0	0	0	496	508	0	0	
0	0	0	0	0	480	498	0	0	
1	0	0	0	0	475	495	0	0	
2	0	0	0	0	492	504	0	0	
3	0	0	0	0	542	509	0	0	
4	0	0	0	0	563	512	0	0	
5	0	0	0	0	515	513	0	0	
6	0	0	0	0	497	526	0	0	
7	0	0	0	0	494	526	0	0	
8	0	0	0	0	491	519	0	0	
9	0	0	0	0	500	510	0	0	
10	0	0	0	0	500	509	0	0	
11	0	0	0	0	525	511	0	0	
12	0	0	0	0	530	510	0	0	
13	0	0	0	0	510	504	0	0	
14	0	0	0	0	488	502	0	0	
15	0	0	0	0	475	508	0	0	
0	0	0	0	0	476	515	0	0	
1	0	0	0	0	472	513	0	0	
2	0	0	0	0	513	508	0	0	
3	0	0	0	0	538	499	0	0	
4	0	0	0	0	543	511	0	0	
5	0	0	0	0	517	518	0	0	
6	0	0	0	0	527	528	0	0	
7	0	0	0	0	537	535	0	0	
8	0	0	0	0	540	525	0	0	
9	0	0	0	0	537	508	0	0	
10	0	0	0	0	516	502	0	0	
11	0	0	0	0	482	499	0	0	
12	0	0	0	0	465	502	0	0	
13	0	0	0	0	452	495	0	0	
14	0	0	0	0	484	496	0	0	
15	0	0	0	0	518	494	0	0	
0	0	0	0	0	554	491	0	0	
1	0	0	0	0	556	497	0	0	
2	0	0	0	0	495	505	0	0	
3	0	0	0	0	463	510	0	0	
4	0	0	0	0	468	524	0	0	
5	0	0	0	0	502	537	0	0	
6	0	0	0	0	509	540	0	0	
7	0	0	0	0	484	520	0	0	
8	0	0	0	0	500	510	0	0	
9	0	0	0	0	536	506	0	0	
10	0	0	0	0	562	506	0	0	
11	0	0	0	0	563	509	0	0	
12	0	0	0	0	540	494	0	0	
13	0	0	0	0	529	492	0	0	
14	0	0	0	0	483	502	0	0	
15	0	0	0	0	408	501	0	0	
0	0	0	0	0	465	526	0	0	
1	0	0	0	0	588	552	0	0	
2	0	0	0	0	519	546	0	0	
3	0	0	0	0	520	526	0	0	
4	0	0	0	0	463	508	0	0	
5	0	0	0	0	417	491	0	0	
6	0	0	0	0	470	474	0	0	
7	0	0	0	0	536	485	0	0	
8	0	0	0	0	620	499	0	0	
9	0	0	0	0	616	506	0	0	
10	0	0	0	0	562	520	0	0	
11	0	0	0	0	550	537	0	0	
12	0	0	0	0	474	527	0	0	
13	0	0	0	0	436	526	0	0	
14	0	0	0	0	410	505	0	0	
15	0	0	0	0	444	469	0	0	
0	0	0	0	0	512	500	0	0	
1	0	0	0	0	482	496	0	0	
2	0	0	0	0	533	507	7	0	
3	0	0	0	0	556	523	8	0	
4	0	0	0	0	563	528	11	0	
5	0	0	0	0	513	536	15	0	
6	0	0	0	0	495	551	20	0	
7	0	0	0	0	502	537	20	0	
8	0	0	0	0	492	543	25	0	
9	0	0	0	0	448	511	23	0	
10	0	0	0	0	495	487	31	0	
11	0	0	0	0	530	479	32	0	
12	0	0	0	0	529	479	33	0	
13	0	0	0	0	483	492	35	0	
14	0	0	0	0	468	535	39	0	
15	0	0	0	0	506	547	43	0	
0	0	0	0	0	604	531	43	0	
1	0	0	0	0	607	492	45	0	
2	0	0	0	0	547	483	48	0	
3	0	0	0	0	519	453	55	0	
4	0	0	0	0	510	468	51	0	
5	0	0	0	0	506	479	56	0	
6	0	0	0	0	499	475	53	0	
7	0	0	0	0	454	485	56	0	
8	0	0	0	0	510	555	57	0	
9	0	0	0	0	420	562	56	0	
10	0	0	0	0	453	603	56	0	
11	0	0	0	0	533	606	56	0	
12	0	0	0	0	521	578	60	0	
13	0	0	0	0	498	547	61	0	
14	0	0	0	0	445	518	62	0	
15	0	0	0	0	475	511	61	0	
0	0	0	0	0	511	441	62	0	
1	0	0	0	0	538	434	63	0	
2	0	0	0	0	588	463	62	0	
3	0	0	0	0	595	488	58	0	
4	0	0	0	0	523	527	56	0	
5	0	0	0	0	511	548	55	0	
6	0	0	0	0	469	463	54	0	
7	0	0	0	0	489	447	53	0	
8	0	0	0	0	483	456	57	0	
9	0	0	0	0	509	469	51	0	
10	0	0	0	0	564	439	50	0	
11	0	0	0	0	614	438	47	0	
12	0	0	0	0	578	499	44	0	
13	0	0	0	0	476	553	43	0	
14	0	0	0	0	383	573	45	0	
15	0	0	0	0	392	581	43	0	
0	0	0	0	0	472	525	42	0	
1	0	0	0	0	515	480	37	0	
2	0	0	0	0	559	461	36	0	
3	0	0	0	0	566	492	36	0	
4	0	0	0	0	590	511	35	0	
5	0	0	0	0	499	542	35	0	
6	0	0	0	0	480	519	36	0	
7	0	0	0	0	523	519	37	0	
8	0	0	0	0	540	546	38	0	
9	0	0	0	0	540	562	41	0	
10	0	0	0	0	423	562	45	0	
11	0	0	0	0	412	526	47	0	
12	0	0	0	0	390	547	51	0	
13	0	0	0	0	430	554	56	0	
14	0	0	0	0	562	513	56	0	
15	0	0	0	0	670	504	64	0	
0	0	0	0	0	660	501	68	0	
1	0	0	0	0	572	452	68	0	
2	0	0	0	0	521	478	79	0	
3	0	0	0	0	408	532	83	0	
4	0	0	0	0	434	514	84	0	
5	0	0	0	0	559	525	92	0	
6	0	0	0	0	533	528	88	0	
7	0	0	0	0	455	499	96	0	
8	0	0	0	0	511	529	98	0	
9	0	0	0	0	476	547	109	0	
10	0	0	0	0	487	490	118	0	
11	0	0	0	0	467	438	122	0	
12	0	0	0	0	461	476	131	0	
13	0	0	0	0	510	483	128	0	
14	0	0	0	0	500	465	164	0	
15	0	0	0	0	498	439	167	0	
0	0	0	0	0	485	540	171	0	
1	0	0	0	0	480	593	175	0	
2	0	0	0	0	524	541	179	0	
3	0	0	0	0	618	506	187	0	
4	0	0	0	0	579	518	192	0	
5	0	0	0	0	556	547	204	0	
6	0	0	0	0	491	541	205	0	
7	0	0	0	0	437	514	203	0	
8	0	0	0	0	478	542	205	0	
9	0	0	0	0	513	531	207	0	
10	0	0	0	0	518	484	212	0	
11	0	0	0	0	519	455	213	0	
12	0	0	0	0	557	497	214	0	
13	0	0	0	0	580	508	220	0	
14	0	0	0	0	571	526	214	0	
15	0	0	0	0	496	513	224	0	
0	0	0	0	0	492	506	229	0	
1	0	0	0	0	503	497	230	0	
2	0	0	0	0	436	525	235	0	
3	0	0	0	0	407	519	238	0	
4	0	0	0	0	529	536	242	0	
5	0	0	0	0	626	501	246	0	
6	0	0	0	0	562	505	247	0	
7	0	0	0	0	521	504	246	0	
8	0	0	0	0	513	527	246	0	
9	0	0	0	0	516	541	251	0	
10	0	0	0	0	516	537	249	0	
11	0	0	0	0	470	470	253	0	
12	0	0	0	0	383	444	250	0	
13	0	0	0	0	313	433	251	0	
14	0	0	0	0	336	459	255	0	
15	0	0	0	0	452	525	262	0	
0	0	0	0	0	573	549	264	0	
1	0	0	0	0	622	511	266	0	
2	0	0	0	0	604	502	270	0	
3	0	0	0	0	572	510	274	0	
4	0	0	0	0	542	523	272	0	
5	0	0	0	0	552	535	272	0	
6	0	0	0	0	537	520	273	0	
7	0	0	0	0	525	529	278	0	
8	0	0	0	0	484	499	282	0	
9	0	0	0	0	466	487	288	0	
10	0	0	0	0	492	501	291	0	
11	0	0	0	0	533	534	294	0	
12	0	0	0	0	501	540	292	0	
13	0	0	0	0	503	534	299	0	
14	0	0	0	0	485	536	302	0	
15	0	0	0	0	536	530	307	0	
0	0	0	0	0	583	501	311	0	
1	0	0	0	0	509	502	312	0	
2	0	0	0	0	476	489	314	0	
3	0	0	0	0	495	495	317	0	
4	0	0	0	0	523	524	316	0	
5	0	0	0	0	489	535	316	0	
6	0	0	0	0	487	521	318	0	
7	0	0	0	0	527	517	319	0	
8	0	0	0	0	547	516	319	0	
9	0	0	0	0	539	527	320	0	
10	0	0	0	0	490	526	319	0	
11	0	0	0	0	494	554	324	0	
12	0	0	0	0	530	556	331	0	
13	0	0	0	0	530	525	335	0	
14	0	0	0	0	494	486	333	0	
15	0	0	0	0	470	457	334	0	
0	0	0	0	0	475	438	338	0	
1	0	0	0	0	463	465	339	0	
2	0	0	0	0	469	473	343	0	
3	0	0	0	0	499	487	341	0	
4	0	0	0	0	535	507	343	0	
5	0	0	0	0	502	532	347	0	
6	0	0	0	0	440	540	348	0	
7	0	0	0	0	450	537	355	0	
8	0	0	0	0	519	529	359	0	
9	0	0	0	0	561	539	360	0	
10	0	0	0	0	551	516	362	0	
11	0	0	0	0	494	488	357	0	
12	0	0	0	0	518	479	358	0	
13	0	0	0	0	592	499	363	0	
14	0	0	0	0	616	522	366	0	
15	0	0	0	0	575	512	368	0	
0	0	0	0	0	527	504	373	0	
1	0	0	0	0	505	497	372	0	
2	0	0	0	0	476	499	375	0	
3	0	0	0	0	423	539	384	0	
4	0	0	0	0	435	526	377	0	
5	0	0	0	0	480	502	391	0	
6	0	0	0	0	494	480	391	0	
7	0	0	0	0	551	510	395	0	
8	0	0	0	0	546	550	400	0	
9	0	0	0	0	560	525	403	0	
10	0	0	0	0	546	496	406	0	
11	0	0	0	0	475	467	411	0	
12	0	0	0	0	440	464	409	0	
13	0	0	0	0	452	511	408	0	
14	0	0	0	0	495	551	415	0	
15	0	0	0	0	486	546	416	0	
0	0	0	0	0	494	513	415	0	
1	0	0	0	0	534	490	415	0	
2	0	0	0	0	605	531	405	0	
3	0	0	0	0	588	543	405	0	
4	0	0	0	0	489	524	404	0	
5	0	0	0	0	452	510	407	0	
6	0	0	0	0	454	556	408	0	
7	0	0	0	0	454	542	408	0	
8	0	0	0	0	512	501	411	0	
9	0	0	0	0	527	502	412	0	
10	0	0	0	0	520	518	414	0	
11	0	0	0	0	527	508	414	0	
12	0	0	0	0	521	460	415	0	
13	0	0	0	0	499	452	419	0	
14	0	0	0	0	493	505	420	0	
15	0	0	0	0	488	502	419	0	
0	0	0	0	0	492	480	417	0	
1	0	0	0	0	511	466	416	0	
2	0	0	0	0	554	512	419	0	
3	0	0	0	0	537	548	421	0	
4	0	0	0	0	520	523	424	0	
5	0	0	0	0	513	518	426	0	
6	0	0	0	0	555	530	432	0	
7	0	0	0	0	460	505	432	0	
8	0	0	0	0	441	496	435	0	
9	0	0	0	0	483	518	434	0	
10	0	0	0	0	562	548	437	0	
11	0	0	0	0	577	514	439	0	
12	0	0	0	0	497	481	441	0	
13	0	0	0	0	453	495	442	0	
14	0	0	0	0	477	496	440	0	
15	0	0	0	0	515	533	440	0	
0	0	0	0	0	566	486	444	0	
1	0	0	0	0	529	476	444	0	
2	0	0	0	0	488	532	443	0	
3	0	0	0	0	542	556	447	0	
4	0	0	0	0	509	527	448	0	
5	0	0	0	0	455	511	445	0	
6	0	0	0	0	455	511	444	0	
7	0	0	0	0	487	532	444	0	
8	0	0	0	0	552	546	446	0	
9	0	0	0	0	579	496	446	0	
10	0	0	0	0	495	451	448	0	
11	0	0	0	0	430	443	448	0	
12	0	0	0	0	432	546	450	0	
13	0	0	0	0	491	543	455	0	
14	0	0	0	0	587	513	456	0	
15	0	0	0	0	600	513	459	0	
0	0	0	0	0	584	507	457	0	
1	0	0	0	0	553	521	457	0	
2	0	0	0	0	508	539	459	0	
3	0	0	0	0	513	546	458	0	
4	0	0	0	0	511	537	459	0	
5	0	0	0	0	496	534	463	0	
6	0	0	0	0	514	492	457	0	
7	0	0	0	0	436	463	460	0	
8	0	0	0	0	391	444	462	0	
9	0	0	0	0	434	485	460	0	
10	0	0	0	0	486	516	460	0	
11	0	0	0	0	502	527	461	0	
12	0	0	0	0	510	523	459	0	
13	0	0	0	0	571	531	459	0	
14	0	0	0	0	563	529	460	0	
15	0	0	0	0	559	507	464	0	
0	0	0	0	0	542	494	463	0	
1	0	0	0	0	495	491	462	0	
2	0	0	0	0	483	510	463	0	
3	0	0	0	0	494	518	466	0	
4	0	0	0	0	509	525	465	0	
5	0	0	0	0	516	530	466	0	
6	0	0	0	0	537	500	463	0	
7	0	0	0	0	522	491	464	0	
8	0	0	0	0	499	498	466	0	
9	0	0	0	0	531	504	467	0	
10	0	0	0	0	531	515	467	0	
11	0	0	0	0	451	491	469	0	
12	0	0	0	0	419	501	469	0	
13	0	0	0	0	463	516	468	0	
14	0	0	0	0	506	527	470	0	
15	0	0	0	0	479	512	470	0	
0	0	0	0	0	490	538	472	0	
1	0	0	0	0	544	545	472	0	
2	0	0	0	0	553	507	472	0	
3	0	0	0	0	582	486	472	0	
4	0	0	0	0	574	492	472	0	
5	0	0	0	0	526	510	473	0	
6	0	0	0	0	513	502	473	0	
7	0	0	0	0	512	508	473	0	
8	0	0	0	0	495	510	474	0	
9	0	0	0	0	506	515	474	0	
10	0	0	0	0	498	526	476	0	
11	0	0	0	0	508	542	474	0	
12	0	0	0	0	495	541	474	0	
13	0	0	0	0	498	559	473	0	
14	0	0	0	0	533	505	473	0	
15	0	0	0	0	519	449	472	0	
0	0	0	0	0	460	455	471	0	
1	0	0	0	0	491	483	472	0	
2	0	0	0	0	483	512	471	0	
3	0	0	0	0	496	518	471	0	
4	0	0	0	0	488	510	469	0	
5	0	0	0	0	472	513	469	0	
6	0	0	0	0	506	528	469	0	
7	0	0	0	0	502	528	470	0	
8	0	0	0	0	545	521	469	0	
9	0	0	0	0	601	507	467	0	
10	0	0	0	0	588	517	465	0	
11	0	0	0	0	548	491	466	0	
12	0	0	0	0	482	485	465	0	
13	0	0	0	0	453	505	464	0	
14	0	0	0	0	437	509	465	0	
15	0	0	0	0	493	500	465	0	
0	0	0	0	0	517	508	467	0	
1	0	0	0	0	504	521	466	0	
2	0	0	0	0	496	524	466	0	
3	0	0	0	0	477	523	467	0	
4	0	0	0	0	504	503	467	0	
5	0	0	0	0	542	496	470	0	
6	0	0	0	0	520	514	470	0	
7	0	0	0	0	524	536	471	0	
8	0	0	0	0	520	527	471	0	
9	0	0	0	0	523	494	470	0	
10	0	0	0	0	472	491	472	0	
11	0	0	0	0	486	510	472	0	
12	0	0	0	0	498	502	472	0	
13	0	0	0	0	485	515	471	0	
14	0	0	0	0	486	552	470	0	
15	0	0	0	0	536	589	470	0	
0	0	0	0	0	584	569	469	0	
1	0	0	0	0	629	499	470	0	
2	0	0	0	0	593	456	472	0	
3	0	0	0	0	500	456	472	0	
4	0	0	0	0	475	471	472	0	
5	0	0	0	0	482	468	472	0	
6	0	0	0	0	511	495	473	0	
7	0	0	0	0	517	534	474	0	
8	0	0	0	0	464	520	475	0	
9	0	0	0	0	438	525	476	0	
10	0	0	0	0	462	531	475	0	
11	0	0	0	0	492	512	473	0	
12	0	0	0	0	536	518	474	0	
13	0	0	0	0	530	477	474	0	
14	0	0	0	0	509	465	475	0	
15	0	0	0	0	506	508	474	0	
0	0	0	0	0	511	536	475	0	
1	0	0	0	0	499	551	474	0	
2	0	0	0	0	487	541	475	0	
3	0	0	0	0	473	535	475	0	
4	0	0	0	0	493	513	475	0	
5	0	0	0	0	525	492	475	0	
6	0	0	0	0	561	491	476	0	
7	0	0	0	0	530	478	477	0	
8	0	0	0	0	544	487	477	0	
9	0	0	0	0	543	531	477	0	
10	0	0	0	0	503	537	477	0	
11	0	0	0	0	515	516	477	0	
12	0	0	0	0	523	502	478	0	
13	0	0	0	0	505	508	478	0	
14	0	0	0	0	468	509	478	0	
15	0	0	0	0	450	517	478	0	
0	0	0	0	0	488	516	479	0	
1	0	0	0	0	444	498	478	0	
2	0	0	0	0	440	490	478	0	
3	0	0	0	0	478	507	478	0	
4	0	0	0	0	540	509	478	0	
5	0	0	0	0	578	548	478	0	
6	0	0	0	0	565	529	478	0	
7	0	0	0	0	541	521	479	0	
8	0	0	0	0	528	509	478	0	
9	0	0	0	0	489	504	478	0	
10	0	0	0	0	469	506	477	0	
11	0	0	0	0	455	470	477	0	
12	0	0	0	0	444	494	476	0	
13	0	0	0	0	508	503	477	0	
14	0	0	0	0	602	503	477	0	
15	0	0	0	0	574	521	478	0	
0	0	0	0	0	522	545	477	0	
1	0	0	0	0	516	541	477	0	
2	0	0	0	0	472	519	477	0	
3	0	0	0	0	449	486	476	0	
4	0	0	0	0	479	481	475	0	
5	0	0	0	0	572	518	475	0	
6	0	0	0	0	633	531	476	0	
7	0	0	0	0	537	508	476	0	
8	0	0	0	0	441	511	476	0	
9	0	0	0	0	550	511	476	0	
10	0	0	0	0	534	498	477	0	
11	0	0	0	0	554	541	478	0	
12	0	0	0	0	568	557	478	0	
13	0	0	0	0	524	533	479	0	
14	0	0	0	0	435	508	481	0	
15	0	0	0	0	394	500	479	0	
0	0	0	0	0	434	499	479	0	
1	0	0	0	0	498	524	478	0	
2	0	0	0	0	532	529	478	0	
3	0	0	0	0	478	505	477	0	
4	0	0	0	0	480	496	479	0	
5	0	0	0	0	519	472	480	0	
6	0	0	0	0	526	439	480	0	
7	0	0	0	0	567	469	480	0	
8	0	0	0	0	563	500	479	0	
9	0	0	0	0	537	551	479	0	
10	0	0	0	0	483	523	479	0	
11	0	0	0	0	488	507	480	0	
12	0	0	0	0	501	513	481	0	
13	0	0	0	0	505	512	481	0	
14	0	0	0	0	535	527	481	0	
15	0	0	0	0	541	531	482	0	
0	0	0	0	0	511	518	482	0	
1	0	0	0	0	482	526	482	0	
2	0	0	0	0	481	534	482	0	
3	0	0	0	0	511	515	482	0	
4	0	0	0	0	464	475	482	0	
5	0	0	0	0	417	495	483	0	
6	0	0	0	0	473	510	483	0	
7	0	0	0	0	507	496	484	0	
8	0	0	0	0	528	501	484	0	
9	0	0	0	0	539	505	483	0	
10	0	0	0	0	542	504	484	0	
11	0	0	0	0	532	516	484	0	
12	0	0	0	0	507	527	484	0	
13	0	0	0	0	512	532	484	0	
14	0	0	0	0	535	523	483	0	
15	0	0	0	0	532	491	484	0	
0	0	0	0	0	528	461	484	0	
1	0	0	0	0	491	520	484	0	
2	0	0	0	0	506	556	484	0	
3	0	0	0	0	501	550	484	0	
4	0	0	0	0	501	552	484	0	
5	0	0	0	0	514	535	485	0	
6	0	0	0	0	557	503	485	0	
7	0	0	0	0	508	479	485	0	
8	0	0	0	0	489	502	486	0	
9	0	0	0	0	479	500	486	0	
10	0	0	0	0	473	492	486	0	
11	0	0	0	0	487	502	486	0	
12	0	0	0	0	500	463	487	0	
13	0	0	0	0	508	486	487	0	
14	0	0	0	0	512	504	487	0	
