# OpenSignals Text File Format. Version 1
# {"20:18:06:13:21:78": {"position": 0, "device": "bitalino_rev", "device name": "20:18:06:13:21:78", "device connection": "BTH20:18:06:13:21:78", "sampling rate": 1000, "resolution": [4, 1, 1, 1, 1, 10, 10, 10, 10], "firmware version": 1281, "comments": "", "keywords": "", "mode": 0, "sync interval": 2, "date": "2023-6-5", "time": "19:38:48.484", "channels": [1, 2, 3, 4], "sensor": ["EMGBITREV", "EMGBITREV", "RAW", "RAW"], "label": ["A1", "A2", "A3", "A4"], "column": ["nSeq", "I1", "I2", "O1", "O2", "A1", "A2", "A3", "A4"], "special": [{}, {}, {}, {}], "digital IO": [0, 0, 1, 1]}}
# EndOfHeader
0	0	0	0	0	511	507	0	0	
1	0	0	0	0	509	508	0	0	
2	0	0	0	0	512	508	0	0	
3	0	0	0	0	508	508	0	0	
4	0	0	0	0	510	508	0	0	
5	0	0	0	0	513	508	0	0	
6	0	0	0	0	512	508	0	0	
7	0	0	0	0	512	507	0	0	
8	0	0	0	0	514	509	0	0	
9	0	0	0	0	511	510	0	0	
10	0	0	0	0	511	508	0	0	
11	0	0	0	0	514	507	0	0	
12	0	0	0	0	511	509	0	0	
13	0	0	0	0	514	509	0	0	
14	0	0	0	0	514	510	0	0	
15	0	0	0	0	512	509	0	0	
0	0	0	0	0	511	507	0	0	
1	0	0	0	0	510	508	0	0	
2	0	0	0	0	511	509	0	0	
3	0	0	0	0	509	506	0	0	
4	0	0	0	0	510	506	0	0	
5	0	0	0	0	508	507	0	0	
6	0	0	0	0	509	508	0	0	
7	0	0	0	0	511	508	0	0	
8	0	0	0	0	510	508	0	0	
9	0	0	0	0	510	509	0	0	
10	0	0	0	0	510	510	0	0	
11	0	0	0	0	512	508	0	0	
12	0	0	0	0	511	509	0	0	
13	0	0	0	0	509	508	0	0	
14	0	0	0	0	514	508	0	0	
15	0	0	0	0	513	508	0	0	
0	0	0	0	0	511	508	0	0	
1	0	0	0	0	512	508	0	0	
2	0	0	0	0	511	508	0	0	
3	0	0	0	0	509	508	0	0	
4	0	0	0	0	511	508	0	0	
5	0	0	0	0	512	507	0	0	
6	0	0	0	0	508	507	0	0	
7	0	0	0	0	509	508	0	0	
8	0	0	0	0	508	507	0	0	
9	0	0	0	0	510	508	0	0	
10	0	0	0	0	511	508	0	0	
11	0	0	0	0	510	510	0	0	
12	0	0	0	0	511	508	0	0	
13	0	0	0	0	508	508	0	0	
14	0	0	0	0	512	507	0	0	
15	0	0	0	0	514	508	0	0	
0	0	0	0	0	511	509	0	0	
1	0	0	0	0	514	507	0	0	
2	0	0	0	0	513	507	0	0	
3	0	0	0	0	513	507	0	0	
4	0	0	0	0	512	508	0	0	
5	0	0	0	0	510	506	0	0	
6	0	0	0	0	511	508	0	0	
7	0	0	0	0	510	509	0	0	
8	0	0	0	0	511	510	0	0	
9	0	0	0	0	510	508	0	0	
10	0	0	0	0	509	508	0	0	
11	0	0	0	0	511	507	0	0	
12	0	0	0	0	510	508	0	0	
13	0	0	0	0	511	508	0	0	
14	0	0	0	0	508	509	0	0	
15	0	0	0	0	511	507	0	0	
0	0	0	0	0	509	506	0	0	
1	0	0	0	0	508	507	0	0	
2	0	0	0	0	511	509	0	0	
3	0	0	0	0	511	508	0	0	
4	0	0	0	0	511	509	0	0	
5	0	0	0	0	513	509	0	0	
6	0	0	0	0	513	508	0	0	
7	0	0	0	0	515	508	0	0	
8	0	0	0	0	511	507	0	0	
9	0	0	0	0	511	505	0	0	
10	0	0	0	0	513	508	0	0	
11	0	0	0	0	512	507	0	0	
12	0	0	0	0	511	507	0	0	
13	0	0	0	0	512	507	0	0	
14	0	0	0	0	509	510	0	0	
15	0	0	0	0	511	509	0	0	
0	0	0	0	0	509	508	0	0	
1	0	0	0	0	507	507	0	0	
2	0	0	0	0	511	508	0	0	
3	0	0	0	0	511	509	0	0	
4	0	0	0	0	510	509	0	0	
5	0	0	0	0	511	507	0	0	
6	0	0	0	0	511	507	0	0	
7	0	0	0	0	509	508	0	0	
8	0	0	0	0	511	511	0	0	
9	0	0	0	0	512	508	0	0	
10	0	0	0	0	511	508	0	0	
11	0	0	0	0	510	508	0	0	
12	0	0	0	0	513	507	0	0	
13	0	0	0	0	512	506	0	0	
14	0	0	0	0	512	508	0	0	
15	0	0	0	0	512	506	0	0	
0	0	0	0	0	511	508	0	0	
1	0	0	0	0	512	508	0	0	
2	0	0	0	0	510	508	0	0	
3	0	0	0	0	510	509	0	0	
4	0	0	0	0	510	508	0	0	
5	0	0	0	0	508	507	0	0	
6	0	0	0	0	509	507	0	0	
7	0	0	0	0	510	510	0	0	
8	0	0	0	0	509	508	0	0	
9	0	0	0	0	511	508	0	0	
10	0	0	0	0	511	508	0	0	
11	0	0	0	0	511	507	0	0	
12	0	0	0	0	511	508	0	0	
13	0	0	0	0	512	508	0	0	
14	0	0	0	0	514	507	0	0	
15	0	0	0	0	513	509	0	0	
0	0	0	0	0	513	509	0	0	
1	0	0	0	0	512	508	0	0	
2	0	0	0	0	513	508	0	0	
3	0	0	0	0	511	507	0	0	
4	0	0	0	0	510	507	0	0	
5	0	0	0	0	511	508	0	0	
6	0	0	0	0	510	510	0	0	
7	0	0	0	0	508	510	0	0	
8	0	0	0	0	511	508	0	0	
9	0	0	0	0	510	507	0	0	
10	0	0	0	0	510	509	0	0	
11	0	0	0	0	508	507	0	0	
12	0	0	0	0	508	507	0	0	
13	0	0	0	0	510	508	0	0	
14	0	0	0	0	511	508	0	0	
15	0	0	0	0	512	507	0	0	
0	0	0	0	0	513	508	0	0	
1	0	0	0	0	513	509	0	0	
2	0	0	0	0	511	507	0	0	
3	0	0	0	0	511	508	0	0	
4	0	0	0	0	511	507	0	0	
5	0	0	0	0	510	509	0	0	
6	0	0	0	0	514	507	0	0	
7	0	0	0	0	510	510	0	0	
8	0	0	0	0	511	508	0	0	
9	0	0	0	0	512	508	0	0	
10	0	0	0	0	511	509	0	0	
11	0	0	0	0	511	508	0	0	
12	0	0	0	0	511	508	0	0	
13	0	0	0	0	508	510	0	0	
14	0	0	0	0	509	508	0	0	
15	0	0	0	0	508	508	0	0	
0	0	0	0	0	513	507	0	0	
1	0	0	0	0	509	506	0	0	
2	0	0	0	0	511	508	0	0	
3	0	0	0	0	511	507	0	0	
4	0	0	0	0	512	508	0	0	
5	0	0	0	0	511	509	0	0	
6	0	0	0	0	512	508	0	0	
7	0	0	0	0	514	508	0	0	
8	0	0	0	0	512	508	0	0	
9	0	0	0	0	514	509	0	0	
10	0	0	0	0	515	509	0	0	
11	0	0	0	0	510	507	0	0	
12	0	0	0	0	508	506	0	0	
13	0	0	0	0	510	509	0	0	
14	0	0	0	0	510	506	0	0	
15	0	0	0	0	508	510	0	0	
0	0	0	0	0	510	508	0	0	
1	0	0	0	0	509	509	0	0	
2	0	0	0	0	511	508	0	0	
3	0	0	0	0	511	507	0	0	
4	0	0	0	0	511	507	0	0	
5	0	0	0	0	511	507	0	0	
6	0	0	0	0	511	507	0	0	
7	0	0	0	0	512	507	0	0	
8	0	0	0	0	511	509	0	0	
9	0	0	0	0	512	510	0	0	
10	0	0	0	0	512	507	0	0	
11	0	0	0	0	512	508	0	0	
12	0	0	0	0	512	508	0	0	
13	0	0	0	0	511	507	0	0	
14	0	0	0	0	512	506	0	0	
15	0	0	0	0	512	509	0	0	
0	0	0	0	0	513	508	0	0	
1	0	0	0	0	512	509	0	0	
2	0	0	0	0	510	508	0	0	
3	0	0	0	0	507	508	0	0	
4	0	0	0	0	508	509	0	0	
5	0	0	0	0	510	508	0	0	
6	0	0	0	0	509	509	0	0	
7	0	0	0	0	512	509	0	0	
8	0	0	0	0	511	507	0	0	
9	0	0	0	0	512	508	0	0	
10	0	0	0	0	512	507	0	0	
11	0	0	0	0	513	508	0	0	
12	0	0	0	0	513	508	0	0	
13	0	0	0	0	513	508	0	0	
14	0	0	0	0	513	508	0	0	
15	0	0	0	0	513	507	0	0	
0	0	0	0	0	512	509	0	0	
1	0	0	0	0	514	508	0	0	
2	0	0	0	0	514	509	0	0	
3	0	0	0	0	510	509	0	0	
4	0	0	0	0	510	508	0	0	
5	0	0	0	0	509	507	0	0	
6	0	0	0	0	510	509	0	0	
7	0	0	0	0	510	507	0	0	
8	0	0	0	0	510	508	0	0	
9	0	0	0	0	509	507	0	0	
10	0	0	0	0	509	506	0	0	
11	0	0	0	0	509	507	0	0	
12	0	0	0	0	511	508	0	0	
13	0	0	0	0	508	510	0	0	
14	0	0	0	0	509	508	0	0	
15	0	0	0	0	509	509	0	0	
0	0	0	0	0	512	508	0	0	
1	0	0	0	0	518	510	0	0	
2	0	0	0	0	514	506	0	0	
3	0	0	0	0	512	507	0	0	
4	0	0	0	0	513	508	0	0	
5	0	0	0	0	513	508	0	0	
6	0	0	0	0	510	508	0	0	
7	0	0	0	0	511	508	0	0	
8	0	0	0	0	510	509	0	0	
9	0	0	0	0	512	508	0	0	
10	0	0	0	0	511	510	0	0	
11	0	0	0	0	509	507	0	0	
12	0	0	0	0	507	509	0	0	
13	0	0	0	0	511	508	0	0	
14	0	0	0	0	509	508	0	0	
15	0	0	0	0	510	508	0	0	
0	0	0	0	0	512	509	0	0	
1	0	0	0	0	510	507	0	0	
2	0	0	0	0	511	507	0	0	
3	0	0	0	0	511	507	0	0	
4	0	0	0	0	512	507	0	0	
5	0	0	0	0	513	510	0	0	
6	0	0	0	0	513	507	0	0	
7	0	0	0	0	513	508	0	0	
8	0	0	0	0	513	509	0	0	
9	0	0	0	0	514	506	0	0	
10	0	0	0	0	512	508	0	0	
11	0	0	0	0	511	508	0	0	
12	0	0	0	0	512	509	0	0	
13	0	0	0	0	511	508	0	0	
14	0	0	0	0	509	507	0	0	
15	0	0	0	0	510	509	0	0	
0	0	0	0	0	510	508	0	0	
1	0	0	0	0	508	506	0	0	
2	0	0	0	0	510	510	0	0	
3	0	0	0	0	510	508	0	0	
4	0	0	0	0	510	508	0	0	
5	0	0	0	0	510	509	0	0	
6	0	0	0	0	511	508	0	0	
7	0	0	0	0	512	509	0	0	
8	0	0	0	0	512	508	0	0	
9	0	0	0	0	512	507	0	0	
10	0	0	0	0	514	507	0	0	
11	0	0	0	0	512	509	0	0	
12	0	0	0	0	510	507	0	0	
13	0	0	0	0	511	509	0	0	
14	0	0	0	0	511	508	0	0	
15	0	0	0	0	510	506	0	0	
0	0	0	0	0	509	508	0	0	
1	0	0	0	0	512	509	0	0	
2	0	0	0	0	511	508	0	0	
3	0	0	0	0	511	507	0	0	
4	0	0	0	0	510	509	0	0	
5	0	0	0	0	508	508	0	0	
6	0	0	0	0	511	508	0	0	
7	0	0	0	0	510	505	0	0	
8	0	0	0	0	513	507	0	0	
9	0	0	0	0	512	506	0	0	
10	0	0	0	0	510	508	0	0	
11	0	0	0	0	509	508	0	0	
12	0	0	0	0	512	507	0	0	
13	0	0	0	0	511	506	0	0	
14	0	0	0	0	513	507	0	0	
15	0	0	0	0	511	511	0	0	
0	0	0	0	0	510	508	0	0	
1	0	0	0	0	511	508	0	0	
2	0	0	0	0	510	507	0	0	
3	0	0	0	0	511	509	0	0	
4	0	0	0	0	513	509	0	0	
5	0	0	0	0	511	508	0	0	
6	0	0	0	0	511	509	0	0	
7	0	0	0	0	509	509	0	0	
8	0	0	0	0	511	508	0	0	
9	0	0	0	0	511	508	0	0	
10	0	0	0	0	511	508	0	0	
11	0	0	0	0	510	507	0	0	
12	0	0	0	0	512	508	0	0	
13	0	0	0	0	511	507	0	0	
14	0	0	0	0	512	508	0	0	
15	0	0	0	0	510	508	0	0	
0	0	0	0	0	511	507	0	0	
1	0	0	0	0	511	509	0	0	
2	0	0	0	0	510	507	0	0	
3	0	0	0	0	514	509	0	0	
4	0	0	0	0	513	508	0	0	
5	0	0	0	0	514	507	0	0	
6	0	0	0	0	514	510	0	0	
7	0	0	0	0	511	507	0	0	
8	0	0	0	0	511	508	0	0	
9	0	0	0	0	511	509	0	0	
10	0	0	0	0	510	509	0	0	
11	0	0	0	0	510	508	0	0	
12	0	0	0	0	509	509	0	0	
13	0	0	0	0	510	508	0	0	
14	0	0	0	0	510	508	0	0	
15	0	0	0	0	510	507	0	0	
0	0	0	0	0	508	507	0	0	
1	0	0	0	0	507	507	0	0	
2	0	0	0	0	509	508	0	0	
3	0	0	0	0	511	507	0	0	
4	0	0	0	0	511	508	0	0	
5	0	0	0	0	513	510	0	0	
6	0	0	0	0	514	508	0	0	
7	0	0	0	0	511	508	0	0	
8	0	0	0	0	512	507	0	0	
9	0	0	0	0	512	508	0	0	
10	0	0	0	0	511	506	0	0	
11	0	0	0	0	513	507	0	0	
12	0	0	0	0	511	508	0	0	
13	0	0	0	0	511	508	0	0	
14	0	0	0	0	508	509	0	0	
15	0	0	0	0	510	509	0	0	
0	0	0	0	0	510	508	0	0	
1	0	0	0	0	511	508	0	0	
2	0	0	0	0	510	508	0	0	
3	0	0	0	0	510	506	0	0	
4	0	0	0	0	510	507	0	0	
5	0	0	0	0	511	508	0	0	
6	0	0	0	0	511	510	0	0	
7	0	0	0	0	511	507	0	0	
8	0	0	0	0	513	508	0	0	
9	0	0	0	0	512	509	0	0	
10	0	0	0	0	513	506	0	0	
11	0	0	0	0	511	508	0	0	
12	0	0	0	0	513	509	0	0	
13	0	0	0	0	512	507	0	0	
14	0	0	0	0	511	508	0	0	
15	0	0	0	0	510	508	0	0	
0	0	0	0	0	512	508	0	0	
1	0	0	0	0	510	508	0	0	
2	0	0	0	0	509	509	0	0	
3	0	0	0	0	507	508	0	0	
4	0	0	0	0	508	508	0	0	
5	0	0	0	0	511	507	0	0	
6	0	0	0	0	510	508	0	0	
7	0	0	0	0	509	509	0	0	
8	0	0	0	0	508	508	0	0	
9	0	0	0	0	513	509	0	0	
10	0	0	0	0	511	508	0	0	
11	0	0	0	0	508	507	0	0	
12	0	0	0	0	512	508	0	0	
13	0	0	0	0	512	508	0	0	
14	0	0	0	0	513	508	0	0	
15	0	0	0	0	512	507	0	0	
0	0	0	0	0	513	509	0	0	
1	0	0	0	0	513	508	0	0	
2	0	0	0	0	509	508	0	0	
3	0	0	0	0	511	508	0	0	
4	0	0	0	0	512	509	0	0	
5	0	0	0	0	510	507	0	0	
6	0	0	0	0	510	507	0	0	
7	0	0	0	0	511	510	0	0	
8	0	0	0	0	510	508	0	0	
9	0	0	0	0	508	509	0	0	
10	0	0	0	0	511	507	0	0	
11	0	0	0	0	511	508	0	0	
12	0	0	0	0	511	508	0	0	
13	0	0	0	0	511	507	0	0	
14	0	0	0	0	513	508	0	0	
15	0	0	0	0	513	507	0	0	
0	0	0	0	0	510	508	0	0	
1	0	0	0	0	512	508	0	0	
2	0	0	0	0	512	508	0	0	
3	0	0	0	0	511	508	0	0	
4	0	0	0	0	513	509	0	0	
5	0	0	0	0	514	508	0	0	
6	0	0	0	0	512	508	0	0	
7	0	0	0	0	512	506	0	0	
8	0	0	0	0	509	508	0	0	
9	0	0	0	0	511	506	0	0	
10	0	0	0	0	510	508	0	0	
11	0	0	0	0	511	508	0	0	
12	0	0	0	0	509	507	0	0	
13	0	0	0	0	509	509	0	0	
14	0	0	0	0	506	508	0	0	
15	0	0	0	0	510	507	0	0	
0	0	0	0	0	509	508	0	0	
1	0	0	0	0	512	509	0	0	
2	0	0	0	0	512	508	0	0	
3	0	0	0	0	512	509	0	0	
4	0	0	0	0	513	508	0	0	
5	0	0	0	0	512	509	0	0	
6	0	0	0	0	512	506	0	0	
7	0	0	0	0	513	508	0	0	
8	0	0	0	0	511	508	0	0	
9	0	0	0	0	510	507	0	0	
10	0	0	0	0	512	510	0	0	
11	0	0	0	0	510	509	0	0	
12	0	0	0	0	508	509	0	0	
13	0	0	0	0	509	507	0	0	
14	0	0	0	0	512	507	0	0	
15	0	0	0	0	511	508	0	0	
0	0	0	0	0	510	507	0	0	
1	0	0	0	0	510	508	0	0	
2	0	0	0	0	509	507	0	0	
3	0	0	0	0	510	508	0	0	
4	0	0	0	0	509	509	0	0	
5	0	0	0	0	512	508	0	0	
6	0	0	0	0	512	508	0	0	
7	0	0	0	0	510	508	0	0	
8	0	0	0	0	513	509	0	0	
9	0	0	0	0	511	508	0	0	
10	0	0	0	0	511	508	0	0	
11	0	0	0	0	513	508	0	0	
12	0	0	0	0	512	508	0	0	
13	0	0	0	0	511	507	0	0	
14	0	0	0	0	514	507	0	0	
15	0	0	0	0	509	507	0	0	
0	0	0	0	0	512	509	0	0	
1	0	0	0	0	510	507	0	0	
2	0	0	0	0	510	508	0	0	
3	0	0	0	0	509	509	0	0	
4	0	0	0	0	509	508	0	0	
5	0	0	0	0	510	509	0	0	
6	0	0	0	0	508	509	0	0	
7	0	0	0	0	509	509	0	0	
8	0	0	0	0	510	507	0	0	
9	0	0	0	0	509	507	0	0	
10	0	0	0	0	510	508	0	0	
11	0	0	0	0	512	510	0	0	
12	0	0	0	0	511	509	0	0	
13	0	0	0	0	513	507	0	0	
14	0	0	0	0	513	510	0	0	
15	0	0	0	0	513	508	0	0	
0	0	0	0	0	513	509	0	0	
1	0	0	0	0	512	509	0	0	
2	0	0	0	0	513	509	0	0	
3	0	0	0	0	513	507	0	0	
4	0	0	0	0	514	508	0	0	
5	0	0	0	0	510	508	0	0	
6	0	0	0	0	511	508	0	0	
7	0	0	0	0	510	508	0	0	
8	0	0	0	0	510	510	0	0	
9	0	0	0	0	509	508	0	0	
10	0	0	0	0	510	507	0	0	
11	0	0	0	0	508	508	0	0	
12	0	0	0	0	509	507	0	0	
13	0	0	0	0	511	508	0	0	
14	0	0	0	0	509	507	0	0	
15	0	0	0	0	510	508	0	0	
0	0	0	0	0	512	508	0	0	
1	0	0	0	0	513	510	0	0	
2	0	0	0	0	513	507	0	0	
3	0	0	0	0	514	508	0	0	
4	0	0	0	0	513	506	0	0	
5	0	0	0	0	511	508	0	0	
6	0	0	0	0	512	509	0	0	
7	0	0	0	0	511	509	0	0	
8	0	0	0	0	513	508	0	0	
9	0	0	0	0	510	510	0	0	
10	0	0	0	0	509	508	0	0	
11	0	0	0	0	510	510	0	0	
12	0	0	0	0	508	509	0	0	
13	0	0	0	0	510	507	0	0	
14	0	0	0	0	510	507	0	0	
15	0	0	0	0	510	507	0	0	
0	0	0	0	0	511	508	0	0	
1	0	0	0	0	508	508	0	0	
2	0	0	0	0	512	507	0	0	
3	0	0	0	0	511	508	0	0	
4	0	0	0	0	511	507	0	0	
5	0	0	0	0	510	507	0	0	
6	0	0	0	0	513	506	0	0	
7	0	0	0	0	515	508	0	0	
8	0	0	0	0	513	507	0	0	
9	0	0	0	0	513	508	0	0	
10	0	0	0	0	510	509	0	0	
11	0	0	0	0	509	509	0	0	
12	0	0	0	0	509	510	0	0	
13	0	0	0	0	510	509	0	0	
14	0	0	0	0	509	509	0	0	
15	0	0	0	0	512	508	0	0	
0	0	0	0	0	511	508	0	0	
1	0	0	0	0	511	506	0	0	
2	0	0	0	0	511	508	0	0	
3	0	0	0	0	511	508	0	0	
4	0	0	0	0	511	509	0	0	
5	0	0	0	0	509	506	0	0	
6	0	0	0	0	512	507	0	0	
7	0	0	0	0	511	508	0	0	
8	0	0	0	0	511	508	0	0	
9	0	0	0	0	513	508	0	0	
10	0	0	0	0	511	509	0	0	
11	0	0	0	0	513	509	0	0	
12	0	0	0	0	513	506	0	0	
13	0	0	0	0	513	508	0	0	
14	0	0	0	0	512	505	0	0	
15	0	0	0	0	511	508	0	0	
0	0	0	0	0	511	510	0	0	
1	0	0	0	0	510	509	0	0	
2	0	0	0	0	510	508	0	0	
3	0	0	0	0	510	510	0	0	
4	0	0	0	0	510	507	0	0	
5	0	0	0	0	510	508	0	0	
6	0	0	0	0	510	508	0	0	
7	0	0	0	0	510	508	0	0	
8	0	0	0	0	510	509	0	0	
9	0	0	0	0	515	510	0	0	
10	0	0	0	0	510	507	0	0	
11	0	0	0	0	510	507	0	0	
12	0	0	0	0	510	509	0	0	
13	0	0	0	0	511	508	0	0	
14	0	0	0	0	511	508	0	0	
15	0	0	0	0	513	508	0	0	
0	0	0	0	0	514	508	0	0	
1	0	0	0	0	514	507	0	0	
2	0	0	0	0	512	508	0	0	
3	0	0	0	0	512	507	0	0	
4	0	0	0	0	512	508	0	0	
5	0	0	0	0	511	509	0	0	
6	0	0	0	0	511	507	0	0	
7	0	0	0	0	509	506	0	0	
8	0	0	0	0	508	509	0	0	
9	0	0	0	0	510	508	0	0	
10	0	0	0	0	510	509	0	0	
11	0	0	0	0	510	509	0	0	
12	0	0	0	0	512	509	0	0	
13	0	0	0	0	512	509	0	0	
14	0	0	0	0	510	508	0	0	
15	0	0	0	0	510	507	0	0	
0	0	0	0	0	511	507	0	0	
1	0	0	0	0	513	508	0	0	
2	0	0	0	0	514	507	0	0	
3	0	0	0	0	512	508	0	0	
4	0	0	0	0	512	508	0	0	
5	0	0	0	0	511	509	0	0	
6	0	0	0	0	514	508	0	0	
7	0	0	0	0	512	507	0	0	
8	0	0	0	0	510	508	0	0	
9	0	0	0	0	509	508	0	0	
10	0	0	0	0	509	509	0	0	
11	0	0	0	0	512	508	0	0	
12	0	0	0	0	509	508	0	0	
13	0	0	0	0	510	508	0	0	
14	0	0	0	0	510	508	0	0	
15	0	0	0	0	509	508	0	0	
0	0	0	0	0	512	509	0	0	
1	0	0	0	0	511	508	0	0	
2	0	0	0	0	510	506	0	0	
3	0	0	0	0	511	507	0	0	
4	0	0	0	0	513	509	0	0	
5	0	0	0	0	512	509	0	0	
6	0	0	0	0	513	507	0	0	
7	0	0	0	0	512	508	0	0	
8	0	0	0	0	513	508	0	0	
9	0	0	0	0	512	508	0	0	
10	0	0	0	0	514	505	0	0	
11	0	0	0	0	510	508	0	0	
12	0	0	0	0	510	510	0	0	
13	0	0	0	0	509	506	0	0	
14	0	0	0	0	510	506	0	0	
15	0	0	0	0	511	508	0	0	
0	0	0	0	0	509	510	0	0	
1	0	0	0	0	510	509	0	0	
2	0	0	0	0	511	508	0	0	
3	0	0	0	0	511	510	0	0	
4	0	0	0	0	512	511	0	0	
5	0	0	0	0	508	508	0	0	
6	0	0	0	0	509	508	0	0	
7	0	0	0	0	512	508	0	0	
8	0	0	0	0	512	510	0	0	
9	0	0	0	0	511	510	0	0	
10	0	0	0	0	513	507	0	0	
11	0	0	0	0	515	507	0	0	
12	0	0	0	0	511	508	0	0	
13	0	0	0	0	511	506	0	0	
14	0	0	0	0	511	509	0	0	
15	0	0	0	0	508	507	0	0	
0	0	0	0	0	508	508	0	0	
1	0	0	0	0	511	506	0	0	
2	0	0	0	0	512	508	0	0	
3	0	0	0	0	510	509	0	0	
4	0	0	0	0	508	508	0	0	
5	0	0	0	0	509	507	0	0	
6	0	0	0	0	511	508	0	0	
7	0	0	0	0	510	508	0	0	
8	0	0	0	0	512	508	0	0	
9	0	0	0	0	512	509	0	0	
10	0	0	0	0	512	509	0	0	
11	0	0	0	0	511	507	0	0	
12	0	0	0	0	513	506	0	0	
13	0	0	0	0	512	508	0	0	
14	0	0	0	0	511	509	0	0	
15	0	0	0	0	511	508	0	0	
0	0	0	0	0	511	508	0	0	
1	0	0	0	0	511	508	0	0	
2	0	0	0	0	512	508	0	0	
3	0	0	0	0	512	510	0	0	
4	0	0	0	0	509	507	0	0	
5	0	0	0	0	513	507	0	0	
6	0	0	0	0	510	508	0	0	
7	0	0	0	0	509	508	0	0	
8	0	0	0	0	509	508	0	0	
9	0	0	0	0	511	508	0	0	
10	0	0	0	0	510	507	0	0	
11	0	0	0	0	508	507	0	0	
12	0	0	0	0	508	508	0	0	
13	0	0	0	0	511	507	0	0	
14	0	0	0	0	512	508	0	0	
15	0	0	0	0	511	508	0	0	
0	0	0	0	0	512	509	0	0	
1	0	0	0	0	513	510	0	0	
2	0	0	0	0	512	507	0	0	
3	0	0	0	0	515	508	0	0	
4	0	0	0	0	512	511	0	0	
5	0	0	0	0	513	507	0	0	
6	0	0	0	0	513	508	0	0	
7	0	0	0	0	507	508	0	0	
8	0	0	0	0	510	507	0	0	
9	0	0	0	0	513	507	0	0	
10	0	0	0	0	509	509	0	0	
11	0	0	0	0	512	507	0	0	
12	0	0	0	0	509	508	0	0	
13	0	0	0	0	511	508	0	0	
14	0	0	0	0	511	509	0	0	
15	0	0	0	0	510	508	0	0	
0	0	0	0	0	510	507	0	0	
1	0	0	0	0	510	506	0	0	
2	0	0	0	0	512	508	0	0	
3	0	0	0	0	512	507	0	0	
4	0	0	0	0	511	509	0	0	
5	0	0	0	0	513	508	0	0	
6	0	0	0	0	512	508	0	0	
7	0	0	0	0	512	509	0	0	
8	0	0	0	0	512	509	0	0	
9	0	0	0	0	511	508	0	0	
10	0	0	0	0	511	509	0	0	
11	0	0	0	0	508	508	0	0	
12	0	0	0	0	511	508	0	0	
13	0	0	0	0	511	508	0	0	
14	0	0	0	0	511	508	0	0	
15	0	0	0	0	508	507	0	0	
0	0	0	0	0	509	507	0	0	
1	0	0	0	0	510	507	0	0	
2	0	0	0	0	511	509	0	0	
3	0	0	0	0	511	508	0	0	
4	0	0	0	0	514	509	0	0	
5	0	0	0	0	511	507	0	0	
6	0	0	0	0	511	507	0	0	
7	0	0	0	0	513	505	0	0	
8	0	0	0	0	512	508	0	0	
9	0	0	0	0	513	508	0	0	
10	0	0	0	0	511	509	0	0	
11	0	0	0	0	512	508	0	0	
12	0	0	0	0	512	510	0	0	
13	0	0	0	0	511	508	0	0	
14	0	0	0	0	511	509	0	0	
15	0	0	0	0	511	506	0	0	
0	0	0	0	0	509	506	0	0	
1	0	0	0	0	511	508	0	0	
2	0	0	0	0	510	508	0	0	
3	0	0	0	0	510	507	0	0	
4	0	0	0	0	507	507	0	0	
5	0	0	0	0	508	508	0	0	
6	0	0	0	0	509	507	0	0	
7	0	0	0	0	511	507	0	0	
8	0	0	0	0	511	508	0	0	
9	0	0	0	0	512	507	0	0	
10	0	0	0	0	512	508	0	0	
11	0	0	0	0	511	508	0	0	
12	0	0	0	0	512	510	0	0	
13	0	0	0	0	511	508	0	0	
14	0	0	0	0	513	509	0	0	
15	0	0	0	0	514	509	0	0	
0	0	0	0	0	513	508	0	0	
1	0	0	0	0	513	508	0	0	
2	0	0	0	0	512	508	0	0	
3	0	0	0	0	512	508	0	0	
4	0	0	0	0	509	509	0	0	
5	0	0	0	0	509	507	0	0	
6	0	0	0	0	509	508	0	0	
7	0	0	0	0	509	509	0	0	
8	0	0	0	0	507	508	0	0	
9	0	0	0	0	508	508	0	0	
10	0	0	0	0	509	506	0	0	
11	0	0	0	0	508	509	0	0	
12	0	0	0	0	510	507	0	0	
13	0	0	0	0	511	509	0	0	
14	0	0	0	0	511	508	0	0	
15	0	0	0	0	512	508	0	0	
0	0	0	0	0	512	509	0	0	
1	0	0	0	0	513	507	0	0	
2	0	0	0	0	512	506	0	0	
3	0	0	0	0	512	509	0	0	
4	0	0	0	0	512	506	0	0	
5	0	0	0	0	512	507	0	0	
6	0	0	0	0	514	508	0	0	
7	0	0	0	0	511	509	0	0	
8	0	0	0	0	512	509	0	0	
9	0	0	0	0	511	508	0	0	
10	0	0	0	0	510	508	0	0	
11	0	0	0	0	510	507	0	0	
12	0	0	0	0	510	508	0	0	
13	0	0	0	0	509	508	0	0	
14	0	0	0	0	508	507	0	0	
15	0	0	0	0	510	508	0	0	
0	0	0	0	0	509	508	0	0	
1	0	0	0	0	511	508	0	0	
2	0	0	0	0	511	509	0	0	
3	0	0	0	0	511	505	0	0	
4	0	0	0	0	510	507	0	0	
5	0	0	0	0	512	507	0	0	
6	0	0	0	0	513	508	0	0	
7	0	0	0	0	510	508	0	0	
8	0	0	0	0	512	508	0	0	
9	0	0	0	0	509	508	0	0	
10	0	0	0	0	511	510	0	0	
11	0	0	0	0	510	509	0	0	
12	0	0	0	0	513	510	0	0	
13	0	0	0	0	512	508	0	0	
14	0	0	0	0	510	508	0	0	
15	0	0	0	0	509	507	0	0	
0	0	0	0	0	510	506	0	0	
1	0	0	0	0	508	509	0	0	
2	0	0	0	0	510	507	0	0	
3	0	0	0	0	508	508	0	0	
4	0	0	0	0	512	509	0	0	
5	0	0	0	0	512	508	0	0	
6	0	0	0	0	511	508	0	0	
7	0	0	0	0	511	508	0	0	
8	0	0	0	0	509	508	0	0	
9	0	0	0	0	512	507	0	0	
10	0	0	0	0	513	505	0	0	
11	0	0	0	0	514	508	0	0	
12	0	0	0	0	511	509	0	0	
13	0	0	0	0	512	508	0	0	
14	0	0	0	0	513	508	0	0	
15	0	0	0	0	512	508	0	0	
0	0	0	0	0	509	508	0	0	
1	0	0	0	0	511	508	0	0	
2	0	0	0	0	513	509	0	0	
3	0	0	0	0	511	509	0	0	
4	0	0	0	0	509	509	0	0	
5	0	0	0	0	509	508	0	0	
6	0	0	0	0	510	508	0	0	
7	0	0	0	0	509	509	0	0	
8	0	0	0	0	510	507	0	0	
9	0	0	0	0	510	505	0	0	
10	0	0	0	0	510	508	0	0	
11	0	0	0	0	513	509	0	0	
12	0	0	0	0	511	508	0	0	
13	0	0	0	0	513	508	0	0	
14	0	0	0	0	513	508	0	0	
15	0	0	0	0	512	509	0	0	
0	0	0	0	0	512	510	0	0	
1	0	0	0	0	511	507	0	0	
2	0	0	0	0	511	508	0	0	
3	0	0	0	0	513	507	0	0	
4	0	0	0	0	512	508	0	0	
5	0	0	0	0	511	508	0	0	
6	0	0	0	0	510	507	0	0	
7	0	0	0	0	509	508	0	0	
8	0	0	0	0	508	509	0	0	
9	0	0	0	0	510	508	0	0	
10	0	0	0	0	509	507	0	0	
11	0	0	0	0	511	508	0	0	
12	0	0	0	0	509	511	0	0	
13	0	0	0	0	511	507	0	0	
14	0	0	0	0	512	507	0	0	
15	0	0	0	0	513	510	0	0	
0	0	0	0	0	510	508	0	0	
1	0	0	0	0	511	508	0	0	
2	0	0	0	0	513	510	0	0	
3	0	0	0	0	513	509	0	0	
4	0	0	0	0	511	509	0	0	
5	0	0	0	0	512	509	0	0	
6	0	0	0	0	511	507	0	0	
7	0	0	0	0	511	508	0	0	
8	0	0	0	0	513	507	0	0	
9	0	0	0	0	511	508	0	0	
10	0	0	0	0	511	506	0	0	
11	0	0	0	0	510	506	0	0	
12	0	0	0	0	507	509	0	0	
13	0	0	0	0	508	507	0	0	
14	0	0	0	0	511	508	0	0	
15	0	0	0	0	511	507	0	0	
0	0	0	0	0	509	508	0	0	
1	0	0	0	0	508	508	0	0	
2	0	0	0	0	511	508	0	0	
3	0	0	0	0	511	507	0	0	
4	0	0	0	0	511	510	0	0	
5	0	0	0	0	512	508	0	0	
6	0	0	0	0	513	508	0	0	
7	0	0	0	0	513	509	0	0	
8	0	0	0	0	513	508	0	0	
9	0	0	0	0	511	507	0	0	
10	0	0	0	0	515	507	0	0	
11	0	0	0	0	512	507	0	0	
12	0	0	0	0	510	508	0	0	
13	0	0	0	0	510	509	0	0	
14	0	0	0	0	509	508	0	0	
15	0	0	0	0	507	507	0	0	
0	0	0	0	0	509	508	0	0	
1	0	0	0	0	508	504	0	0	
2	0	0	0	0	509	508	0	0	
3	0	0	0	0	510	509	0	0	
4	0	0	0	0	511	510	0	0	
5	0	0	0	0	510	509	0	0	
6	0	0	0	0	512	507	0	0	
7	0	0	0	0	513	509	0	0	
8	0	0	0	0	515	507	0	0	
9	0	0	0	0	513	509	0	0	
10	0	0	0	0	512	508	0	0	
11	0	0	0	0	511	507	0	0	
12	0	0	0	0	511	505	0	0	
13	0	0	0	0	512	508	0	0	
14	0	0	0	0	512	508	0	0	
15	0	0	0	0	510	510	0	0	
0	0	0	0	0	510	508	0	0	
1	0	0	0	0	511	508	0	0	
2	0	0	0	0	510	508	0	0	
3	0	0	0	0	511	509	0	0	
4	0	0	0	0	511	506	0	0	
5	0	0	0	0	510	507	0	0	
6	0	0	0	0	514	507	0	0	
7	0	0	0	0	511	507	0	0	
8	0	0	0	0	512	509	0	0	
9	0	0	0	0	510	508	0	0	
10	0	0	0	0	511	508	0	0	
11	0	0	0	0	512	508	0	0	
12	0	0	0	0	509	508	0	0	
13	0	0	0	0	513	508	0	0	
14	0	0	0	0	512	508	0	0	
15	0	0	0	0	512	508	0	0	
0	0	0	0	0	511	508	0	0	
1	0	0	0	0	511	508	0	0	
2	0	0	0	0	510	508	0	0	
3	0	0	0	0	513	509	0	0	
4	0	0	0	0	511	509	0	0	
5	0	0	0	0	512	508	0	0	
6	0	0	0	0	512	507	0	0	
7	0	0	0	0	511	508	0	0	
8	0	0	0	0	508	508	0	0	
9	0	0	0	0	510	508	0	0	
10	0	0	0	0	510	507	0	0	
11	0	0	0	0	511	507	0	0	
12	0	0	0	0	510	509	0	0	
13	0	0	0	0	509	507	0	0	
14	0	0	0	0	508	508	0	0	
15	0	0	0	0	509	508	0	0	
0	0	0	0	0	510	508	0	0	
1	0	0	0	0	510	510	0	0	
2	0	0	0	0	511	508	0	0	
3	0	0	0	0	511	508	0	0	
4	0	0	0	0	517	509	0	0	
5	0	0	0	0	515	508	0	0	
6	0	0	0	0	514	506	0	0	
7	0	0	0	0	511	508	0	0	
8	0	0	0	0	511	507	0	0	
9	0	0	0	0	509	507	0	0	
10	0	0	0	0	509	509	0	0	
11	0	0	0	0	509	506	0	0	
12	0	0	0	0	508	507	0	0	
13	0	0	0	0	508	509	0	0	
14	0	0	0	0	511	509	0	0	
15	0	0	0	0	510	509	0	0	
0	0	0	0	0	511	508	0	0	
1	0	0	0	0	513	508	0	0	
2	0	0	0	0	512	508	0	0	
3	0	0	0	0	511	508	0	0	
4	0	0	0	0	511	508	0	0	
5	0	0	0	0	512	507	0	0	
6	0	0	0	0	514	508	0	0	
7	0	0	0	0	514	508	0	0	
8	0	0	0	0	511	507	0	0	
9	0	0	0	0	511	509	0	0	
10	0	0	0	0	512	508	0	0	
11	0	0	0	0	511	510	0	0	
12	0	0	0	0	511	508	0	0	
13	0	0	0	0	513	507	0	0	
14	0	0	0	0	509	509	0	0	
15	0	0	0	0	509	509	0	0	
0	0	0	0	0	509	507	0	0	
1	0	0	0	0	511	506	0	0	
2	0	0	0	0	510	508	0	0	
3	0	0	0	0	509	509	0	0	
4	0	0	0	0	510	508	0	0	
5	0	0	0	0	509	507	0	0	
6	0	0	0	0	510	507	0	0	
7	0	0	0	0	513	507	0	0	
8	0	0	0	0	511	510	0	0	
9	0	0	0	0	511	509	0	0	
10	0	0	0	0	513	508	0	0	
11	0	0	0	0	513	509	0	0	
12	0	0	0	0	511	510	0	0	
13	0	0	0	0	512	509	0	0	
14	0	0	0	0	515	509	0	0	
15	0	0	0	0	511	509	0	0	
0	0	0	0	0	512	507	0	0	
1	0	0	0	0	510	507	0	0	
2	0	0	0	0	511	507	0	0	
3	0	0	0	0	512	508	0	0	
4	0	0	0	0	510	508	0	0	
5	0	0	0	0	507	507	0	0	
6	0	0	0	0	511	507	0	0	
7	0	0	0	0	511	507	0	0	
8	0	0	0	0	508	508	0	0	
9	0	0	0	0	510	509	0	0	
10	0	0	0	0	508	506	0	0	
11	0	0	0	0	514	507	0	0	
12	0	0	0	0	513	508	0	0	
13	0	0	0	0	513	510	0	0	
14	0	0	0	0	512	507	0	0	
15	0	0	0	0	513	510	0	0	
0	0	0	0	0	511	508	0	0	
1	0	0	0	0	512	508	0	0	
2	0	0	0	0	513	509	0	0	
3	0	0	0	0	511	507	0	0	
4	0	0	0	0	511	510	0	0	
5	0	0	0	0	511	508	0	0	
6	0	0	0	0	510	508	0	0	
7	0	0	0	0	511	505	0	0	
8	0	0	0	0	511	508	0	0	
9	0	0	0	0	511	505	0	0	
10	0	0	0	0	511	508	0	0	
11	0	0	0	0	511	509	0	0	
12	0	0	0	0	509	508	0	0	
13	0	0	0	0	509	507	0	0	
14	0	0	0	0	512	508	0	0	
15	0	0	0	0	513	508	0	0	
0	0	0	0	0	511	506	0	0	
1	0	0	0	0	511	509	0	0	
2	0	0	0	0	511	507	0	0	
3	0	0	0	0	513	508	0	0	
4	0	0	0	0	511	508	0	0	
5	0	0	0	0	512	509	0	0	
6	0	0	0	0	513	508	0	0	
7	0	0	0	0	514	511	0	0	
8	0	0	0	0	511	507	0	0	
9	0	0	0	0	509	505	0	0	
10	0	0	0	0	508	506	0	0	
11	0	0	0	0	509	508	0	0	
12	0	0	0	0	510	507	0	0	
13	0	0	0	0	510	508	0	0	
14	0	0	0	0	509	508	0	0	
15	0	0	0	0	509	507	0	0	
0	0	0	0	0	509	510	0	0	
1	0	0	0	0	510	507	0	0	
2	0	0	0	0	513	508	0	0	
3	0	0	0	0	512	508	0	0	
4	0	0	0	0	512	508	0	0	
5	0	0	0	0	512	508	0	0	
6	0	0	0	0	513	508	0	0	
7	0	0	0	0	512	508	0	0	
8	0	0	0	0	510	509	0	0	
9	0	0	0	0	511	506	0	0	
10	0	0	0	0	513	507	0	0	
11	0	0	0	0	511	508	0	0	
12	0	0	0	0	512	507	0	0	
13	0	0	0	0	511	508	0	0	
14	0	0	0	0	511	509	0	0	
15	0	0	0	0	510	508	0	0	
0	0	0	0	0	511	507	0	0	
1	0	0	0	0	508	509	0	0	
2	0	0	0	0	508	508	0	0	
3	0	0	0	0	510	508	0	0	
4	0	0	0	0	510	509	0	0	
5	0	0	0	0	510	508	0	0	
6	0	0	0	0	511	507	0	0	
7	0	0	0	0	512	508	0	0	
8	0	0	0	0	513	507	0	0	
9	0	0	0	0	510	509	0	0	
10	0	0	0	0	510	507	0	0	
11	0	0	0	0	514	509	0	0	
12	0	0	0	0	514	507	0	0	
13	0	0	0	0	511	509	0	0	
14	0	0	0	0	511	511	0	0	
15	0	0	0	0	512	508	0	0	
0	0	0	0	0	513	508	0	0	
1	0	0	0	0	510	509	0	0	
2	0	0	0	0	511	508	0	0	
3	0	0	0	0	510	509	0	0	
4	0	0	0	0	511	508	0	0	
5	0	0	0	0	511	506	0	0	
6	0	0	0	0	510	508	0	0	
7	0	0	0	0	508	509	0	0	
8	0	0	0	0	511	508	0	0	
9	0	0	0	0	509	506	0	0	
10	0	0	0	0	510	505	0	0	
11	0	0	0	0	511	507	0	0	
12	0	0	0	0	511	509	0	0	
13	0	0	0	0	512	509	0	0	
14	0	0	0	0	514	508	0	0	
15	0	0	0	0	514	507	0	0	
0	0	0	0	0	513	507	0	0	
1	0	0	0	0	512	506	0	0	
2	0	0	0	0	513	508	0	0	
3	0	0	0	0	510	508	0	0	
4	0	0	0	0	507	509	0	0	
5	0	0	0	0	508	508	0	0	
6	0	0	0	0	508	507	0	0	
7	0	0	0	0	508	510	0	0	
8	0	0	0	0	508	509	0	0	
9	0	0	0	0	508	507	0	0	
10	0	0	0	0	509	510	0	0	
11	0	0	0	0	510	506	0	0	
12	0	0	0	0	511	505	0	0	
13	0	0	0	0	509	508	0	0	
14	0	0	0	0	511	507	0	0	
15	0	0	0	0	511	509	0	0	
0	0	0	0	0	512	508	0	0	
1	0	0	0	0	512	508	0	0	
2	0	0	0	0	513	508	0	0	
3	0	0	0	0	517	508	0	0	
4	0	0	0	0	513	509	0	0	
5	0	0	0	0	514	507	0	0	
6	0	0	0	0	512	510	0	0	
7	0	0	0	0	510	505	0	0	
8	0	0	0	0	511	507	0	0	
9	0	0	0	0	509	509	0	0	
10	0	0	0	0	511	509	0	0	
11	0	0	0	0	509	507	0	0	
12	0	0	0	0	508	507	0	0	
13	0	0	0	0	511	508	0	0	
14	0	0	0	0	509	509	0	0	
15	0	0	0	0	508	508	0	0	
0	0	0	0	0	512	511	0	0	
1	0	0	0	0	511	510	0	0	
2	0	0	0	0	511	507	0	0	
3	0	0	0	0	510	509	0	0	
4	0	0	0	0	511	507	0	0	
5	0	0	0	0	512	507	0	0	
6	0	0	0	0	512	507	0	0	
7	0	0	0	0	512	508	0	0	
8	0	0	0	0	512	509	0	0	
9	0	0	0	0	513	509	0	0	
10	0	0	0	0	513	510	0	0	
11	0	0	0	0	512	509	0	0	
12	0	0	0	0	509	508	0	0	
13	0	0	0	0	509	507	0	0	
14	0	0	0	0	508	507	0	0	
15	0	0	0	0	510	509	0	0	
0	0	0	0	0	510	509	0	0	
1	0	0	0	0	511	508	0	0	
2	0	0	0	0	511	507	0	0	
3	0	0	0	0	510	508	0	0	
4	0	0	0	0	511	508	0	0	
5	0	0	0	0	508	508	0	0	
6	0	0	0	0	508	507	0	0	
7	0	0	0	0	512	507	0	0	
8	0	0	0	0	512	509	0	0	
9	0	0	0	0	511	507	0	0	
10	0	0	0	0	512	506	0	0	
11	0	0	0	0	514	508	0	0	
12	0	0	0	0	512	508	0	0	
13	0	0	0	0	511	509	0	0	
14	0	0	0	0	512	508	0	0	
15	0	0	0	0	512	508	0	0	
0	0	0	0	0	511	507	0	0	
1	0	0	0	0	511	509	0	0	
2	0	0	0	0	510	509	0	0	
3	0	0	0	0	510	508	0	0	
4	0	0	0	0	511	507	0	0	
5	0	0	0	0	509	507	0	0	
6	0	0	0	0	510	508	0	0	
7	0	0	0	0	509	508	0	0	
8	0	0	0	0	509	510	0	0	
9	0	0	0	0	511	509	0	0	
10	0	0	0	0	511	508	0	0	
11	0	0	0	0	513	507	0	0	
12	0	0	0	0	513	507	0	0	
13	0	0	0	0	513	506	0	0	
14	0	0	0	0	512	507	0	0	
15	0	0	0	0	512	508	0	0	
0	0	0	0	0	513	509	0	0	
1	0	0	0	0	512	507	0	0	
2	0	0	0	0	514	509	0	0	
3	0	0	0	0	512	508	0	0	
4	0	0	0	0	513	508	0	0	
5	0	0	0	0	510	509	0	0	
6	0	0	0	0	512	507	0	0	
7	0	0	0	0	510	509	0	0	
8	0	0	0	0	508	508	0	0	
9	0	0	0	0	510	508	0	0	
10	0	0	0	0	512	508	0	0	
11	0	0	0	0	508	507	0	0	
12	0	0	0	0	509	510	0	0	
13	0	0	0	0	510	508	0	0	
14	0	0	0	0	510	508	0	0	
15	0	0	0	0	512	508	0	0	
0	0	0	0	0	511	506	0	0	
1	0	0	0	0	510	507	0	0	
2	0	0	0	0	512	508	0	0	
3	0	0	0	0	512	506	0	0	
4	0	0	0	0	513	508	0	0	
5	0	0	0	0	513	506	0	0	
6	0	0	0	0	513	508	0	0	
7	0	0	0	0	510	510	0	0	
8	0	0	0	0	510	507	0	0	
9	0	0	0	0	511	508	0	0	
10	0	0	0	0	510	509	0	0	
11	0	0	0	0	509	508	0	0	
12	0	0	0	0	510	509	0	0	
13	0	0	0	0	506	507	0	0	
14	0	0	0	0	509	507	0	0	
15	0	0	0	0	510	509	0	0	
0	0	0	0	0	510	508	0	0	
1	0	0	0	0	512	508	0	0	
2	0	0	0	0	510	507	0	0	
3	0	0	0	0	510	508	0	0	
4	0	0	0	0	512	507	0	0	
5	0	0	0	0	513	509	0	0	
6	0	0	0	0	512	508	0	0	
7	0	0	0	0	513	506	0	0	
8	0	0	0	0	512	508	0	0	
9	0	0	0	0	513	509	0	0	
10	0	0	0	0	512	508	0	0	
11	0	0	0	0	511	507	0	0	
12	0	0	0	0	511	507	0	0	
13	0	0	0	0	512	509	0	0	
14	0	0	0	0	509	510	0	0	
15	0	0	0	0	511	510	0	0	
0	0	0	0	0	511	509	0	0	
1	0	0	0	0	510	510	0	0	
2	0	0	0	0	512	508	0	0	
3	0	0	0	0	512	506	0	0	
4	0	0	0	0	509	509	0	0	
5	0	0	0	0	510	507	0	0	
6	0	0	0	0	510	506	0	0	
7	0	0	0	0	511	507	0	0	
8	0	0	0	0	511	506	0	0	
9	0	0	0	0	511	507	0	0	
10	0	0	0	0	511	509	0	0	
11	0	0	0	0	511	507	0	0	
12	0	0	0	0	512	509	0	0	
13	0	0	0	0	512	508	0	0	
14	0	0	0	0	512	508	0	0	
15	0	0	0	0	512	508	0	0	
0	0	0	0	0	511	510	0	0	
1	0	0	0	0	510	507	0	0	
2	0	0	0	0	510	508	0	0	
3	0	0	0	0	508	510	0	0	
4	0	0	0	0	510	507	0	0	
5	0	0	0	0	510	508	0	0	
6	0	0	0	0	509	508	0	0	
7	0	0	0	0	509	508	0	0	
8	0	0	0	0	512	506	0	0	
9	0	0	0	0	512	509	0	0	
10	0	0	0	0	512	508	0	0	
11	0	0	0	0	512	507	0	0	
12	0	0	0	0	511	507	0	0	
13	0	0	0	0	511	507	0	0	
14	0	0	0	0	511	507	0	0	
15	0	0	0	0	514	508	0	0	
0	0	0	0	0	512	508	0	0	
1	0	0	0	0	511	507	0	0	
2	0	0	0	0	513	508	0	0	
3	0	0	0	0	512	507	0	0	
4	0	0	0	0	511	507	0	0	
5	0	0	0	0	511	508	0	0	
6	0	0	0	0	509	507	0	0	
7	0	0	0	0	510	508	0	0	
8	0	0	0	0	511	509	0	0	
9	0	0	0	0	510	507	0	0	
10	0	0	0	0	512	507	0	0	
11	0	0	0	0	511	507	0	0	
12	0	0	0	0	510	507	0	0	
13	0	0	0	0	511	508	0	0	
14	0	0	0	0	508	510	0	0	
15	0	0	0	0	510	507	0	0	
0	0	0	0	0	511	506	0	0	
1	0	0	0	0	512	509	0	0	
2	0	0	0	0	512	508	0	0	
3	0	0	0	0	513	509	0	0	
4	0	0	0	0	512	508	0	0	
5	0	0	0	0	513	509	0	0	
6	0	0	0	0	512	511	0	0	
7	0	0	0	0	511	508	0	0	
8	0	0	0	0	511	509	0	0	
9	0	0	0	0	509	507	0	0	
10	0	0	0	0	509	508	0	0	
11	0	0	0	0	510	508	0	0	
12	0	0	0	0	508	507	0	0	
13	0	0	0	0	510	508	0	0	
14	0	0	0	0	510	506	0	0	
15	0	0	0	0	510	507	0	0	
0	0	0	0	0	510	509	0	0	
1	0	0	0	0	510	508	0	0	
2	0	0	0	0	511	509	0	0	
3	0	0	0	0	513	507	0	0	
4	0	0	0	0	513	508	0	0	
5	0	0	0	0	512	508	0	0	
6	0	0	0	0	513	509	0	0	
7	0	0	0	0	512	508	0	0	
8	0	0	0	0	513	507	0	0	
9	0	0	0	0	514	508	0	0	
10	0	0	0	0	513	507	0	0	
11	0	0	0	0	512	507	0	0	
12	0	0	0	0	509	508	0	0	
13	0	0	0	0	511	508	0	0	
14	0	0	0	0	509	507	0	0	
15	0	0	0	0	507	506	0	0	
0	0	0	0	0	507	507	0	0	
1	0	0	0	0	511	507	0	0	
2	0	0	0	0	512	508	0	0	
3	0	0	0	0	511	508	0	0	
4	0	0	0	0	509	508	0	0	
5	0	0	0	0	511	509	0	0	
6	0	0	0	0	513	509	0	0	
7	0	0	0	0	512	509	0	0	
8	0	0	0	0	512	508	0	0	
9	0	0	0	0	511	508	0	0	
10	0	0	0	0	511	508	0	0	
11	0	0	0	0	511	508	0	0	
12	0	0	0	0	510	507	0	0	
13	0	0	0	0	512	508	0	0	
14	0	0	0	0	512	509	0	0	
15	0	0	0	0	510	508	0	0	
0	0	0	0	0	511	507	0	0	
1	0	0	0	0	512	508	0	0	
2	0	0	0	0	511	509	0	0	
3	0	0	0	0	510	510	0	0	
4	0	0	0	0	511	506	0	0	
5	0	0	0	0	512	507	0	0	
6	0	0	0	0	511	508	0	0	
7	0	0	0	0	510	507	0	0	
8	0	0	0	0	510	508	0	0	
9	0	0	0	0	508	507	0	0	
10	0	0	0	0	510	508	0	0	
11	0	0	0	0	511	508	0	0	
12	0	0	0	0	512	508	0	0	
13	0	0	0	0	511	505	0	0	
14	0	0	0	0	514	507	0	0	
15	0	0	0	0	513	510	0	0	
0	0	0	0	0	512	508	0	0	
1	0	0	0	0	512	508	0	0	
2	0	0	0	0	513	509	0	0	
3	0	0	0	0	509	508	0	0	
4	0	0	0	0	510	508	0	0	
5	0	0	0	0	512	510	0	0	
6	0	0	0	0	509	508	0	0	
7	0	0	0	0	508	511	0	0	
8	0	0	0	0	508	508	0	0	
9	0	0	0	0	509	507	0	0	
10	0	0	0	0	509	509	0	0	
11	0	0	0	0	510	508	0	0	
12	0	0	0	0	510	509	0	0	
13	0	0	0	0	512	508	0	0	
14	0	0	0	0	511	507	0	0	
15	0	0	0	0	514	508	0	0	
0	0	0	0	0	512	507	0	0	
1	0	0	0	0	514	508	0	0	
2	0	0	0	0	513	510	0	0	
3	0	0	0	0	511	507	0	0	
4	0	0	0	0	512	506	0	0	
5	0	0	0	0	512	507	0	0	
6	0	0	0	0	511	509	0	0	
7	0	0	0	0	511	510	0	0	
8	0	0	0	0	512	507	0	0	
9	0	0	0	0	511	509	0	0	
10	0	0	0	0	510	509	0	0	
11	0	0	0	0	510	507	0	0	
12	0	0	0	0	508	507	0	0	
13	0	0	0	0	509	508	0	0	
14	0	0	0	0	508	507	0	0	
15	0	0	0	0	508	508	0	0	
0	0	0	0	0	511	508	0	0	
1	0	0	0	0	510	510	0	0	
2	0	0	0	0	511	508	0	0	
3	0	0	0	0	511	511	0	0	
4	0	0	0	0	513	508	0	0	
5	0	0	0	0	512	508	0	0	
6	0	0	0	0	511	508	0	0	
7	0	0	0	0	513	506	0	0	
8	0	0	0	0	512	509	0	0	
9	0	0	0	0	512	509	0	0	
10	0	0	0	0	512	510	0	0	
11	0	0	0	0	511	508	0	0	
12	0	0	0	0	512	506	0	0	
13	0	0	0	0	511	508	0	0	
14	0	0	0	0	512	507	0	0	
15	0	0	0	0	511	508	0	0	
0	0	0	0	0	510	507	0	0	
1	0	0	0	0	507	508	0	0	
2	0	0	0	0	510	509	0	0	
3	0	0	0	0	508	508	0	0	
4	0	0	0	0	510	508	0	0	
5	0	0	0	0	511	508	0	0	
6	0	0	0	0	511	508	0	0	
7	0	0	0	0	511	509	0	0	
8	0	0	0	0	511	510	0	0	
9	0	0	0	0	512	507	0	0	
10	0	0	0	0	512	507	0	0	
11	0	0	0	0	511	506	0	0	
12	0	0	0	0	513	506	0	0	
13	0	0	0	0	513	507	0	0	
14	0	0	0	0	512	508	0	0	
15	0	0	0	0	510	508	0	0	
0	0	0	0	0	510	508	0	0	
1	0	0	0	0	508	508	0	0	
2	0	0	0	0	508	507	0	0	
3	0	0	0	0	512	509	0	0	
4	0	0	0	0	515	508	0	0	
5	0	0	0	0	512	507	0	0	
6	0	0	0	0	510	509	0	0	
7	0	0	0	0	506	507	0	0	
8	0	0	0	0	511	508	0	0	
9	0	0	0	0	509	505	0	0	
10	0	0	0	0	510	508	0	0	
11	0	0	0	0	512	507	0	0	
12	0	0	0	0	509	508	0	0	
13	0	0	0	0	510	507	0	0	
14	0	0	0	0	511	507	0	0	
15	0	0	0	0	511	507	0	0	
0	0	0	0	0	515	509	0	0	
1	0	0	0	0	513	509	0	0	
2	0	0	0	0	514	508	0	0	
3	0	0	0	0	512	508	0	0	
4	0	0	0	0	511	508	0	0	
5	0	0	0	0	510	508	0	0	
6	0	0	0	0	511	508	0	0	
7	0	0	0	0	509	507	0	0	
8	0	0	0	0	511	508	0	0	
9	0	0	0	0	509	507	0	0	
10	0	0	0	0	511	508	0	0	
11	0	0	0	0	511	508	0	0	
12	0	0	0	0	508	507	0	0	
13	0	0	0	0	510	508	0	0	
14	0	0	0	0	512	507	0	0	
15	0	0	0	0	510	510	0	0	
0	0	0	0	0	511	508	0	0	
1	0	0	0	0	512	508	0	0	
2	0	0	0	0	513	506	0	0	
3	0	0	0	0	512	506	0	0	
4	0	0	0	0	511	509	0	0	
5	0	0	0	0	512	509	0	0	
6	0	0	0	0	513	507	0	0	
7	0	0	0	0	513	507	0	0	
8	0	0	0	0	509	506	0	0	
9	0	0	0	0	509	508	0	0	
10	0	0	0	0	510	509	0	0	
11	0	0	0	0	510	508	0	0	
12	0	0	0	0	511	508	0	0	
13	0	0	0	0	511	508	0	0	
14	0	0	0	0	515	510	0	0	
15	0	0	0	0	513	507	0	0	
0	0	0	0	0	511	509	0	0	
1	0	0	0	0	508	507	0	0	
2	0	0	0	0	508	508	0	0	
3	0	0	0	0	510	508	0	0	
4	0	0	0	0	513	507	0	0	
5	0	0	0	0	514	508	0	0	
6	0	0	0	0	513	506	0	0	
7	0	0	0	0	513	506	0	0	
8	0	0	0	0	511	508	0	0	
9	0	0	0	0	513	508	0	0	
10	0	0	0	0	513	508	0	0	
11	0	0	0	0	513	507	0	0	
12	0	0	0	0	511	508	0	0	
13	0	0	0	0	510	508	0	0	
14	0	0	0	0	509	509	0	0	
15	0	0	0	0	511	510	0	0	
0	0	0	0	0	509	508	0	0	
1	0	0	0	0	509	509	0	0	
2	0	0	0	0	507	509	0	0	
3	0	0	0	0	508	507	0	0	
4	0	0	0	0	508	508	0	0	
5	0	0	0	0	510	506	0	0	
6	0	0	0	0	510	507	0	0	
7	0	0	0	0	513	507	0	0	
8	0	0	0	0	515	509	0	0	
9	0	0	0	0	513	509	0	0	
10	0	0	0	0	513	507	0	0	
11	0	0	0	0	513	509	0	0	
12	0	0	0	0	512	508	0	0	
13	0	0	0	0	512	508	0	0	
14	0	0	0	0	513	507	0	0	
15	0	0	0	0	511	507	0	0	
0	0	0	0	0	511	507	0	0	
1	0	0	0	0	508	508	0	0	
2	0	0	0	0	511	510	0	0	
3	0	0	0	0	510	508	0	0	
4	0	0	0	0	509	508	0	0	
5	0	0	0	0	508	509	0	0	
6	0	0	0	0	510	508	0	0	
7	0	0	0	0	510	508	0	0	
8	0	0	0	0	510	507	0	0	
9	0	0	0	0	510	508	0	0	
10	0	0	0	0	510	508	0	0	
11	0	0	0	0	510	504	0	0	
12	0	0	0	0	509	508	0	0	
13	0	0	0	0	513	508	0	0	
14	0	0	0	0	513	511	0	0	
15	0	0	0	0	513	510	0	0	
0	0	0	0	0	511	509	0	0	
1	0	0	0	0	513	507	0	0	
2	0	0	0	0	512	505	0	0	
3	0	0	0	0	513	508	0	0	
4	0	0	0	0	511	506	0	0	
5	0	0	0	0	509	509	0	0	
6	0	0	0	0	510	509	0	0	
7	0	0	0	0	510	507	0	0	
8	0	0	0	0	511	508	0	0	
9	0	0	0	0	511	507	0	0	
10	0	0	0	0	511	508	0	0	
11	0	0	0	0	508	507	0	0	
12	0	0	0	0	511	510	0	0	
13	0	0	0	0	512	508	0	0	
14	0	0	0	0	514	507	0	0	
15	0	0	0	0	510	508	0	0	
0	0	0	0	0	509	508	0	0	
1	0	0	0	0	509	507	0	0	
2	0	0	0	0	512	508	0	0	
3	0	0	0	0	513	507	0	0	
4	0	0	0	0	511	510	0	0	
5	0	0	0	0	512	510	0	0	
6	0	0	0	0	513	507	0	0	
7	0	0	0	0	513	508	0	0	
8	0	0	0	0	514	507	0	0	
9	0	0	0	0	510	508	0	0	
10	0	0	0	0	508	508	0	0	
11	0	0	0	0	508	508	0	0	
12	0	0	0	0	508	507	0	0	
13	0	0	0	0	510	506	0	0	
14	0	0	0	0	511	509	0	0	
15	0	0	0	0	511	507	0	0	
0	0	0	0	0	511	510	0	0	
1	0	0	0	0	510	508	0	0	
2	0	0	0	0	509	508	0	0	
3	0	0	0	0	511	507	0	0	
4	0	0	0	0	510	509	0	0	
5	0	0	0	0	513	509	0	0	
6	0	0	0	0	512	508	0	0	
7	0	0	0	0	512	507	0	0	
8	0	0	0	0	513	510	0	0	
9	0	0	0	0	512	509	0	0	
10	0	0	0	0	515	507	0	0	
11	0	0	0	0	511	507	0	0	
12	0	0	0	0	511	508	0	0	
13	0	0	0	0	509	510	0	0	
14	0	0	0	0	510	508	0	0	
15	0	0	0	0	509	508	0	0	
0	0	0	0	0	508	509	0	0	
1	0	0	0	0	507	508	0	0	
2	0	0	0	0	512	507	0	0	
3	0	0	0	0	512	506	0	0	
4	0	0	0	0	510	508	0	0	
5	0	0	0	0	509	508	0	0	
6	0	0	0	0	511	509	0	0	
7	0	0	0	0	512	508	0	0	
8	0	0	0	0	511	508	0	0	
9	0	0	0	0	511	507	0	0	
10	0	0	0	0	509	507	0	0	
11	0	0	0	0	513	507	0	0	
12	0	0	0	0	512	510	0	0	
13	0	0	0	0	512	507	0	0	
14	0	0	0	0	510	509	0	0	
15	0	0	0	0	514	507	0	0	
0	0	0	0	0	512	508	0	0	
1	0	0	0	0	512	508	0	0	
2	0	0	0	0	510	507	0	0	
3	0	0	0	0	511	509	0	0	
4	0	0	0	0	513	508	0	0	
5	0	0	0	0	508	508	0	0	
6	0	0	0	0	509	507	0	0	
7	0	0	0	0	512	507	0	0	
8	0	0	0	0	511	509	0	0	
9	0	0	0	0	511	508	0	0	
10	0	0	0	0	512	508	0	0	
11	0	0	0	0	511	507	0	0	
12	0	0	0	0	510	508	0	0	
13	0	0	0	0	510	509	0	0	
14	0	0	0	0	512	507	0	0	
15	0	0	0	0	512	508	0	0	
0	0	0	0	0	514	507	0	0	
1	0	0	0	0	511	509	0	0	
2	0	0	0	0	513	510	0	0	
3	0	0	0	0	513	508	0	0	
4	0	0	0	0	512	505	0	0	
5	0	0	0	0	512	509	0	0	
6	0	0	0	0	512	507	0	0	
7	0	0	0	0	511	508	0	0	
8	0	0	0	0	512	508	0	0	
9	0	0	0	0	510	507	0	0	
10	0	0	0	0	510	508	0	0	
11	0	0	0	0	508	508	0	0	
12	0	0	0	0	511	508	0	0	
13	0	0	0	0	510	506	0	0	
14	0	0	0	0	508	509	0	0	
15	0	0	0	0	510	509	0	0	
0	0	0	0	0	512	509	0	0	
1	0	0	0	0	511	507	0	0	
2	0	0	0	0	512	508	0	0	
3	0	0	0	0	513	509	0	0	
4	0	0	0	0	513	509	0	0	
5	0	0	0	0	512	509	0	0	
6	0	0	0	0	511	510	0	0	
7	0	0	0	0	512	508	0	0	
8	0	0	0	0	511	508	0	0	
9	0	0	0	0	513	508	0	0	
10	0	0	0	0	511	506	0	0	
11	0	0	0	0	512	507	0	0	
12	0	0	0	0	508	508	0	0	
13	0	0	0	0	508	509	0	0	
14	0	0	0	0	510	508	0	0	
15	0	0	0	0	508	508	0	0	
0	0	0	0	0	510	508	0	0	
1	0	0	0	0	510	509	0	0	
2	0	0	0	0	511	507	0	0	
3	0	0	0	0	511	507	0	0	
4	0	0	0	0	512	507	0	0	
5	0	0	0	0	513	508	0	0	
6	0	0	0	0	514	506	0	0	
7	0	0	0	0	513	508	0	0	
8	0	0	0	0	512	507	0	0	
9	0	0	0	0	511	510	0	0	
10	0	0	0	0	510	508	0	0	
11	0	0	0	0	511	507	0	0	
12	0	0	0	0	511	508	0	0	
13	0	0	0	0	511	509	0	0	
14	0	0	0	0	512	508	0	0	
15	0	0	0	0	514	508	0	0	
0	0	0	0	0	509	509	0	0	
1	0	0	0	0	508	508	0	0	
2	0	0	0	0	508	509	0	0	
3	0	0	0	0	508	509	0	0	
4	0	0	0	0	512	507	0	0	
5	0	0	0	0	511	506	0	0	
6	0	0	0	0	511	508	0	0	
7	0	0	0	0	510	508	0	0	
8	0	0	0	0	510	506	0	0	
9	0	0	0	0	512	507	0	0	
10	0	0	0	0	512	507	0	0	
11	0	0	0	0	514	508	0	0	
12	0	0	0	0	512	510	0	0	
13	0	0	0	0	511	508	0	0	
14	0	0	0	0	511	509	0	0	
15	0	0	0	0	510	509	0	0	
0	0	0	0	0	511	508	0	0	
1	0	0	0	0	510	510	0	0	
2	0	0	0	0	511	509	0	0	
3	0	0	0	0	510	507	0	0	
4	0	0	0	0	510	507	0	0	
5	0	0	0	0	508	505	0	0	
6	0	0	0	0	510	507	0	0	
7	0	0	0	0	511	509	0	0	
8	0	0	0	0	509	509	0	0	
9	0	0	0	0	510	508	0	0	
10	0	0	0	0	511	508	0	0	
11	0	0	0	0	513	507	0	0	
12	0	0	0	0	512	507	0	0	
13	0	0	0	0	515	509	0	0	
14	0	0	0	0	513	508	0	0	
15	0	0	0	0	511	508	0	0	
0	0	0	0	0	510	508	0	0	
1	0	0	0	0	513	508	0	0	
2	0	0	0	0	514	508	0	0	
3	0	0	0	0	511	508	0	0	
4	0	0	0	0	511	509	0	0	
5	0	0	0	0	512	507	0	0	
6	0	0	0	0	512	508	0	0	
7	0	0	0	0	512	510	0	0	
8	0	0	0	0	510	509	0	0	
9	0	0	0	0	509	508	0	0	
10	0	0	0	0	509	507	0	0	
11	0	0	0	0	510	508	0	0	
12	0	0	0	0	510	506	0	0	
13	0	0	0	0	512	508	0	0	
14	0	0	0	0	509	509	0	0	
15	0	0	0	0	511	507	0	0	
0	0	0	0	0	513	507	0	0	
1	0	0	0	0	512	507	0	0	
2	0	0	0	0	511	506	0	0	
3	0	0	0	0	512	508	0	0	
4	0	0	0	0	512	508	0	0	
5	0	0	0	0	514	505	0	0	
6	0	0	0	0	514	510	0	0	
7	0	0	0	0	510	508	0	0	
8	0	0	0	0	509	510	0	0	
9	0	0	0	0	509	508	0	0	
10	0	0	0	0	511	508	0	0	
11	0	0	0	0	510	511	0	0	
12	0	0	0	0	508	509	0	0	
13	0	0	0	0	509	507	0	0	
14	0	0	0	0	509	505	0	0	
15	0	0	0	0	510	508	0	0	
0	0	0	0	0	508	508	0	0	
1	0	0	0	0	510	507	0	0	
2	0	0	0	0	511	508	0	0	
3	0	0	0	0	509	508	0	0	
4	0	0	0	0	511	508	0	0	
5	0	0	0	0	512	507	0	0	
6	0	0	0	0	511	508	0	0	
7	0	0	0	0	514	508	0	0	
8	0	0	0	0	514	509	0	0	
9	0	0	0	0	512	508	0	0	
10	0	0	0	0	512	509	0	0	
11	0	0	0	0	512	508	0	0	
12	0	0	0	0	511	508	0	0	
13	0	0	0	0	510	506	0	0	
14	0	0	0	0	510	507	0	0	
15	0	0	0	0	510	507	0	0	
0	0	0	0	0	510	508	0	0	
1	0	0	0	0	511	510	0	0	
2	0	0	0	0	506	506	0	0	
3	0	0	0	0	508	506	0	0	
4	0	0	0	0	508	508	0	0	
5	0	0	0	0	511	506	0	0	
6	0	0	0	0	512	507	0	0	
7	0	0	0	0	513	511	0	0	
8	0	0	0	0	513	507	0	0	
9	0	0	0	0	515	508	0	0	
10	0	0	0	0	515	507	0	0	
11	0	0	0	0	515	507	0	0	
12	0	0	0	0	513	511	0	0	
13	0	0	0	0	508	510	0	0	
14	0	0	0	0	511	508	0	0	
15	0	0	0	0	513	508	0	0	
0	0	0	0	0	511	508	0	0	
1	0	0	0	0	508	507	0	0	
2	0	0	0	0	509	509	0	0	
3	0	0	0	0	511	509	0	0	
4	0	0	0	0	508	509	0	0	
5	0	0	0	0	511	510	0	0	
6	0	0	0	0	508	507	0	0	
7	0	0	0	0	508	504	0	0	
8	0	0	0	0	509	506	0	0	
9	0	0	0	0	508	507	0	0	
10	0	0	0	0	510	508	0	0	
11	0	0	0	0	510	510	0	0	
12	0	0	0	0	510	507	0	0	
13	0	0	0	0	511	508	0	0	
14	0	0	0	0	511	508	0	0	
15	0	0	0	0	512	508	0	0	
0	0	0	0	0	513	507	0	0	
1	0	0	0	0	515	508	0	0	
2	0	0	0	0	513	508	0	0	
3	0	0	0	0	511	508	0	0	
4	0	0	0	0	512	507	0	0	
5	0	0	0	0	511	509	0	0	
6	0	0	0	0	511	508	0	0	
7	0	0	0	0	510	508	0	0	
8	0	0	0	0	509	507	0	0	
9	0	0	0	0	508	507	0	0	
10	0	0	0	0	509	508	0	0	
11	0	0	0	0	510	507	0	0	
12	0	0	0	0	511	508	0	0	
13	0	0	0	0	510	508	0	0	
14	0	0	0	0	511	510	0	0	
15	0	0	0	0	510	509	0	0	
0	0	0	0	0	511	507	0	0	
1	0	0	0	0	513	508	0	0	
2	0	0	0	0	511	509	0	0	
3	0	0	0	0	512	508	0	0	
4	0	0	0	0	513	508	0	0	
5	0	0	0	0	513	508	0	0	
6	0	0	0	0	513	508	0	0	
7	0	0	0	0	512	506	0	0	
8	0	0	0	0	513	509	0	0	
9	0	0	0	0	511	509	0	0	
10	0	0	0	0	510	509	0	0	
11	0	0	0	0	509	508	0	0	
12	0	0	0	0	509	508	0	0	
13	0	0	0	0	508	507	0	0	
14	0	0	0	0	512	505	0	0	
15	0	0	0	0	511	508	0	0	
0	0	0	0	0	505	509	0	0	
1	0	0	0	0	508	508	0	0	
2	0	0	0	0	509	507	0	0	
3	0	0	0	0	511	510	0	0	
4	0	0	0	0	511	507	0	0	
5	0	0	0	0	512	508	0	0	
6	0	0	0	0	513	507	0	0	
7	0	0	0	0	512	509	0	0	
8	0	0	0	0	512	510	0	0	
9	0	0	0	0	514	508	0	0	
10	0	0	0	0	514	507	0	0	
11	0	0	0	0	514	509	0	0	
12	0	0	0	0	511	508	0	0	
13	0	0	0	0	509	507	0	0	
14	0	0	0	0	511	508	0	0	
15	0	0	0	0	512	507	0	0	
0	0	0	0	0	508	510	0	0	
1	0	0	0	0	511	508	0	0	
2	0	0	0	0	509	507	0	0	
3	0	0	0	0	510	510	0	0	
4	0	0	0	0	509	507	0	0	
5	0	0	0	0	510	506	0	0	
6	0	0	0	0	509	505	0	0	
7	0	0	0	0	511	509	0	0	
8	0	0	0	0	511	509	0	0	
9	0	0	0	0	514	507	0	0	
10	0	0	0	0	512	507	0	0	
11	0	0	0	0	513	507	0	0	
12	0	0	0	0	512	508	0	0	
13	0	0	0	0	511	508	0	0	
14	0	0	0	0	513	509	0	0	
15	0	0	0	0	513	509	0	0	
0	0	0	0	0	515	508	0	0	
1	0	0	0	0	511	507	0	0	
2	0	0	0	0	509	507	0	0	
3	0	0	0	0	509	508	0	0	
4	0	0	0	0	510	510	0	0	
5	0	0	0	0	511	509	0	0	
6	0	0	0	0	511	507	0	0	
7	0	0	0	0	510	508	0	0	
8	0	0	0	0	511	508	0	0	
9	0	0	0	0	511	507	0	0	
10	0	0	0	0	511	508	0	0	
11	0	0	0	0	510	509	0	0	
12	0	0	0	0	513	508	0	0	
13	0	0	0	0	512	508	0	0	
14	0	0	0	0	513	509	0	0	
15	0	0	0	0	511	507	0	0	
0	0	0	0	0	510	507	0	0	
1	0	0	0	0	513	508	0	0	
2	0	0	0	0	513	509	0	0	
3	0	0	0	0	512	507	0	0	
4	0	0	0	0	511	508	0	0	
5	0	0	0	0	512	508	0	0	
6	0	0	0	0	510	510	0	0	
7	0	0	0	0	509	507	0	0	
8	0	0	0	0	510	507	0	0	
9	0	0	0	0	511	509	0	0	
10	0	0	0	0	510	506	0	0	
11	0	0	0	0	511	507	0	0	
12	0	0	0	0	508	509	0	0	
13	0	0	0	0	511	508	0	0	
14	0	0	0	0	509	508	0	0	
15	0	0	0	0	512	507	0	0	
0	0	0	0	0	512	508	0	0	
1	0	0	0	0	511	508	0	0	
2	0	0	0	0	512	507	0	0	
3	0	0	0	0	512	507	0	0	
4	0	0	0	0	513	508	0	0	
5	0	0	0	0	512	510	0	0	
6	0	0	0	0	513	507	0	0	
7	0	0	0	0	512	508	0	0	
8	0	0	0	0	511	508	0	0	
9	0	0	0	0	512	509	0	0	
10	0	0	0	0	512	507	0	0	
11	0	0	0	0	511	510	0	0	
12	0	0	0	0	511	509	0	0	
13	0	0	0	0	510	508	0	0	
14	0	0	0	0	508	505	0	0	
15	0	0	0	0	510	508	0	0	
0	0	0	0	0	510	508	0	0	
1	0	0	0	0	511	508	0	0	
2	0	0	0	0	512	509	0	0	
3	0	0	0	0	511	509	0	0	
4	0	0	0	0	511	506	0	0	
5	0	0	0	0	514	508	0	0	
6	0	0	0	0	514	507	0	0	
7	0	0	0	0	513	508	0	0	
8	0	0	0	0	512	507	0	0	
9	0	0	0	0	511	508	0	0	
10	0	0	0	0	513	507	0	0	
11	0	0	0	0	512	508	0	0	
12	0	0	0	0	508	510	0	0	
13	0	0	0	0	511	509	0	0	
14	0	0	0	0	508	507	0	0	
15	0	0	0	0	508	510	0	0	
0	0	0	0	0	508	508	0	0	
1	0	0	0	0	508	508	0	0	
2	0	0	0	0	508	507	0	0	
3	0	0	0	0	510	507	0	0	
4	0	0	0	0	511	508	0	0	
5	0	0	0	0	511	508	0	0	
6	0	0	0	0	512	508	0	0	
7	0	0	0	0	514	508	0	0	
8	0	0	0	0	511	508	0	0	
9	0	0	0	0	513	510	0	0	
10	0	0	0	0	513	509	0	0	
11	0	0	0	0	513	508	0	0	
12	0	0	0	0	514	506	0	0	
13	0	0	0	0	512	508	0	0	
14	0	0	0	0	511	508	0	0	
15	0	0	0	0	511	510	0	0	
0	0	0	0	0	513	509	0	0	
1	0	0	0	0	510	507	0	0	
2	0	0	0	0	510	507	0	0	
3	0	0	0	0	509	508	0	0	
4	0	0	0	0	511	506	0	0	
5	0	0	0	0	510	508	0	0	
6	0	0	0	0	508	508	0	0	
7	0	0	0	0	511	508	0	0	
8	0	0	0	0	511	507	0	0	
9	0	0	0	0	511	509	0	0	
10	0	0	0	0	510	507	0	0	
11	0	0	0	0	512	508	0	0	
12	0	0	0	0	510	507	0	0	
13	0	0	0	0	512	509	0	0	
14	0	0	0	0	512	507	0	0	
15	0	0	0	0	514	509	0	0	
0	0	0	0	0	513	507	0	0	
1	0	0	0	0	513	505	0	0	
2	0	0	0	0	511	507	0	0	
3	0	0	0	0	511	508	0	0	
4	0	0	0	0	511	508	0	0	
5	0	0	0	0	512	509	0	0	
6	0	0	0	0	509	509	0	0	
7	0	0	0	0	508	508	0	0	
8	0	0	0	0	510	508	0	0	
9	0	0	0	0	511	507	0	0	
10	0	0	0	0	509	508	0	0	
11	0	0	0	0	510	506	0	0	
12	0	0	0	0	509	508	0	0	
13	0	0	0	0	511	509	0	0	
14	0	0	0	0	511	507	0	0	
15	0	0	0	0	512	507	0	0	
0	0	0	0	0	511	507	0	0	
1	0	0	0	0	512	508	0	0	
2	0	0	0	0	511	506	0	0	
3	0	0	0	0	514	507	0	0	
4	0	0	0	0	511	506	0	0	
5	0	0	0	0	514	508	0	0	
6	0	0	0	0	513	510	0	0	
7	0	0	0	0	510	509	0	0	
8	0	0	0	0	508	509	0	0	
9	0	0	0	0	510	508	0	0	
10	0	0	0	0	511	508	0	0	
11	0	0	0	0	511	511	0	0	
12	0	0	0	0	511	508	0	0	
13	0	0	0	0	511	508	0	0	
14	0	0	0	0	510	508	0	0	
15	0	0	0	0	511	507	0	0	
0	0	0	0	0	508	508	0	0	
1	0	0	0	0	512	508	0	0	
2	0	0	0	0	510	508	0	0	
3	0	0	0	0	513	507	0	0	
4	0	0	0	0	511	508	0	0	
5	0	0	0	0	512	508	0	0	
6	0	0	0	0	514	509	0	0	
7	0	0	0	0	512	508	0	0	
8	0	0	0	0	512	507	0	0	
9	0	0	0	0	513	507	0	0	
10	0	0	0	0	510	505	0	0	
11	0	0	0	0	511	506	0	0	
12	0	0	0	0	511	510	0	0	
13	0	0	0	0	511	508	0	0	
14	0	0	0	0	512	509	0	0	
15	0	0	0	0	509	508	0	0	
0	0	0	0	0	508	507	0	0	
1	0	0	0	0	511	510	0	0	
2	0	0	0	0	512	509	0	0	
3	0	0	0	0	509	508	0	0	
4	0	0	0	0	510	508	0	0	
5	0	0	0	0	511	507	0	0	
6	0	0	0	0	511	508	0	0	
7	0	0	0	0	510	508	0	0	
8	0	0	0	0	510	508	0	0	
9	0	0	0	0	511	509	0	0	
10	0	0	0	0	511	508	0	0	
11	0	0	0	0	512	509	0	0	
12	0	0	0	0	513	508	0	0	
13	0	0	0	0	511	508	0	0	
14	0	0	0	0	511	508	0	0	
15	0	0	0	0	511	508	0	0	
0	0	0	0	0	511	509	0	0	
1	0	0	0	0	510	509	0	0	
2	0	0	0	0	511	508	0	0	
3	0	0	0	0	510	507	0	0	
4	0	0	0	0	509	508	0	0	
5	0	0	0	0	508	508	0	0	
6	0	0	0	0	510	507	0	0	
7	0	0	0	0	511	508	0	0	
8	0	0	0	0	510	506	0	0	
9	0	0	0	0	510	507	0	0	
10	0	0	0	0	513	508	0	0	
11	0	0	0	0	512	508	0	0	
12	0	0	0	0	512	507	0	0	
13	0	0	0	0	510	507	0	0	
14	0	0	0	0	511	506	0	0	
15	0	0	0	0	514	509	0	0	
0	0	0	0	0	511	508	0	0	
1	0	0	0	0	512	509	0	0	
2	0	0	0	0	512	510	0	0	
3	0	0	0	0	511	507	0	0	
4	0	0	0	0	512	508	0	0	
5	0	0	0	0	510	506	0	0	
6	0	0	0	0	509	508	0	0	
7	0	0	0	0	510	507	0	0	
8	0	0	0	0	509	507	0	0	
9	0	0	0	0	508	508	0	0	
10	0	0	0	0	508	508	0	0	
11	0	0	0	0	509	509	0	0	
12	0	0	0	0	512	508	0	0	
13	0	0	0	0	512	507	0	0	
14	0	0	0	0	511	507	0	0	
15	0	0	0	0	511	508	0	0	
0	0	0	0	0	511	508	0	0	
1	0	0	0	0	513	508	0	0	
2	0	0	0	0	511	508	0	0	
3	0	0	0	0	511	508	0	0	
4	0	0	0	0	514	509	0	0	
5	0	0	0	0	515	507	0	0	
6	0	0	0	0	514	507	0	0	
7	0	0	0	0	511	508	0	0	
8	0	0	0	0	510	508	0	0	
9	0	0	0	0	508	506	0	0	
10	0	0	0	0	510	508	0	0	
11	0	0	0	0	510	509	0	0	
12	0	0	0	0	511	507	0	0	
13	0	0	0	0	511	508	0	0	
14	0	0	0	0	510	506	0	0	
15	0	0	0	0	511	508	0	0	
0	0	0	0	0	511	508	0	0	
1	0	0	0	0	511	509	0	0	
2	0	0	0	0	509	508	0	0	
3	0	0	0	0	511	508	0	0	
4	0	0	0	0	512	505	0	0	
5	0	0	0	0	511	509	0	0	
6	0	0	0	0	513	510	0	0	
7	0	0	0	0	513	510	0	0	
8	0	0	0	0	512	509	0	0	
9	0	0	0	0	514	507	0	0	
10	0	0	0	0	512	507	0	0	
11	0	0	0	0	512	508	0	0	
12	0	0	0	0	512	508	0	0	
13	0	0	0	0	510	508	0	0	
14	0	0	0	0	508	508	0	0	
15	0	0	0	0	508	507	0	0	
0	0	0	0	0	509	506	0	0	
1	0	0	0	0	507	508	0	0	
2	0	0	0	0	509	508	0	0	
3	0	0	0	0	510	508	0	0	
4	0	0	0	0	505	509	0	0	
5	0	0	0	0	508	507	0	0	
6	0	0	0	0	512	508	0	0	
7	0	0	0	0	513	509	0	0	
8	0	0	0	0	510	508	0	0	
9	0	0	0	0	511	508	0	0	
10	0	0	0	0	514	508	0	0	
11	0	0	0	0	515	507	0	0	
12	0	0	0	0	515	508	0	0	
13	0	0	0	0	512	508	0	0	
14	0	0	0	0	513	510	0	0	
15	0	0	0	0	512	508	0	0	
0	0	0	0	0	513	508	0	0	
1	0	0	0	0	511	505	0	0	
2	0	0	0	0	511	507	0	0	
3	0	0	0	0	511	508	0	0	
4	0	0	0	0	512	508	0	0	
5	0	0	0	0	512	508	0	0	
6	0	0	0	0	510	509	0	0	
7	0	0	0	0	510	510	0	0	
8	0	0	0	0	506	510	0	0	
9	0	0	0	0	510	508	0	0	
10	0	0	0	0	511	508	0	0	
11	0	0	0	0	510	506	0	0	
12	0	0	0	0	512	506	0	0	
13	0	0	0	0	513	509	0	0	
14	0	0	0	0	511	510	0	0	
15	0	0	0	0	511	508	0	0	
0	0	0	0	0	512	510	0	0	
1	0	0	0	0	513	506	0	0	
2	0	0	0	0	512	506	0	0	
3	0	0	0	0	510	509	0	0	
4	0	0	0	0	511	508	0	0	
5	0	0	0	0	511	507	0	0	
6	0	0	0	0	510	508	0	0	
7	0	0	0	0	511	508	0	0	
8	0	0	0	0	511	508	0	0	
9	0	0	0	0	509	507	0	0	
10	0	0	0	0	510	510	0	0	
11	0	0	0	0	510	509	0	0	
12	0	0	0	0	508	508	0	0	
13	0	0	0	0	509	506	0	0	
14	0	0	0	0	513	508	0	0	
15	0	0	0	0	511	507	0	0	
0	0	0	0	0	513	508	0	0	
1	0	0	0	0	514	506	0	0	
2	0	0	0	0	511	509	0	0	
3	0	0	0	0	511	508	0	0	
4	0	0	0	0	510	507	0	0	
5	0	0	0	0	511	508	0	0	
6	0	0	0	0	510	508	0	0	
7	0	0	0	0	513	506	0	0	
8	0	0	0	0	512	509	0	0	
9	0	0	0	0	511	506	0	0	
10	0	0	0	0	512	509	0	0	
11	0	0	0	0	511	510	0	0	
12	0	0	0	0	510	507	0	0	
13	0	0	0	0	508	508	0	0	
14	0	0	0	0	510	509	0	0	
15	0	0	0	0	508	507	0	0	
0	0	0	0	0	511	508	0	0	
1	0	0	0	0	510	507	0	0	
2	0	0	0	0	513	508	0	0	
3	0	0	0	0	510	508	0	0	
4	0	0	0	0	509	508	0	0	
5	0	0	0	0	510	508	0	0	
6	0	0	0	0	511	507	0	0	
7	0	0	0	0	511	508	0	0	
8	0	0	0	0	513	508	0	0	
9	0	0	0	0	513	507	0	0	
10	0	0	0	0	514	510	0	0	
11	0	0	0	0	512	508	0	0	
12	0	0	0	0	513	509	0	0	
13	0	0	0	0	509	507	0	0	
14	0	0	0	0	509	509	0	0	
15	0	0	0	0	511	509	0	0	
0	0	0	0	0	510	510	0	0	
1	0	0	0	0	511	507	0	0	
2	0	0	0	0	511	507	0	0	
3	0	0	0	0	509	507	0	0	
4	0	0	0	0	508	507	0	0	
5	0	0	0	0	507	507	0	0	
6	0	0	0	0	509	509	0	0	
7	0	0	0	0	511	510	0	0	
8	0	0	0	0	511	509	0	0	
9	0	0	0	0	511	509	0	0	
10	0	0	0	0	514	507	0	0	
11	0	0	0	0	514	507	0	0	
12	0	0	0	0	513	508	0	0	
13	0	0	0	0	514	508	0	0	
14	0	0	0	0	512	505	0	0	
15	0	0	0	0	512	507	0	0	
0	0	0	0	0	511	509	0	0	
1	0	0	0	0	511	508	0	0	
2	0	0	0	0	511	508	0	0	
3	0	0	0	0	512	508	0	0	
4	0	0	0	0	512	507	0	0	
5	0	0	0	0	514	507	0	0	
6	0	0	0	0	509	508	0	0	
7	0	0	0	0	509	508	0	0	
8	0	0	0	0	509	508	0	0	
9	0	0	0	0	508	507	0	0	
10	0	0	0	0	511	509	0	0	
11	0	0	0	0	512	509	0	0	
12	0	0	0	0	510	509	0	0	
13	0	0	0	0	514	508	0	0	
14	0	0	0	0	511	507	0	0	
15	0	0	0	0	510	508	0	0	
0	0	0	0	0	511	508	0	0	
1	0	0	0	0	511	506	0	0	
2	0	0	0	0	511	508	0	0	
3	0	0	0	0	512	508	0	0	
4	0	0	0	0	512	509	0	0	
5	0	0	0	0	511	510	0	0	
6	0	0	0	0	509	507	0	0	
7	0	0	0	0	509	508	0	0	
8	0	0	0	0	509	508	0	0	
9	0	0	0	0	510	508	0	0	
10	0	0	0	0	510	509	0	0	
11	0	0	0	0	510	510	0	0	
12	0	0	0	0	510	509	0	0	
13	0	0	0	0	511	508	0	0	
14	0	0	0	0	511	508	0	0	
15	0	0	0	0	510	507	0	0	
0	0	0	0	0	513	506	0	0	
1	0	0	0	0	513	508	0	0	
2	0	0	0	0	512	508	0	0	
3	0	0	0	0	511	509	0	0	
4	0	0	0	0	511	508	0	0	
5	0	0	0	0	512	508	0	0	
6	0	0	0	0	515	507	0	0	
7	0	0	0	0	513	508	0	0	
8	0	0	0	0	512	508	0	0	
9	0	0	0	0	510	507	0	0	
10	0	0	0	0	511	511	0	0	
11	0	0	0	0	510	509	0	0	
12	0	0	0	0	511	508	0	0	
13	0	0	0	0	511	509	0	0	
14	0	0	0	0	511	509	0	0	
15	0	0	0	0	511	508	0	0	
0	0	0	0	0	510	507	0	0	
1	0	0	0	0	511	507	0	0	
2	0	0	0	0	510	509	0	0	
3	0	0	0	0	511	507	0	0	
4	0	0	0	0	512	508	0	0	
5	0	0	0	0	513	507	0	0	
6	0	0	0	0	512	507	0	0	
7	0	0	0	0	512	509	0	0	
8	0	0	0	0	512	508	0	0	
9	0	0	0	0	512	508	0	0	
10	0	0	0	0	511	509	0	0	
11	0	0	0	0	513	510	0	0	
12	0	0	0	0	512	509	0	0	
13	0	0	0	0	512	506	0	0	
14	0	0	0	0	507	509	0	0	
15	0	0	0	0	510	507	0	0	
0	0	0	0	0	508	507	0	0	
1	0	0	0	0	509	508	0	0	
2	0	0	0	0	507	509	0	0	
3	0	0	0	0	509	508	0	0	
4	0	0	0	0	509	508	0	0	
5	0	0	0	0	510	508	0	0	
6	0	0	0	0	512	510	0	0	
7	0	0	0	0	511	507	0	0	
8	0	0	0	0	510	508	0	0	
9	0	0	0	0	511	508	0	0	
10	0	0	0	0	511	506	0	0	
11	0	0	0	0	512	508	0	0	
12	0	0	0	0	511	508	0	0	
13	0	0	0	0	512	508	0	0	
14	0	0	0	0	513	507	0	0	
15	0	0	0	0	513	508	0	0	
0	0	0	0	0	511	509	0	0	
1	0	0	0	0	513	507	0	0	
2	0	0	0	0	510	508	0	0	
3	0	0	0	0	510	509	0	0	
4	0	0	0	0	508	509	0	0	
5	0	0	0	0	508	507	0	0	
6	0	0	0	0	510	508	0	0	
7	0	0	0	0	509	510	0	0	
8	0	0	0	0	506	508	0	0	
9	0	0	0	0	510	507	0	0	
10	0	0	0	0	511	507	0	0	
11	0	0	0	0	511	507	0	0	
12	0	0	0	0	511	509	0	0	
13	0	0	0	0	514	509	0	0	
14	0	0	0	0	515	508	0	0	
15	0	0	0	0	515	508	0	0	
0	0	0	0	0	514	507	0	0	
1	0	0	0	0	511	507	0	0	
2	0	0	0	0	511	508	0	0	
3	0	0	0	0	512	508	0	0	
4	0	0	0	0	513	508	0	0	
5	0	0	0	0	509	509	0	0	
6	0	0	0	0	510	509	0	0	
7	0	0	0	0	510	508	0	0	
8	0	0	0	0	509	507	0	0	
9	0	0	0	0	511	507	0	0	
10	0	0	0	0	510	507	0	0	
11	0	0	0	0	509	507	0	0	
12	0	0	0	0	510	508	0	0	
13	0	0	0	0	510	507	0	0	
14	0	0	0	0	511	507	0	0	
15	0	0	0	0	511	508	0	0	
0	0	0	0	0	510	509	0	0	
1	0	0	0	0	511	509	0	0	
2	0	0	0	0	513	508	0	0	
3	0	0	0	0	511	511	0	0	
4	0	0	0	0	512	510	0	0	
5	0	0	0	0	511	508	0	0	
6	0	0	0	0	512	508	0	0	
7	0	0	0	0	511	508	0	0	
8	0	0	0	0	512	507	0	0	
9	0	0	0	0	511	506	0	0	
10	0	0	0	0	509	507	0	0	
11	0	0	0	0	510	506	0	0	
12	0	0	0	0	510	507	0	0	
13	0	0	0	0	509	508	0	0	
14	0	0	0	0	510	509	0	0	
15	0	0	0	0	511	507	0	0	
0	0	0	0	0	510	508	0	0	
1	0	0	0	0	511	508	0	0	
2	0	0	0	0	510	508	0	0	
3	0	0	0	0	511	509	0	0	
4	0	0	0	0	511	509	0	0	
5	0	0	0	0	511	507	0	0	
6	0	0	0	0	510	508	0	0	
7	0	0	0	0	513	508	0	0	
8	0	0	0	0	513	508	0	0	
9	0	0	0	0	513	507	0	0	
10	0	0	0	0	515	509	0	0	
11	0	0	0	0	513	508	0	0	
12	0	0	0	0	509	507	0	0	
13	0	0	0	0	512	508	0	0	
14	0	0	0	0	510	509	0	0	
15	0	0	0	0	510	510	0	0	
0	0	0	0	0	511	507	0	0	
1	0	0	0	0	510	508	0	0	
2	0	0	0	0	509	507	0	0	
3	0	0	0	0	510	506	0	0	
4	0	0	0	0	511	507	0	0	
5	0	0	0	0	512	505	0	0	
6	0	0	0	0	510	508	0	0	
7	0	0	0	0	509	508	0	0	
8	0	0	0	0	511	508	0	0	
9	0	0	0	0	512	506	0	0	
10	0	0	0	0	511	510	0	0	
11	0	0	0	0	511	510	0	0	
12	0	0	0	0	512	508	0	0	
13	0	0	0	0	513	510	0	0	
14	0	0	0	0	512	507	0	0	
15	0	0	0	0	512	508	0	0	
0	0	0	0	0	510	509	0	0	
1	0	0	0	0	512	509	0	0	
2	0	0	0	0	512	508	0	0	
3	0	0	0	0	512	509	0	0	
4	0	0	0	0	512	507	0	0	
5	0	0	0	0	508	508	0	0	
6	0	0	0	0	510	508	0	0	
7	0	0	0	0	507	505	0	0	
8	0	0	0	0	510	508	0	0	
9	0	0	0	0	510	508	0	0	
10	0	0	0	0	510	508	0	0	
11	0	0	0	0	509	507	0	0	
12	0	0	0	0	510	508	0	0	
13	0	0	0	0	512	507	0	0	
14	0	0	0	0	513	507	0	0	
15	0	0	0	0	512	509	0	0	
0	0	0	0	0	512	509	0	0	
1	0	0	0	0	512	509	0	0	
2	0	0	0	0	512	508	0	0	
3	0	0	0	0	511	509	0	0	
4	0	0	0	0	511	508	0	0	
5	0	0	0	0	510	507	0	0	
6	0	0	0	0	510	507	0	0	
7	0	0	0	0	509	508	0	0	
8	0	0	0	0	511	508	0	0	
9	0	0	0	0	509	508	0	0	
10	0	0	0	0	511	509	0	0	
11	0	0	0	0	509	508	0	0	
12	0	0	0	0	511	508	0	0	
13	0	0	0	0	509	506	0	0	
14	0	0	0	0	512	507	0	0	
15	0	0	0	0	513	509	0	0	
0	0	0	0	0	511	508	0	0	
1	0	0	0	0	512	508	0	0	
2	0	0	0	0	513	509	0	0	
3	0	0	0	0	513	509	0	0	
4	0	0	0	0	513	508	0	0	
5	0	0	0	0	512	507	0	0	
6	0	0	0	0	513	509	0	0	
7	0	0	0	0	512	507	0	0	
8	0	0	0	0	511	507	0	0	
9	0	0	0	0	510	508	0	0	
10	0	0	0	0	511	507	0	0	
11	0	0	0	0	509	508	0	0	
12	0	0	0	0	510	508	0	0	
13	0	0	0	0	512	508	0	0	
14	0	0	0	0	510	509	0	0	
15	0	0	0	0	510	509	0	0	
0	0	0	0	0	511	509	0	0	
1	0	0	0	0	511	506	0	0	
2	0	0	0	0	511	508	0	0	
3	0	0	0	0	511	507	0	0	
4	0	0	0	0	511	507	0	0	
5	0	0	0	0	510	509	0	0	
6	0	0	0	0	515	508	0	0	
7	0	0	0	0	511	509	0	0	
8	0	0	0	0	513	507	0	0	
9	0	0	0	0	513	509	0	0	
10	0	0	0	0	511	507	0	0	
11	0	0	0	0	512	508	0	0	
12	0	0	0	0	512	509	0	0	
13	0	0	0	0	510	508	0	0	
14	0	0	0	0	509	507	0	0	
15	0	0	0	0	509	509	0	0	
0	0	0	0	0	509	510	0	0	
1	0	0	0	0	514	507	0	0	
2	0	0	0	0	510	507	0	0	
3	0	0	0	0	509	509	0	0	
4	0	0	0	0	507	506	0	0	
5	0	0	0	0	508	507	0	0	
6	0	0	0	0	511	509	0	0	
7	0	0	0	0	513	509	0	0	
8	0	0	0	0	511	508	0	0	
9	0	0	0	0	513	508	0	0	
10	0	0	0	0	512	507	0	0	
11	0	0	0	0	512	507	0	0	
12	0	0	0	0	510	509	0	0	
13	0	0	0	0	510	507	0	0	
14	0	0	0	0	511	508	0	0	
15	0	0	0	0	515	510	0	0	
0	0	0	0	0	513	507	0	0	
1	0	0	0	0	511	508	0	0	
2	0	0	0	0	507	510	0	0	
3	0	0	0	0	510	506	0	0	
4	0	0	0	0	507	507	0	0	
5	0	0	0	0	509	509	0	0	
6	0	0	0	0	508	509	0	0	
7	0	0	0	0	508	508	0	0	
8	0	0	0	0	511	508	0	0	
9	0	0	0	0	510	508	0	0	
10	0	0	0	0	511	507	0	0	
11	0	0	0	0	511	508	0	0	
12	0	0	0	0	512	508	0	0	
13	0	0	0	0	513	508	0	0	
14	0	0	0	0	512	507	0	0	
15	0	0	0	0	513	507	0	0	
0	0	0	0	0	513	510	0	0	
1	0	0	0	0	511	508	0	0	
2	0	0	0	0	513	510	0	0	
3	0	0	0	0	510	508	0	0	
4	0	0	0	0	512	508	0	0	
5	0	0	0	0	509	508	0	0	
6	0	0	0	0	511	508	0	0	
7	0	0	0	0	509	508	0	0	
8	0	0	0	0	511	508	0	0	
9	0	0	0	0	508	507	0	0	
10	0	0	0	0	508	507	0	0	
11	0	0	0	0	512	507	0	0	
12	0	0	0	0	510	507	0	0	
13	0	0	0	0	510	509	0	0	
14	0	0	0	0	511	509	0	0	
15	0	0	0	0	511	508	0	0	
0	0	0	0	0	513	508	0	0	
1	0	0	0	0	513	508	0	0	
2	0	0	0	0	514	506	0	0	
3	0	0	0	0	512	509	0	0	
4	0	0	0	0	513	507	0	0	
5	0	0	0	0	511	509	0	0	
6	0	0	0	0	512	508	0	0	
7	0	0	0	0	509	508	0	0	
8	0	0	0	0	511	508	0	0	
9	0	0	0	0	510	507	0	0	
10	0	0	0	0	512	508	0	0	
11	0	0	0	0	510	509	0	0	
12	0	0	0	0	513	507	0	0	
13	0	0	0	0	511	508	0	0	
14	0	0	0	0	511	508	0	0	
15	0	0	0	0	511	508	0	0	
0	0	0	0	0	510	508	0	0	
1	0	0	0	0	510	508	0	0	
2	0	0	0	0	510	508	0	0	
3	0	0	0	0	510	508	0	0	
4	0	0	0	0	509	508	0	0	
5	0	0	0	0	511	507	0	0	
6	0	0	0	0	512	510	0	0	
7	0	0	0	0	512	508	0	0	
8	0	0	0	0	515	506	0	0	
9	0	0	0	0	516	507	0	0	
10	0	0	0	0	514	508	0	0	
11	0	0	0	0	514	508	0	0	
12	0	0	0	0	512	509	0	0	
13	0	0	0	0	510	508	0	0	
14	0	0	0	0	509	507	0	0	
15	0	0	0	0	509	509	0	0	
0	0	0	0	0	507	509	0	0	
1	0	0	0	0	509	508	0	0	
2	0	0	0	0	510	508	0	0	
3	0	0	0	0	511	507	0	0	
4	0	0	0	0	510	510	0	0	
5	0	0	0	0	511	508	0	0	
6	0	0	0	0	511	508	0	0	
7	0	0	0	0	511	507	0	0	
8	0	0	0	0	511	508	0	0	
9	0	0	0	0	511	509	0	0	
10	0	0	0	0	513	508	0	0	
11	0	0	0	0	510	507	0	0	
12	0	0	0	0	512	507	0	0	
13	0	0	0	0	511	508	0	0	
14	0	0	0	0	511	507	0	0	
15	0	0	0	0	513	508	0	0	
0	0	0	0	0	513	507	0	0	
1	0	0	0	0	511	509	0	0	
2	0	0	0	0	510	507	0	0	
3	0	0	0	0	509	507	0	0	
4	0	0	0	0	510	508	0	0	
5	0	0	0	0	508	508	0	0	
6	0	0	0	0	509	510	0	0	
7	0	0	0	0	508	507	0	0	
8	0	0	0	0	509	508	0	0	
9	0	0	0	0	511	508	0	0	
10	0	0	0	0	514	509	0	0	
11	0	0	0	0	513	508	0	0	
12	0	0	0	0	511	507	0	0	
13	0	0	0	0	511	507	0	0	
14	0	0	0	0	513	507	0	0	
15	0	0	0	0	512	509	0	0	
0	0	0	0	0	512	509	0	0	
1	0	0	0	0	511	508	0	0	
2	0	0	0	0	513	506	0	0	
3	0	0	0	0	512	508	0	0	
4	0	0	0	0	511	508	0	0	
5	0	0	0	0	512	508	0	0	
6	0	0	0	0	510	507	0	0	
7	0	0	0	0	509	509	0	0	
8	0	0	0	0	510	509	0	0	
9	0	0	0	0	509	508	0	0	
10	0	0	0	0	508	506	0	0	
11	0	0	0	0	509	507	0	0	
12	0	0	0	0	508	509	0	0	
13	0	0	0	0	511	507	0	0	
14	0	0	0	0	510	508	0	0	
15	0	0	0	0	511	507	0	0	
0	0	0	0	0	512	507	0	0	
1	0	0	0	0	511	508	0	0	
2	0	0	0	0	513	508	0	0	
3	0	0	0	0	513	508	0	0	
4	0	0	0	0	513	507	0	0	
5	0	0	0	0	513	509	0	0	
6	0	0	0	0	516	506	0	0	
7	0	0	0	0	512	509	0	0	
8	0	0	0	0	511	510	0	0	
9	0	0	0	0	511	507	0	0	
10	0	0	0	0	510	509	0	0	
11	0	0	0	0	511	507	0	0	
12	0	0	0	0	512	508	0	0	
13	0	0	0	0	511	507	0	0	
14	0	0	0	0	511	509	0	0	
15	0	0	0	0	510	508	0	0	
0	0	0	0	0	511	508	0	0	
1	0	0	0	0	511	508	0	0	
2	0	0	0	0	509	507	0	0	
3	0	0	0	0	499	507	0	0	
4	0	0	0	0	508	508	0	0	
5	0	0	0	0	510	508	0	0	
6	0	0	0	0	508	506	0	0	
7	0	0	0	0	513	505	0	0	
8	0	0	0	0	512	508	0	0	
9	0	0	0	0	514	506	0	0	
10	0	0	0	0	515	507	0	0	
11	0	0	0	0	515	507	0	0	
12	0	0	0	0	511	509	0	0	
13	0	0	0	0	513	508	0	0	
14	0	0	0	0	511	510	0	0	
15	0	0	0	0	510	509	0	0	
0	0	0	0	0	508	510	0	0	
1	0	0	0	0	511	508	0	0	
2	0	0	0	0	510	507	0	0	
3	0	0	0	0	509	508	0	0	
4	0	0	0	0	511	509	0	0	
5	0	0	0	0	511	508	0	0	
6	0	0	0	0	510	508	0	0	
7	0	0	0	0	511	508	0	0	
8	0	0	0	0	510	508	0	0	
9	0	0	0	0	511	508	0	0	
10	0	0	0	0	514	507	0	0	
11	0	0	0	0	513	508	0	0	
12	0	0	0	0	515	506	0	0	
13	0	0	0	0	515	508	0	0	
14	0	0	0	0	515	508	0	0	
15	0	0	0	0	510	508	0	0	
0	0	0	0	0	509	507	0	0	
1	0	0	0	0	508	510	0	0	
2	0	0	0	0	510	511	0	0	
3	0	0	0	0	510	507	0	0	
4	0	0	0	0	511	505	0	0	
5	0	0	0	0	511	506	0	0	
6	0	0	0	0	510	510	0	0	
7	0	0	0	0	510	507	0	0	
8	0	0	0	0	508	508	0	0	
9	0	0	0	0	511	508	0	0	
10	0	0	0	0	511	507	0	0	
11	0	0	0	0	512	508	0	0	
12	0	0	0	0	510	507	0	0	
13	0	0	0	0	511	510	0	0	
14	0	0	0	0	513	509	0	0	
15	0	0	0	0	518	510	0	0	
0	0	0	0	0	515	508	0	0	
1	0	0	0	0	511	508	0	0	
2	0	0	0	0	511	507	0	0	
3	0	0	0	0	512	508	0	0	
4	0	0	0	0	511	507	0	0	
5	0	0	0	0	511	506	0	0	
6	0	0	0	0	512	508	0	0	
7	0	0	0	0	510	507	0	0	
8	0	0	0	0	509	508	0	0	
9	0	0	0	0	508	508	0	0	
10	0	0	0	0	510	508	0	0	
11	0	0	0	0	510	509	0	0	
12	0	0	0	0	508	508	0	0	
13	0	0	0	0	511	508	0	0	
14	0	0	0	0	510	508	0	0	
15	0	0	0	0	512	507	0	0	
0	0	0	0	0	510	508	0	0	
1	0	0	0	0	512	508	0	0	
2	0	0	0	0	510	508	0	0	
3	0	0	0	0	513	508	0	0	
4	0	0	0	0	513	507	0	0	
5	0	0	0	0	511	509	0	0	
6	0	0	0	0	513	508	0	0	
7	0	0	0	0	513	508	0	0	
8	0	0	0	0	511	509	0	0	
9	0	0	0	0	511	508	0	0	
10	0	0	0	0	508	508	0	0	
11	0	0	0	0	511	507	0	0	
12	0	0	0	0	507	508	0	0	
13	0	0	0	0	510	507	0	0	
14	0	0	0	0	510	510	0	0	
15	0	0	0	0	512	508	0	0	
0	0	0	0	0	511	510	0	0	
1	0	0	0	0	510	509	0	0	
2	0	0	0	0	509	507	0	0	
3	0	0	0	0	512	506	0	0	
4	0	0	0	0	510	507	0	0	
5	0	0	0	0	513	507	0	0	
6	0	0	0	0	514	509	0	0	
7	0	0	0	0	514	509	0	0	
8	0	0	0	0	515	508	0	0	
9	0	0	0	0	512	508	0	0	
10	0	0	0	0	513	507	0	0	
11	0	0	0	0	512	507	0	0	
12	0	0	0	0	511	508	0	0	
13	0	0	0	0	510	508	0	0	
14	0	0	0	0	511	509	0	0	
15	0	0	0	0	512	509	0	0	
0	0	0	0	0	508	506	0	0	
1	0	0	0	0	507	507	0	0	
2	0	0	0	0	509	508	0	0	
3	0	0	0	0	510	509	0	0	
4	0	0	0	0	509	508	0	0	
5	0	0	0	0	511	508	0	0	
6	0	0	0	0	513	509	0	0	
7	0	0	0	0	511	507	0	0	
8	0	0	0	0	509	507	0	0	
9	0	0	0	0	510	508	0	0	
10	0	0	0	0	511	509	0	0	
11	0	0	0	0	513	508	0	0	
12	0	0	0	0	512	506	0	0	
13	0	0	0	0	512	507	0	0	
14	0	0	0	0	512	510	0	0	
15	0	0	0	0	512	505	0	0	
0	0	0	0	0	512	507	0	0	
1	0	0	0	0	512	509	0	0	
2	0	0	0	0	514	509	0	0	
3	0	0	0	0	513	507	0	0	
4	0	0	0	0	511	509	0	0	
5	0	0	0	0	511	507	0	0	
6	0	0	0	0	509	506	0	0	
7	0	0	0	0	506	507	0	0	
8	0	0	0	0	500	508	0	0	
9	0	0	0	0	505	507	0	0	
10	0	0	0	0	512	511	0	0	
11	0	0	0	0	511	507	0	0	
12	0	0	0	0	513	508	0	0	
13	0	0	0	0	513	510	0	0	
14	0	0	0	0	515	508	0	0	
15	0	0	0	0	515	505	0	0	
0	0	0	0	0	512	509	0	0	
1	0	0	0	0	512	508	0	0	
2	0	0	0	0	512	507	0	0	
3	0	0	0	0	512	508	0	0	
4	0	0	0	0	510	507	0	0	
5	0	0	0	0	511	509	0	0	
6	0	0	0	0	511	508	0	0	
7	0	0	0	0	511	507	0	0	
8	0	0	0	0	509	508	0	0	
9	0	0	0	0	507	509	0	0	
10	0	0	0	0	510	507	0	0	
11	0	0	0	0	513	508	0	0	
12	0	0	0	0	511	507	0	0	
13	0	0	0	0	511	507	0	0	
14	0	0	0	0	513	507	0	0	
15	0	0	0	0	514	507	0	0	
0	0	0	0	0	513	511	0	0	
1	0	0	0	0	512	508	0	0	
2	0	0	0	0	507	508	0	0	
3	0	0	0	0	510	509	0	0	
4	0	0	0	0	510	507	0	0	
5	0	0	0	0	512	509	0	0	
6	0	0	0	0	512	507	0	0	
7	0	0	0	0	511	506	0	0	
8	0	0	0	0	512	507	0	0	
9	0	0	0	0	512	509	0	0	
10	0	0	0	0	510	508	0	0	
11	0	0	0	0	510	508	0	0	
12	0	0	0	0	510	508	0	0	
13	0	0	0	0	509	507	0	0	
14	0	0	0	0	510	508	0	0	
15	0	0	0	0	510	505	0	0	
0	0	0	0	0	511	508	0	0	
1	0	0	0	0	510	508	0	0	
2	0	0	0	0	511	510	0	0	
3	0	0	0	0	511	508	0	0	
4	0	0	0	0	510	509	0	0	
5	0	0	0	0	514	506	0	0	
6	0	0	0	0	514	508	0	0	
7	0	0	0	0	514	509	0	0	
8	0	0	0	0	512	508	0	0	
9	0	0	0	0	513	508	0	0	
10	0	0	0	0	512	508	0	0	
11	0	0	0	0	512	508	0	0	
12	0	0	0	0	512	508	0	0	
13	0	0	0	0	510	507	0	0	
14	0	0	0	0	509	510	0	0	
15	0	0	0	0	510	508	0	0	
0	0	0	0	0	509	508	0	0	
1	0	0	0	0	507	509	0	0	
2	0	0	0	0	510	508	0	0	
3	0	0	0	0	511	507	0	0	
4	0	0	0	0	510	507	0	0	
5	0	0	0	0	509	508	0	0	
6	0	0	0	0	511	508	0	0	
7	0	0	0	0	512	507	0	0	
8	0	0	0	0	510	509	0	0	
9	0	0	0	0	510	507	0	0	
10	0	0	0	0	511	509	0	0	
11	0	0	0	0	511	506	0	0	
12	0	0	0	0	515	507	0	0	
13	0	0	0	0	517	507	0	0	
14	0	0	0	0	515	508	0	0	
15	0	0	0	0	511	508	0	0	
0	0	0	0	0	510	509	0	0	
1	0	0	0	0	510	507	0	0	
2	0	0	0	0	511	508	0	0	
3	0	0	0	0	510	507	0	0	
4	0	0	0	0	508	508	0	0	
5	0	0	0	0	511	508	0	0	
6	0	0	0	0	513	509	0	0	
7	0	0	0	0	510	507	0	0	
8	0	0	0	0	509	508	0	0	
9	0	0	0	0	508	509	0	0	
10	0	0	0	0	508	508	0	0	
11	0	0	0	0	511	508	0	0	
12	0	0	0	0	513	507	0	0	
13	0	0	0	0	511	508	0	0	
14	0	0	0	0	513	508	0	0	
15	0	0	0	0	514	508	0	0	
0	0	0	0	0	512	506	0	0	
1	0	0	0	0	513	508	0	0	
2	0	0	0	0	514	508	0	0	
3	0	0	0	0	512	508	0	0	
4	0	0	0	0	512	508	0	0	
5	0	0	0	0	510	508	0	0	
6	0	0	0	0	511	507	0	0	
7	0	0	0	0	509	508	0	0	
8	0	0	0	0	511	510	0	0	
9	0	0	0	0	510	509	0	0	
10	0	0	0	0	510	508	0	0	
11	0	0	0	0	511	508	0	0	
12	0	0	0	0	508	506	0	0	
13	0	0	0	0	511	509	0	0	
14	0	0	0	0	511	508	0	0	
15	0	0	0	0	514	506	0	0	
0	0	0	0	0	508	505	0	0	
1	0	0	0	0	507	507	0	0	
2	0	0	0	0	511	509	0	0	
3	0	0	0	0	513	508	0	0	
4	0	0	0	0	515	511	0	0	
5	0	0	0	0	514	508	0	0	
6	0	0	0	0	511	509	0	0	
7	0	0	0	0	512	507	0	0	
8	0	0	0	0	510	507	0	0	
9	0	0	0	0	512	506	0	0	
10	0	0	0	0	512	507	0	0	
11	0	0	0	0	509	507	0	0	
12	0	0	0	0	508	508	0	0	
13	0	0	0	0	508	509	0	0	
14	0	0	0	0	509	507	0	0	
15	0	0	0	0	508	507	0	0	
0	0	0	0	0	510	507	0	0	
1	0	0	0	0	510	507	0	0	
2	0	0	0	0	511	507	0	0	
3	0	0	0	0	512	509	0	0	
4	0	0	0	0	511	508	0	0	
5	0	0	0	0	512	507	0	0	
6	0	0	0	0	513	509	0	0	
7	0	0	0	0	517	507	0	0	
8	0	0	0	0	516	508	0	0	
9	0	0	0	0	514	509	0	0	
10	0	0	0	0	512	510	0	0	
11	0	0	0	0	511	510	0	0	
12	0	0	0	0	509	507	0	0	
13	0	0	0	0	511	508	0	0	
14	0	0	0	0	511	507	0	0	
15	0	0	0	0	510	509	0	0	
0	0	0	0	0	507	507	0	0	
1	0	0	0	0	508	509	0	0	
2	0	0	0	0	511	507	0	0	
3	0	0	0	0	509	507	0	0	
4	0	0	0	0	512	508	0	0	
5	0	0	0	0	512	508	0	0	
6	0	0	0	0	510	508	0	0	
7	0	0	0	0	510	507	0	0	
8	0	0	0	0	511	509	0	0	
9	0	0	0	0	512	506	0	0	
10	0	0	0	0	512	508	0	0	
11	0	0	0	0	514	510	0	0	
12	0	0	0	0	514	509	0	0	
13	0	0	0	0	513	509	0	0	
14	0	0	0	0	512	508	0	0	
15	0	0	0	0	511	507	0	0	
0	0	0	0	0	511	507	0	0	
1	0	0	0	0	509	507	0	0	
2	0	0	0	0	511	509	0	0	
3	0	0	0	0	509	507	0	0	
4	0	0	0	0	509	506	0	0	
5	0	0	0	0	512	508	0	0	
6	0	0	0	0	511	511	0	0	
7	0	0	0	0	510	507	0	0	
8	0	0	0	0	510	508	0	0	
9	0	0	0	0	509	508	0	0	
10	0	0	0	0	507	507	0	0	
11	0	0	0	0	511	507	0	0	
12	0	0	0	0	511	509	0	0	
13	0	0	0	0	512	509	0	0	
14	0	0	0	0	515	508	0	0	
15	0	0	0	0	516	508	0	0	
0	0	0	0	0	512	507	0	0	
1	0	0	0	0	512	508	0	0	
2	0	0	0	0	512	508	0	0	
3	0	0	0	0	514	508	0	0	
4	0	0	0	0	508	508	0	0	
5	0	0	0	0	510	509	0	0	
6	0	0	0	0	513	508	0	0	
7	0	0	0	0	509	508	0	0	
8	0	0	0	0	508	507	0	0	
9	0	0	0	0	510	507	0	0	
10	0	0	0	0	511	509	0	0	
11	0	0	0	0	509	508	0	0	
12	0	0	0	0	510	507	0	0	
13	0	0	0	0	510	507	0	0	
14	0	0	0	0	512	509	0	0	
15	0	0	0	0	509	508	0	0	
0	0	0	0	0	511	506	0	0	
1	0	0	0	0	511	507	0	0	
2	0	0	0	0	512	507	0	0	
3	0	0	0	0	511	507	0	0	
4	0	0	0	0	514	509	0	0	
5	0	0	0	0	512	508	0	0	
6	0	0	0	0	514	507	0	0	
7	0	0	0	0	515	507	0	0	
8	0	0	0	0	511	508	0	0	
9	0	0	0	0	510	507	0	0	
10	0	0	0	0	509	508	0	0	
11	0	0	0	0	510	508	0	0	
12	0	0	0	0	509	508	0	0	
13	0	0	0	0	509	508	0	0	
14	0	0	0	0	509	508	0	0	
15	0	0	0	0	511	507	0	0	
0	0	0	0	0	510	509	0	0	
1	0	0	0	0	508	509	0	0	
2	0	0	0	0	510	506	0	0	
3	0	0	0	0	512	508	0	0	
4	0	0	0	0	511	508	0	0	
5	0	0	0	0	511	509	0	0	
6	0	0	0	0	512	509	0	0	
7	0	0	0	0	513	508	0	0	
8	0	0	0	0	514	508	0	0	
9	0	0	0	0	513	507	0	0	
10	0	0	0	0	512	508	0	0	
11	0	0	0	0	516	508	0	0	
12	0	0	0	0	511	509	0	0	
13	0	0	0	0	511	510	0	0	
14	0	0	0	0	510	508	0	0	
15	0	0	0	0	508	507	0	0	
0	0	0	0	0	512	506	0	0	
1	0	0	0	0	508	509	0	0	
2	0	0	0	0	507	509	0	0	
3	0	0	0	0	509	508	0	0	
4	0	0	0	0	508	508	0	0	
5	0	0	0	0	511	508	0	0	
6	0	0	0	0	514	508	0	0	
7	0	0	0	0	512	508	0	0	
8	0	0	0	0	511	508	0	0	
9	0	0	0	0	511	508	0	0	
10	0	0	0	0	511	507	0	0	
11	0	0	0	0	515	507	0	0	
12	0	0	0	0	514	508	0	0	
13	0	0	0	0	513	509	0	0	
14	0	0	0	0	513	506	0	0	
15	0	0	0	0	511	508	0	0	
0	0	0	0	0	514	508	0	0	
1	0	0	0	0	513	508	0	0	
2	0	0	0	0	510	512	0	0	
3	0	0	0	0	508	508	0	0	
4	0	0	0	0	509	508	0	0	
5	0	0	0	0	503	507	0	0	
6	0	0	0	0	504	507	0	0	
7	0	0	0	0	507	507	0	0	
8	0	0	0	0	508	509	0	0	
9	0	0	0	0	511	508	0	0	
10	0	0	0	0	514	508	0	0	
11	0	0	0	0	512	507	0	0	
12	0	0	0	0	511	508	0	0	
13	0	0	0	0	513	507	0	0	
14	0	0	0	0	512	508	0	0	
15	0	0	0	0	513	509	0	0	
0	0	0	0	0	513	507	0	0	
1	0	0	0	0	514	507	0	0	
2	0	0	0	0	516	510	0	0	
3	0	0	0	0	512	509	0	0	
4	0	0	0	0	508	507	0	0	
5	0	0	0	0	509	508	0	0	
6	0	0	0	0	507	509	0	0	
7	0	0	0	0	511	507	0	0	
8	0	0	0	0	511	508	0	0	
9	0	0	0	0	514	508	0	0	
10	0	0	0	0	512	508	0	0	
11	0	0	0	0	510	508	0	0	
12	0	0	0	0	508	507	0	0	
13	0	0	0	0	509	506	0	0	
14	0	0	0	0	511	509	0	0	
15	0	0	0	0	510	507	0	0	
0	0	0	0	0	510	508	0	0	
1	0	0	0	0	510	508	0	0	
2	0	0	0	0	512	509	0	0	
3	0	0	0	0	513	507	0	0	
4	0	0	0	0	512	508	0	0	
5	0	0	0	0	513	509	0	0	
6	0	0	0	0	513	509	0	0	
7	0	0	0	0	512	507	0	0	
8	0	0	0	0	514	508	0	0	
9	0	0	0	0	515	509	0	0	
10	0	0	0	0	515	508	0	0	
11	0	0	0	0	509	509	0	0	
12	0	0	0	0	507	509	0	0	
13	0	0	0	0	508	510	0	0	
14	0	0	0	0	500	507	0	0	
15	0	0	0	0	497	509	0	0	
0	0	0	0	0	508	506	0	0	
1	0	0	0	0	508	508	0	0	
2	0	0	0	0	513	508	0	0	
3	0	0	0	0	517	508	0	0	
4	0	0	0	0	514	508	0	0	
5	0	0	0	0	515	509	0	0	
6	0	0	0	0	514	509	0	0	
7	0	0	0	0	513	507	0	0	
8	0	0	0	0	514	508	0	0	
9	0	0	0	0	512	509	0	0	
10	0	0	0	0	512	509	0	0	
11	0	0	0	0	511	508	0	0	
12	0	0	0	0	510	508	0	0	
13	0	0	0	0	508	507	0	0	
14	0	0	0	0	512	507	0	0	
15	0	0	0	0	508	508	0	0	
0	0	0	0	0	507	508	0	0	
1	0	0	0	0	508	509	0	0	
2	0	0	0	0	507	508	0	0	
3	0	0	0	0	512	507	0	0	
4	0	0	0	0	518	509	0	0	
5	0	0	0	0	514	507	0	0	
6	0	0	0	0	516	509	0	0	
7	0	0	0	0	513	508	0	0	
8	0	0	0	0	512	507	0	0	
9	0	0	0	0	511	507	0	0	
10	0	0	0	0	511	508	0	0	
11	0	0	0	0	510	509	0	0	
12	0	0	0	0	509	508	0	0	
13	0	0	0	0	507	508	0	0	
14	0	0	0	0	508	508	0	0	
15	0	0	0	0	508	507	0	0	
0	0	0	0	0	507	507	0	0	
1	0	0	0	0	505	509	0	0	
2	0	0	0	0	510	508	0	0	
3	0	0	0	0	513	509	0	0	
4	0	0	0	0	518	508	0	0	
5	0	0	0	0	520	509	0	0	
6	0	0	0	0	515	507	0	0	
7	0	0	0	0	513	509	0	0	
8	0	0	0	0	523	509	0	0	
9	0	0	0	0	526	507	0	0	
10	0	0	0	0	513	507	0	0	
11	0	0	0	0	509	509	0	0	
12	0	0	0	0	508	508	0	0	
13	0	0	0	0	503	508	0	0	
14	0	0	0	0	506	506	0	0	
15	0	0	0	0	508	507	0	0	
0	0	0	0	0	511	507	0	0	
1	0	0	0	0	511	507	0	0	
2	0	0	0	0	510	509	0	0	
3	0	0	0	0	514	507	0	0	
4	0	0	0	0	512	511	0	0	
5	0	0	0	0	511	507	0	0	
6	0	0	0	0	512	506	0	0	
7	0	0	0	0	510	508	0	0	
8	0	0	0	0	508	510	0	0	
9	0	0	0	0	499	508	0	0	
10	0	0	0	0	504	508	0	0	
11	0	0	0	0	508	507	0	0	
12	0	0	0	0	508	508	0	0	
13	0	0	0	0	508	507	0	0	
14	0	0	0	0	510	510	0	0	
15	0	0	0	0	513	508	0	0	
0	0	0	0	0	514	508	0	0	
1	0	0	0	0	514	508	0	0	
2	0	0	0	0	511	508	0	0	
3	0	0	0	0	515	506	0	0	
4	0	0	0	0	513	508	0	0	
5	0	0	0	0	514	509	0	0	
6	0	0	0	0	514	508	0	0	
7	0	0	0	0	511	508	0	0	
8	0	0	0	0	512	508	0	0	
9	0	0	0	0	510	508	0	0	
10	0	0	0	0	512	510	0	0	
11	0	0	0	0	508	508	0	0	
12	0	0	0	0	508	507	0	0	
13	0	0	0	0	508	508	0	0	
14	0	0	0	0	508	508	0	0	
15	0	0	0	0	508	508	0	0	
0	0	0	0	0	509	508	0	0	
1	0	0	0	0	512	506	0	0	
2	0	0	0	0	511	509	0	0	
3	0	0	0	0	512	507	0	0	
4	0	0	0	0	514	509	0	0	
5	0	0	0	0	516	510	0	0	
6	0	0	0	0	513	507	0	0	
7	0	0	0	0	510	506	0	0	
8	0	0	0	0	512	509	0	0	
9	0	0	0	0	512	510	0	0	
10	0	0	0	0	515	507	0	0	
11	0	0	0	0	514	508	0	0	
12	0	0	0	0	513	508	0	0	
13	0	0	0	0	512	507	0	0	
14	0	0	0	0	511	506	0	0	
15	0	0	0	0	511	507	0	0	
0	0	0	0	0	511	508	0	0	
1	0	0	0	0	511	511	0	0	
2	0	0	0	0	509	508	0	0	
3	0	0	0	0	510	508	0	0	
4	0	0	0	0	508	508	0	0	
5	0	0	0	0	508	507	0	0	
6	0	0	0	0	511	507	0	0	
7	0	0	0	0	511	507	0	0	
8	0	0	0	0	511	509	0	0	
9	0	0	0	0	514	507	0	0	
10	0	0	0	0	518	507	0	0	
11	0	0	0	0	510	508	0	0	
12	0	0	0	0	510	510	0	0	
13	0	0	0	0	515	509	0	0	
14	0	0	0	0	512	508	0	0	
15	0	0	0	0	513	507	0	0	
0	0	0	0	0	511	504	0	0	
1	0	0	0	0	510	507	0	0	
2	0	0	0	0	500	508	0	0	
3	0	0	0	0	502	508	0	0	
4	0	0	0	0	507	508	0	0	
5	0	0	0	0	514	507	0	0	
6	0	0	0	0	513	509	0	0	
7	0	0	0	0	509	506	0	0	
8	0	0	0	0	509	508	0	0	
9	0	0	0	0	507	507	0	0	
10	0	0	0	0	510	507	0	0	
11	0	0	0	0	513	509	0	0	
12	0	0	0	0	520	509	0	0	
13	0	0	0	0	518	509	0	0	
14	0	0	0	0	518	508	0	0	
15	0	0	0	0	511	508	0	0	
0	0	0	0	0	511	508	0	0	
1	0	0	0	0	510	507	0	0	
2	0	0	0	0	510	509	0	0	
3	0	0	0	0	511	508	0	0	
4	0	0	0	0	510	507	0	0	
5	0	0	0	0	511	507	0	0	
6	0	0	0	0	509	508	0	0	
7	0	0	0	0	509	508	0	0	
8	0	0	0	0	511	508	0	0	
9	0	0	0	0	510	508	0	0	
10	0	0	0	0	509	510	0	0	
11	0	0	0	0	510	509	0	0	
12	0	0	0	0	507	508	0	0	
13	0	0	0	0	508	509	0	0	
14	0	0	0	0	510	507	0	0	
15	0	0	0	0	511	507	0	0	
0	0	0	0	0	511	506	0	0	
1	0	0	0	0	512	509	0	0	
2	0	0	0	0	513	509	0	0	
3	0	0	0	0	513	508	0	0	
4	0	0	0	0	514	508	0	0	
5	0	0	0	0	513	507	0	0	
6	0	0	0	0	512	509	0	0	
7	0	0	0	0	512	509	0	0	
8	0	0	0	0	511	508	0	0	
9	0	0	0	0	511	508	0	0	
10	0	0	0	0	512	506	0	0	
11	0	0	0	0	511	507	0	0	
12	0	0	0	0	508	507	0	0	
13	0	0	0	0	510	509	0	0	
14	0	0	0	0	510	505	0	0	
15	0	0	0	0	509	509	0	0	
0	0	0	0	0	509	508	0	0	
1	0	0	0	0	509	508	0	0	
2	0	0	0	0	511	508	0	0	
3	0	0	0	0	511	510	0	0	
4	0	0	0	0	512	508	0	0	
5	0	0	0	0	511	506	0	0	
6	0	0	0	0	512	509	0	0	
7	0	0	0	0	516	510	0	0	
8	0	0	0	0	512	507	0	0	
9	0	0	0	0	515	508	0	0	
10	0	0	0	0	511	507	0	0	
11	0	0	0	0	503	506	0	0	
12	0	0	0	0	508	508	0	0	
13	0	0	0	0	510	509	0	0	
14	0	0	0	0	508	507	0	0	
15	0	0	0	0	508	508	0	0	
0	0	0	0	0	510	508	0	0	
1	0	0	0	0	511	508	0	0	
2	0	0	0	0	508	509	0	0	
3	0	0	0	0	503	508	0	0	
4	0	0	0	0	512	506	0	0	
5	0	0	0	0	510	507	0	0	
6	0	0	0	0	508	510	0	0	
7	0	0	0	0	509	507	0	0	
8	0	0	0	0	516	508	0	0	
9	0	0	0	0	520	508	0	0	
10	0	0	0	0	520	509	0	0	
11	0	0	0	0	515	508	0	0	
12	0	0	0	0	505	508	0	0	
13	0	0	0	0	507	508	0	0	
14	0	0	0	0	510	508	0	0	
15	0	0	0	0	514	507	0	0	
0	0	0	0	0	514	507	0	0	
1	0	0	0	0	527	510	0	0	
2	0	0	0	0	527	508	0	0	
3	0	0	0	0	508	508	0	0	
4	0	0	0	0	504	508	0	0	
5	0	0	0	0	506	506	0	0	
6	0	0	0	0	504	507	0	0	
7	0	0	0	0	507	507	0	0	
8	0	0	0	0	509	509	0	0	
9	0	0	0	0	505	508	0	0	
10	0	0	0	0	511	507	0	0	
11	0	0	0	0	510	506	0	0	
12	0	0	0	0	511	507	0	0	
13	0	0	0	0	513	509	0	0	
14	0	0	0	0	511	510	0	0	
15	0	0	0	0	512	508	0	0	
0	0	0	0	0	505	509	0	0	
1	0	0	0	0	505	507	0	0	
2	0	0	0	0	509	508	0	0	
3	0	0	0	0	509	508	0	0	
4	0	0	0	0	513	508	0	0	
5	0	0	0	0	518	509	0	0	
6	0	0	0	0	515	507	0	0	
7	0	0	0	0	519	509	0	0	
8	0	0	0	0	512	507	0	0	
9	0	0	0	0	499	509	0	0	
10	0	0	0	0	505	509	0	0	
11	0	0	0	0	504	509	0	0	
12	0	0	0	0	515	507	0	0	
13	0	0	0	0	515	507	0	0	
14	0	0	0	0	514	508	0	0	
15	0	0	0	0	511	508	0	0	
0	0	0	0	0	510	505	0	0	
1	0	0	0	0	513	508	0	0	
2	0	0	0	0	513	508	0	0	
3	0	0	0	0	511	506	0	0	
4	0	0	0	0	511	508	0	0	
5	0	0	0	0	511	508	0	0	
6	0	0	0	0	511	508	0	0	
7	0	0	0	0	514	508	0	0	
8	0	0	0	0	513	508	0	0	
9	0	0	0	0	508	508	0	0	
10	0	0	0	0	510	507	0	0	
11	0	0	0	0	511	507	0	0	
12	0	0	0	0	513	508	0	0	
13	0	0	0	0	511	510	0	0	
14	0	0	0	0	510	507	0	0	
15	0	0	0	0	510	509	0	0	
0	0	0	0	0	508	507	0	0	
1	0	0	0	0	510	509	0	0	
2	0	0	0	0	512	508	0	0	
3	0	0	0	0	510	508	0	0	
4	0	0	0	0	508	508	0	0	
5	0	0	0	0	508	506	0	0	
6	0	0	0	0	513	505	0	0	
7	0	0	0	0	516	508	0	0	
8	0	0	0	0	511	510	0	0	
9	0	0	0	0	510	508	0	0	
10	0	0	0	0	510	509	0	0	
11	0	0	0	0	512	509	0	0	
12	0	0	0	0	510	508	0	0	
13	0	0	0	0	512	509	0	0	
14	0	0	0	0	513	507	0	0	
15	0	0	0	0	511	508	0	0	
0	0	0	0	0	509	509	0	0	
1	0	0	0	0	509	509	0	0	
2	0	0	0	0	512	509	0	0	
3	0	0	0	0	512	507	0	0	
4	0	0	0	0	509	506	0	0	
5	0	0	0	0	506	507	0	0	
6	0	0	0	0	510	508	0	0	
7	0	0	0	0	512	508	0	0	
8	0	0	0	0	511	508	0	0	
9	0	0	0	0	515	508	0	0	
10	0	0	0	0	515	507	0	0	
11	0	0	0	0	516	507	0	0	
12	0	0	0	0	515	507	0	0	
13	0	0	0	0	503	508	0	0	
14	0	0	0	0	502	508	0	0	
15	0	0	0	0	504	507	0	0	
0	0	0	0	0	507	509	0	0	
1	0	0	0	0	511	508	0	0	
2	0	0	0	0	509	506	0	0	
3	0	0	0	0	515	507	0	0	
4	0	0	0	0	517	507	0	0	
5	0	0	0	0	528	510	0	0	
6	0	0	0	0	514	508	0	0	
7	0	0	0	0	501	508	0	0	
8	0	0	0	0	496	507	0	0	
9	0	0	0	0	504	508	0	0	
10	0	0	0	0	529	509	0	0	
11	0	0	0	0	529	507	0	0	
12	0	0	0	0	529	509	0	0	
13	0	0	0	0	519	508	0	0	
14	0	0	0	0	508	509	0	0	
15	0	0	0	0	504	508	0	0	
0	0	0	0	0	504	508	0	0	
1	0	0	0	0	503	507	0	0	
2	0	0	0	0	501	507	0	0	
3	0	0	0	0	503	507	0	0	
4	0	0	0	0	513	508	0	0	
5	0	0	0	0	526	510	0	0	
6	0	0	0	0	523	509	0	0	
7	0	0	0	0	521	509	0	0	
8	0	0	0	0	513	510	0	0	
9	0	0	0	0	508	506	0	0	
10	0	0	0	0	507	508	0	0	
11	0	0	0	0	500	507	0	0	
12	0	0	0	0	499	508	0	0	
13	0	0	0	0	504	508	0	0	
14	0	0	0	0	506	506	0	0	
15	0	0	0	0	510	506	0	0	
0	0	0	0	0	510	508	0	0	
1	0	0	0	0	510	508	0	0	
2	0	0	0	0	513	508	0	0	
3	0	0	0	0	514	506	0	0	
4	0	0	0	0	513	508	0	0	
5	0	0	0	0	511	508	0	0	
6	0	0	0	0	510	508	0	0	
7	0	0	0	0	511	507	0	0	
8	0	0	0	0	508	507	0	0	
9	0	0	0	0	510	507	0	0	
10	0	0	0	0	516	508	0	0	
11	0	0	0	0	511	512	0	0	
12	0	0	0	0	523	509	0	0	
13	0	0	0	0	514	510	0	0	
14	0	0	0	0	511	509	0	0	
15	0	0	0	0	523	507	0	0	
0	0	0	0	0	510	509	0	0	
1	0	0	0	0	502	506	0	0	
2	0	0	0	0	502	508	0	0	
3	0	0	0	0	504	512	0	0	
4	0	0	0	0	507	512	0	0	
5	0	0	0	0	498	510	0	0	
6	0	0	0	0	503	506	0	0	
7	0	0	0	0	511	505	0	0	
8	0	0	0	0	520	501	0	0	
9	0	0	0	0	499	504	0	0	
10	0	0	0	0	496	505	0	0	
11	0	0	0	0	541	507	0	0	
12	0	0	0	0	555	510	0	0	
13	0	0	0	0	526	511	0	0	
14	0	0	0	0	515	508	0	0	
15	0	0	0	0	511	508	0	0	
0	0	0	0	0	512	509	0	0	
1	0	0	0	0	521	510	0	0	
2	0	0	0	0	496	510	0	0	
3	0	0	0	0	490	510	0	0	
4	0	0	0	0	499	510	0	0	
5	0	0	0	0	504	510	0	0	
6	0	0	0	0	506	509	0	0	
7	0	0	0	0	512	507	0	0	
8	0	0	0	0	521	506	0	0	
9	0	0	0	0	531	507	0	0	
10	0	0	0	0	513	504	0	0	
11	0	0	0	0	505	501	0	0	
12	0	0	0	0	502	503	0	0	
13	0	0	0	0	503	511	0	0	
14	0	0	0	0	505	511	0	0	
15	0	0	0	0	511	512	0	0	
0	0	0	0	0	505	510	0	0	
1	0	0	0	0	502	507	0	0	
2	0	0	0	0	496	508	0	0	
3	0	0	0	0	500	504	0	0	
4	0	0	0	0	518	505	0	0	
5	0	0	0	0	536	510	0	0	
6	0	0	0	0	525	512	0	0	
7	0	0	0	0	522	509	0	0	
8	0	0	0	0	510	508	0	0	
9	0	0	0	0	496	506	0	0	
10	0	0	0	0	499	505	0	0	
11	0	0	0	0	497	505	0	0	
12	0	0	0	0	504	505	0	0	
13	0	0	0	0	511	511	0	0	
14	0	0	0	0	535	507	0	0	
15	0	0	0	0	563	508	0	0	
0	0	0	0	0	535	510	0	0	
1	0	0	0	0	521	512	0	0	
2	0	0	0	0	504	510	0	0	
3	0	0	0	0	490	508	0	0	
4	0	0	0	0	501	510	0	0	
5	0	0	0	0	504	513	0	0	
6	0	0	0	0	502	513	0	0	
7	0	0	0	0	500	507	0	0	
8	0	0	0	0	508	507	0	0	
9	0	0	0	0	518	504	0	0	
10	0	0	0	0	500	503	0	0	
11	0	0	0	0	505	501	0	0	
12	0	0	0	0	491	501	0	0	
13	0	0	0	0	486	502	0	0	
14	0	0	0	0	500	508	0	0	
15	0	0	0	0	540	509	0	0	
0	0	0	0	0	566	512	0	0	
1	0	0	0	0	561	515	0	0	
2	0	0	0	0	524	513	0	0	
3	0	0	0	0	502	508	0	0	
4	0	0	0	0	497	510	0	0	
5	0	0	0	0	490	506	0	0	
6	0	0	0	0	496	505	0	0	
7	0	0	0	0	515	509	0	0	
8	0	0	0	0	500	508	0	0	
9	0	0	0	0	497	508	0	0	
10	0	0	0	0	498	508	1	0	
11	0	0	0	0	507	506	2	0	
12	0	0	0	0	513	505	2	0	
13	0	0	0	0	508	506	2	0	
14	0	0	0	0	518	506	2	0	
15	0	0	0	0	510	508	20	0	
0	0	0	0	0	505	512	19	0	
1	0	0	0	0	505	507	19	0	
2	0	0	0	0	514	507	23	0	
3	0	0	0	0	509	508	24	0	
4	0	0	0	0	496	506	25	0	
5	0	0	0	0	503	507	26	0	
6	0	0	0	0	534	508	29	0	
7	0	0	0	0	545	511	31	0	
8	0	0	0	0	551	512	24	0	
9	0	0	0	0	515	510	23	0	
10	0	0	0	0	501	508	17	0	
11	0	0	0	0	501	509	19	0	
12	0	0	0	0	501	508	27	0	
13	0	0	0	0	495	510	19	0	
14	0	0	0	0	491	515	22	0	
15	0	0	0	0	495	514	27	0	
0	0	0	0	0	507	511	29	0	
1	0	0	0	0	523	508	18	0	
2	0	0	0	0	519	499	19	0	
3	0	0	0	0	504	497	23	0	
4	0	0	0	0	525	495	22	0	
5	0	0	0	0	497	495	28	0	
6	0	0	0	0	473	504	30	0	
7	0	0	0	0	467	513	28	0	
8	0	0	0	0	492	516	28	0	
9	0	0	0	0	607	515	31	0	
10	0	0	0	0	546	514	31	0	
11	0	0	0	0	505	512	30	0	
12	0	0	0	0	509	508	31	0	
13	0	0	0	0	516	502	33	0	
14	0	0	0	0	557	510	34	0	
15	0	0	0	0	531	513	38	0	
0	0	0	0	0	487	513	38	0	
1	0	0	0	0	472	507	45	0	
2	0	0	0	0	497	506	44	0	
3	0	0	0	0	508	495	42	0	
4	0	0	0	0	500	504	47	0	
5	0	0	0	0	512	511	47	0	
6	0	0	0	0	549	516	51	0	
7	0	0	0	0	561	511	47	0	
8	0	0	0	0	541	511	49	0	
9	0	0	0	0	507	501	49	0	
10	0	0	0	0	491	492	51	0	
11	0	0	0	0	486	495	51	0	
12	0	0	0	0	455	502	51	0	
13	0	0	0	0	455	507	52	0	
14	0	0	0	0	469	508	51	0	
15	0	0	0	0	480	513	56	0	
0	0	0	0	0	513	516	58	0	
1	0	0	0	0	595	508	62	0	
2	0	0	0	0	632	501	61	0	
3	0	0	0	0	558	511	60	0	
4	0	0	0	0	497	515	66	0	
5	0	0	0	0	486	515	64	0	
6	0	0	0	0	468	511	69	0	
7	0	0	0	0	495	507	72	0	
8	0	0	0	0	521	512	73	0	
9	0	0	0	0	547	521	72	0	
10	0	0	0	0	501	521	78	0	
11	0	0	0	0	458	518	77	0	
12	0	0	0	0	470	508	78	0	
13	0	0	0	0	494	504	80	0	
14	0	0	0	0	489	500	80	0	
15	0	0	0	0	497	487	80	0	
0	0	0	0	0	560	486	81	0	
1	0	0	0	0	566	495	84	0	
2	0	0	0	0	510	509	91	0	
3	0	0	0	0	475	510	90	0	
4	0	0	0	0	466	531	90	0	
5	0	0	0	0	498	530	89	0	
6	0	0	0	0	555	524	91	0	
7	0	0	0	0	615	514	95	0	
8	0	0	0	0	560	506	95	0	
9	0	0	0	0	489	492	99	0	
10	0	0	0	0	491	480	98	0	
11	0	0	0	0	505	479	99	0	
12	0	0	0	0	515	496	100	0	
13	0	0	0	0	540	512	102	0	
14	0	0	0	0	537	520	105	0	
15	0	0	0	0	492	519	107	0	
0	0	0	0	0	473	518	107	0	
1	0	0	0	0	473	519	111	0	
2	0	0	0	0	487	514	111	0	
3	0	0	0	0	455	513	112	0	
4	0	0	0	0	433	504	112	0	
5	0	0	0	0	419	496	113	0	
6	0	0	0	0	452	508	115	0	
7	0	0	0	0	486	511	115	0	
8	0	0	0	0	545	502	118	0	
9	0	0	0	0	616	504	118	0	
10	0	0	0	0	636	524	118	0	
11	0	0	0	0	642	519	119	0	
12	0	0	0	0	578	506	121	0	
13	0	0	0	0	509	503	120	0	
14	0	0	0	0	491	500	123	0	
15	0	0	0	0	471	493	123	0	
0	0	0	0	0	462	504	124	0	
1	0	0	0	0	487	506	124	0	
2	0	0	0	0	513	515	128	0	
3	0	0	0	0	512	517	129	0	
4	0	0	0	0	522	513	128	0	
5	0	0	0	0	519	512	130	0	
6	0	0	0	0	492	510	130	0	
7	0	0	0	0	481	509	138	0	
8	0	0	0	0	531	514	140	0	
9	0	0	0	0	510	508	142	0	
10	0	0	0	0	483	510	142	0	
11	0	0	0	0	464	503	142	0	
12	0	0	0	0	470	502	141	0	
13	0	0	0	0	508	500	143	0	
14	0	0	0	0	559	500	143	1	
15	0	0	0	0	546	506	145	2	
0	0	0	0	0	539	507	146	2	
1	0	0	0	0	508	506	151	2	
2	0	0	0	0	436	496	153	2	
3	0	0	0	0	425	502	150	2	
4	0	0	0	0	471	502	153	2	
5	0	0	0	0	491	503	156	2	
6	0	0	0	0	519	498	165	2	
7	0	0	0	0	573	513	191	3	
8	0	0	0	0	617	507	193	3	
9	0	0	0	0	664	513	195	3	
10	0	0	0	0	656	531	200	4	
11	0	0	0	0	505	547	207	5	
12	0	0	0	0	445	524	203	4	
13	0	0	0	0	441	508	205	6	
14	0	0	0	0	417	497	208	7	
15	0	0	0	0	397	507	209	7	
0	0	0	0	0	480	504	210	7	
1	0	0	0	0	516	500	212	7	
2	0	0	0	0	483	496	211	8	
3	0	0	0	0	538	496	212	6	
4	0	0	0	0	660	499	213	6	
5	0	0	0	0	632	496	214	7	
6	0	0	0	0	568	501	216	11	
7	0	0	0	0	527	505	219	14	
8	0	0	0	0	494	519	220	13	
9	0	0	0	0	491	522	222	14	
10	0	0	0	0	464	512	223	14	
11	0	0	0	0	476	510	224	15	
12	0	0	0	0	487	511	225	15	
13	0	0	0	0	460	509	226	15	
14	0	0	0	0	491	505	226	14	
15	0	0	0	0	469	505	230	15	
0	0	0	0	0	458	507	229	17	
1	0	0	0	0	497	512	228	16	
2	0	0	0	0	471	511	227	19	
3	0	0	0	0	468	504	225	24	
4	0	0	0	0	507	513	226	23	
5	0	0	0	0	496	520	225	18	
6	0	0	0	0	601	521	226	26	
7	0	0	0	0	609	516	227	28	
8	0	0	0	0	559	510	228	28	
9	0	0	0	0	481	507	230	37	
10	0	0	0	0	462	513	230	33	
11	0	0	0	0	486	495	232	24	
12	0	0	0	0	517	496	231	33	
13	0	0	0	0	556	501	231	21	
14	0	0	0	0	605	513	231	31	
15	0	0	0	0	542	511	232	20	
0	0	0	0	0	510	503	233	26	
1	0	0	0	0	459	498	233	26	
2	0	0	0	0	476	510	233	27	
3	0	0	0	0	527	515	234	33	
4	0	0	0	0	551	502	235	37	
5	0	0	0	0	554	504	235	32	
6	0	0	0	0	473	508	238	35	
7	0	0	0	0	423	503	236	37	
8	0	0	0	0	439	501	234	39	
9	0	0	0	0	514	505	234	41	
10	0	0	0	0	574	518	232	35	
11	0	0	0	0	563	514	233	42	
12	0	0	0	0	534	516	233	41	
13	0	0	0	0	541	515	232	39	
14	0	0	0	0	531	514	233	37	
15	0	0	0	0	490	502	232	36	
0	0	0	0	0	471	487	232	41	
1	0	0	0	0	472	499	233	41	
2	0	0	0	0	456	507	233	42	
3	0	0	0	0	480	509	235	41	
4	0	0	0	0	521	509	233	43	
5	0	0	0	0	542	516	233	44	
6	0	0	0	0	481	519	235	46	
7	0	0	0	0	472	511	233	46	
8	0	0	0	0	507	508	231	49	
9	0	0	0	0	560	505	232	53	
10	0	0	0	0	556	507	233	58	
11	0	0	0	0	526	512	235	61	
12	0	0	0	0	503	508	236	56	
13	0	0	0	0	501	503	236	59	
14	0	0	0	0	632	514	235	59	
15	0	0	0	0	571	522	235	58	
0	0	0	0	0	538	520	235	63	
1	0	0	0	0	485	516	237	61	
2	0	0	0	0	501	508	235	64	
3	0	0	0	0	512	481	234	65	
4	0	0	0	0	511	472	233	71	
5	0	0	0	0	515	472	232	77	
6	0	0	0	0	498	495	234	85	
7	0	0	0	0	476	515	234	86	
8	0	0	0	0	470	515	233	91	
9	0	0	0	0	469	515	231	95	
10	0	0	0	0	476	515	230	96	
11	0	0	0	0	498	515	234	103	
12	0	0	0	0	528	517	234	104	
13	0	0	0	0	506	509	235	106	
14	0	0	0	0	502	506	236	106	
15	0	0	0	0	467	503	232	103	
0	0	0	0	0	488	508	237	103	
1	0	0	0	0	547	511	237	101	
2	0	0	0	0	576	515	237	94	
3	0	0	0	0	603	523	237	91	
4	0	0	0	0	524	515	237	97	
5	0	0	0	0	485	513	240	103	
6	0	0	0	0	462	504	235	101	
7	0	0	0	0	437	507	235	98	
8	0	0	0	0	455	518	236	99	
9	0	0	0	0	485	527	236	98	
10	0	0	0	0	541	519	239	104	
11	0	0	0	0	603	512	239	107	
12	0	0	0	0	559	496	236	109	
13	0	0	0	0	553	488	239	107	
14	0	0	0	0	518	480	240	107	
15	0	0	0	0	496	488	240	110	
0	0	0	0	0	491	507	240	111	
1	0	0	0	0	499	514	240	111	
2	0	0	0	0	494	514	240	113	
3	0	0	0	0	472	510	245	113	
4	0	0	0	0	473	502	255	113	
5	0	0	0	0	478	511	253	114	
6	0	0	0	0	483	511	255	115	
7	0	0	0	0	504	507	253	115	
8	0	0	0	0	526	507	251	116	
9	0	0	0	0	535	504	251	117	
10	0	0	0	0	566	509	250	117	
11	0	0	0	0	536	518	251	116	
12	0	0	0	0	504	518	252	118	
13	0	0	0	0	557	520	252	118	
14	0	0	0	0	467	519	252	119	
15	0	0	0	0	462	508	251	118	
0	0	0	0	0	496	498	252	121	
1	0	0	0	0	503	496	255	119	
2	0	0	0	0	493	499	256	120	
3	0	0	0	0	550	504	255	121	
4	0	0	0	0	564	510	255	124	
5	0	0	0	0	561	515	254	126	
6	0	0	0	0	534	515	251	129	
7	0	0	0	0	577	517	252	129	
8	0	0	0	0	536	514	252	128	
9	0	0	0	0	519	516	251	131	
10	0	0	0	0	481	505	247	133	
11	0	0	0	0	441	490	245	133	
12	0	0	0	0	433	496	245	135	
13	0	0	0	0	459	511	244	133	
14	0	0	0	0	497	519	243	133	
15	0	0	0	0	545	518	243	133	
0	0	0	0	0	525	500	243	131	
1	0	0	0	0	481	491	244	127	
2	0	0	0	0	455	504	247	127	
3	0	0	0	0	471	496	248	127	
4	0	0	0	0	593	490	248	127	
5	0	0	0	0	644	516	247	130	
6	0	0	0	0	621	518	245	129	
7	0	0	0	0	509	511	245	133	
8	0	0	0	0	472	519	245	135	
9	0	0	0	0	473	513	246	138	
10	0	0	0	0	492	507	245	137	
11	0	0	0	0	509	512	244	139	
12	0	0	0	0	521	509	243	138	
13	0	0	0	0	518	504	244	137	
14	0	0	0	0	500	504	245	137	
15	0	0	0	0	483	507	244	138	
0	0	0	0	0	485	511	244	140	
1	0	0	0	0	487	511	242	139	
2	0	0	0	0	499	509	242	140	
3	0	0	0	0	543	514	242	137	
4	0	0	0	0	508	506	240	137	
5	0	0	0	0	478	504	239	135	
6	0	0	0	0	457	504	240	135	
7	0	0	0	0	471	507	240	135	
8	0	0	0	0	471	501	240	134	
9	0	0	0	0	575	508	241	134	
10	0	0	0	0	571	511	239	135	
11	0	0	0	0	583	513	240	136	
12	0	0	0	0	489	509	240	136	
13	0	0	0	0	454	515	240	137	
14	0	0	0	0	465	509	242	138	
15	0	0	0	0	521	507	242	139	
0	0	0	0	0	550	508	242	139	
1	0	0	0	0	503	503	241	140	
2	0	0	0	0	500	501	241	138	
3	0	0	0	0	530	511	239	139	
4	0	0	0	0	485	512	240	137	
5	0	0	0	0	483	520	238	138	
6	0	0	0	0	559	509	237	138	
7	0	0	0	0	553	502	237	139	
8	0	0	0	0	554	504	238	139	
9	0	0	0	0	547	503	237	140	
10	0	0	0	0	527	500	238	141	
11	0	0	0	0	519	507	239	142	
12	0	0	0	0	496	508	239	143	
13	0	0	0	0	472	512	240	143	
14	0	0	0	0	467	504	240	143	
15	0	0	0	0	496	503	239	143	
0	0	0	0	0	493	495	238	143	
1	0	0	0	0	467	501	238	144	
2	0	0	0	0	494	507	238	143	
3	0	0	0	0	538	509	238	142	
4	0	0	0	0	576	523	236	139	
5	0	0	0	0	547	514	236	140	
6	0	0	0	0	516	519	236	141	
7	0	0	0	0	472	519	236	139	
8	0	0	0	0	432	514	236	140	
9	0	0	0	0	456	509	236	135	
10	0	0	0	0	519	512	236	137	
11	0	0	0	0	572	487	237	139	
12	0	0	0	0	637	480	237	141	
13	0	0	0	0	578	499	237	141	
14	0	0	0	0	543	527	238	142	
15	0	0	0	0	467	523	237	146	
0	0	0	0	0	451	506	238	149	
1	0	0	0	0	452	501	239	147	
2	0	0	0	0	465	502	239	148	
3	0	0	0	0	502	501	239	145	
4	0	0	0	0	542	498	239	147	
5	0	0	0	0	551	511	240	150	
6	0	0	0	0	556	514	240	151	
7	0	0	0	0	538	509	240	151	
8	0	0	0	0	491	520	240	150	
9	0	0	0	0	472	521	240	152	
10	0	0	0	0	471	516	240	152	
11	0	0	0	0	482	506	241	152	
12	0	0	0	0	520	508	241	151	
13	0	0	0	0	512	509	241	152	
14	0	0	0	0	477	501	242	154	
15	0	0	0	0	452	496	242	157	
0	0	0	0	0	439	497	242	154	
1	0	0	0	0	455	505	240	152	
2	0	0	0	0	609	503	240	155	
3	0	0	0	0	711	510	241	154	
4	0	0	0	0	627	519	241	149	
5	0	0	0	0	480	516	241	150	
6	0	0	0	0	476	499	243	144	
7	0	0	0	0	480	501	241	149	
8	0	0	0	0	487	511	242	150	
9	0	0	0	0	528	514	242	151	
10	0	0	0	0	523	505	240	151	
11	0	0	0	0	463	504	241	150	
12	0	0	0	0	435	503	242	147	
13	0	0	0	0	463	504	241	148	
14	0	0	0	0	527	511	240	147	
15	0	0	0	0	563	515	240	151	
0	0	0	0	0	537	519	240	148	
1	0	0	0	0	525	525	239	149	
2	0	0	0	0	496	513	239	148	
3	0	0	0	0	520	503	238	148	
4	0	0	0	0	519	500	239	147	
5	0	0	0	0	511	502	237	147	
6	0	0	0	0	510	510	238	147	
7	0	0	0	0	542	495	238	148	
8	0	0	0	0	516	499	238	149	
9	0	0	0	0	496	510	238	149	
10	0	0	0	0	483	504	239	146	
11	0	0	0	0	468	505	237	146	
12	0	0	0	0	473	506	236	145	
13	0	0	0	0	533	512	236	146	
14	0	0	0	0	529	510	236	142	
15	0	0	0	0	476	511	235	143	
0	0	0	0	0	495	508	235	141	
1	0	0	0	0	529	510	233	140	
2	0	0	0	0	531	515	232	139	
3	0	0	0	0	520	518	233	140	
4	0	0	0	0	535	511	231	140	
5	0	0	0	0	558	504	232	139	
6	0	0	0	0	589	508	232	140	
7	0	0	0	0	560	510	232	140	
8	0	0	0	0	532	514	232	140	
9	0	0	0	0	511	505	231	140	
10	0	0	0	0	494	502	232	140	
11	0	0	0	0	468	503	232	139	
12	0	0	0	0	466	510	232	139	
13	0	0	0	0	463	507	232	136	
14	0	0	0	0	452	502	232	136	
15	0	0	0	0	473	504	232	136	
0	0	0	0	0	536	511	231	134	
1	0	0	0	0	500	509	232	133	
2	0	0	0	0	506	503	231	130	
3	0	0	0	0	545	510	234	131	
4	0	0	0	0	557	510	233	133	
5	0	0	0	0	518	508	235	130	
6	0	0	0	0	506	508	235	124	
7	0	0	0	0	521	512	235	125	
8	0	0	0	0	537	513	234	129	
9	0	0	0	0	451	512	233	127	
10	0	0	0	0	414	509	233	123	
11	0	0	0	0	433	502	233	120	
12	0	0	0	0	440	499	233	119	
13	0	0	0	0	601	499	233	120	
14	0	0	0	0	756	510	233	119	
15	0	0	0	0	636	509	233	115	
0	0	0	0	0	524	519	232	103	
1	0	0	0	0	472	518	233	102	
2	0	0	0	0	455	511	235	97	
3	0	0	0	0	447	509	234	100	
4	0	0	0	0	453	504	232	100	
5	0	0	0	0	499	500	232	101	
6	0	0	0	0	485	496	232	97	
7	0	0	0	0	475	504	229	101	
8	0	0	0	0	486	509	229	94	
9	0	0	0	0	512	511	230	95	
10	0	0	0	0	539	510	229	95	
11	0	0	0	0	522	508	228	93	
12	0	0	0	0	499	512	226	94	
13	0	0	0	0	508	513	225	92	
14	0	0	0	0	510	516	224	91	
15	0	0	0	0	558	513	224	85	
0	0	0	0	0	552	511	222	82	
1	0	0	0	0	539	508	222	84	
2	0	0	0	0	556	487	220	84	
3	0	0	0	0	484	488	220	87	
4	0	0	0	0	456	503	220	85	
5	0	0	0	0	467	521	219	83	
6	0	0	0	0	466	514	219	86	
7	0	0	0	0	511	517	216	75	
8	0	0	0	0	535	517	216	75	
9	0	0	0	0	551	505	216	75	
10	0	0	0	0	556	492	216	75	
11	0	0	0	0	575	489	217	75	
12	0	0	0	0	538	501	219	72	
13	0	0	0	0	498	518	215	74	
14	0	0	0	0	493	518	216	78	
15	0	0	0	0	505	519	216	75	
0	0	0	0	0	506	506	216	73	
1	0	0	0	0	509	508	215	79	
2	0	0	0	0	487	505	215	80	
3	0	0	0	0	487	507	215	79	
4	0	0	0	0	487	510	215	80	
5	0	0	0	0	491	509	216	80	
6	0	0	0	0	515	511	216	77	
7	0	0	0	0	509	510	217	77	
8	0	0	0	0	470	519	217	79	
9	0	0	0	0	476	513	218	78	
10	0	0	0	0	499	508	219	81	
11	0	0	0	0	548	507	219	83	
12	0	0	0	0	585	505	219	79	
13	0	0	0	0	571	509	220	80	
14	0	0	0	0	496	504	220	83	
15	0	0	0	0	487	499	220	83	
0	0	0	0	0	486	509	221	81	
1	0	0	0	0	498	515	222	83	
2	0	0	0	0	510	513	222	82	
3	0	0	0	0	534	515	223	77	
4	0	0	0	0	514	508	222	78	
5	0	0	0	0	474	508	223	76	
6	0	0	0	0	440	507	223	77	
7	0	0	0	0	428	506	223	83	
8	0	0	0	0	479	500	224	80	
9	0	0	0	0	569	506	225	80	
10	0	0	0	0	589	497	225	79	
11	0	0	0	0	583	507	225	77	
12	0	0	0	0	574	503	226	72	
13	0	0	0	0	559	500	226	81	
14	0	0	0	0	550	509	227	80	
15	0	0	0	0	520	519	227	83	
0	0	0	0	0	493	510	227	79	
1	0	0	0	0	506	515	226	73	
2	0	0	0	0	468	514	227	78	
3	0	0	0	0	433	514	227	72	
4	0	0	0	0	453	502	227	67	
5	0	0	0	0	501	494	228	59	
6	0	0	0	0	535	496	229	57	
7	0	0	0	0	515	502	228	57	
8	0	0	0	0	529	509	229	57	
9	0	0	0	0	546	515	228	55	
10	0	0	0	0	543	507	229	57	
11	0	0	0	0	552	506	229	52	
12	0	0	0	0	507	510	229	50	
13	0	0	0	0	460	516	229	51	
14	0	0	0	0	447	517	229	48	
15	0	0	0	0	456	511	229	49	
0	0	0	0	0	478	507	229	49	
1	0	0	0	0	527	503	230	48	
2	0	0	0	0	572	502	229	48	
3	0	0	0	0	586	517	229	49	
4	0	0	0	0	552	507	229	48	
5	0	0	0	0	505	503	230	44	
6	0	0	0	0	482	509	229	45	
7	0	0	0	0	493	517	230	44	
8	0	0	0	0	500	507	230	45	
9	0	0	0	0	490	509	229	43	
10	0	0	0	0	483	500	229	43	
11	0	0	0	0	504	499	229	43	
12	0	0	0	0	527	505	230	45	
13	0	0	0	0	549	507	229	45	
14	0	0	0	0	519	509	228	45	
15	0	0	0	0	516	516	228	46	
0	0	0	0	0	504	507	229	45	
1	0	0	0	0	462	504	229	45	
2	0	0	0	0	440	516	230	44	
3	0	0	0	0	494	512	230	45	
4	0	0	0	0	534	513	230	44	
5	0	0	0	0	551	509	230	45	
6	0	0	0	0	616	510	230	44	
7	0	0	0	0	566	505	230	45	
8	0	0	0	0	502	495	231	47	
9	0	0	0	0	499	505	230	47	
10	0	0	0	0	518	513	230	48	
11	0	0	0	0	513	515	230	48	
12	0	0	0	0	500	512	231	48	
13	0	0	0	0	492	508	230	48	
14	0	0	0	0	487	506	230	49	
15	0	0	0	0	451	503	230	50	
0	0	0	0	0	434	503	231	48	
1	0	0	0	0	475	502	231	49	
2	0	0	0	0	508	503	231	48	
3	0	0	0	0	611	507	231	48	
4	0	0	0	0	672	515	231	48	
5	0	0	0	0	534	523	230	51	
6	0	0	0	0	488	517	231	48	
7	0	0	0	0	466	510	231	50	
8	0	0	0	0	449	508	231	51	
9	0	0	0	0	464	505	230	51	
10	0	0	0	0	500	508	230	50	
11	0	0	0	0	508	511	230	51	
12	0	0	0	0	505	509	229	50	
13	0	0	0	0	485	508	230	51	
14	0	0	0	0	481	510	230	51	
15	0	0	0	0	493	509	230	53	
0	0	0	0	0	527	508	230	53	
1	0	0	0	0	536	495	229	53	
2	0	0	0	0	559	495	230	52	
3	0	0	0	0	555	506	231	53	
4	0	0	0	0	556	503	231	55	
5	0	0	0	0	533	505	231	54	
6	0	0	0	0	521	512	230	55	
7	0	0	0	0	511	518	230	55	
8	0	0	0	0	470	510	229	56	
9	0	0	0	0	468	502	228	56	
10	0	0	0	0	504	500	228	55	
11	0	0	0	0	517	504	229	57	
12	0	0	0	0	537	508	229	56	
13	0	0	0	0	547	504	229	57	
14	0	0	0	0	516	519	229	57	
15	0	0	0	0	499	519	229	59	
0	0	0	0	0	482	523	229	58	
1	0	0	0	0	467	514	229	58	
2	0	0	0	0	449	503	229	58	
3	0	0	0	0	499	502	230	57	
4	0	0	0	0	483	502	231	57	
5	0	0	0	0	530	508	231	56	
6	0	0	0	0	584	495	230	57	
7	0	0	0	0	594	499	229	57	
8	0	0	0	0	519	508	229	57	
9	0	0	0	0	486	504	230	57	
10	0	0	0	0	502	505	231	58	
11	0	0	0	0	525	510	231	58	
12	0	0	0	0	525	514	231	57	
13	0	0	0	0	513	516	232	57	
14	0	0	0	0	508	512	232	56	
15	0	0	0	0	493	502	231	56	
0	0	0	0	0	491	504	231	57	
1	0	0	0	0	463	510	232	55	
2	0	0	0	0	463	514	231	56	
3	0	0	0	0	512	514	231	56	
4	0	0	0	0	539	508	231	57	
5	0	0	0	0	588	508	231	56	
6	0	0	0	0	570	508	231	57	
7	0	0	0	0	528	512	232	57	
8	0	0	0	0	519	519	232	57	
9	0	0	0	0	498	510	231	56	
10	0	0	0	0	451	503	231	56	
11	0	0	0	0	459	502	231	56	
12	0	0	0	0	471	498	230	57	
13	0	0	0	0	532	499	230	57	
14	0	0	0	0	589	502	230	56	
15	0	0	0	0	498	506	231	57	
0	0	0	0	0	499	511	230	57	
1	0	0	0	0	510	513	230	56	
2	0	0	0	0	480	510	230	56	
3	0	0	0	0	468	513	230	55	
4	0	0	0	0	463	509	231	56	
5	0	0	0	0	496	506	231	55	
6	0	0	0	0	527	504	231	54	
7	0	0	0	0	641	506	231	55	
8	0	0	0	0	607	513	231	55	
9	0	0	0	0	519	519	232	54	
10	0	0	0	0	482	518	232	54	
11	0	0	0	0	465	513	231	55	
12	0	0	0	0	466	510	230	53	
13	0	0	0	0	475	500	231	54	
14	0	0	0	0	480	496	230	53	
15	0	0	0	0	522	494	230	54	
0	0	0	0	0	568	502	229	53	
1	0	0	0	0	567	504	228	53	
2	0	0	0	0	556	514	229	54	
3	0	0	0	0	521	509	229	53	
4	0	0	0	0	495	516	228	53	
5	0	0	0	0	480	513	227	53	
6	0	0	0	0	467	509	228	53	
7	0	0	0	0	475	510	227	53	
8	0	0	0	0	493	504	227	52	
9	0	0	0	0	509	507	226	53	
10	0	0	0	0	484	507	227	53	
11	0	0	0	0	473	505	226	53	
12	0	0	0	0	513	507	227	52	
13	0	0	0	0	525	514	227	52	
14	0	0	0	0	545	506	227	53	
15	0	0	0	0	590	510	226	51	
0	0	0	0	0	571	511	227	52	
1	0	0	0	0	536	506	226	52	
2	0	0	0	0	502	504	227	53	
3	0	0	0	0	482	505	226	53	
4	0	0	0	0	475	504	227	53	
5	0	0	0	0	492	510	227	52	
6	0	0	0	0	486	514	227	52	
7	0	0	0	0	488	512	228	51	
8	0	0	0	0	497	508	227	50	
9	0	0	0	0	508	503	226	51	
10	0	0	0	0	476	500	227	51	
11	0	0	0	0	508	500	227	50	
12	0	0	0	0	554	508	227	50	
13	0	0	0	0	579	523	227	50	
14	0	0	0	0	549	515	226	50	
15	0	0	0	0	520	508	225	49	
0	0	0	0	0	513	500	226	50	
1	0	0	0	0	491	500	226	51	
2	0	0	0	0	494	506	227	50	
3	0	0	0	0	514	508	227	51	
4	0	0	0	0	495	506	227	51	
5	0	0	0	0	491	509	227	51	
6	0	0	0	0	478	513	226	50	
7	0	0	0	0	466	513	227	50	
8	0	0	0	0	458	511	227	50	
9	0	0	0	0	494	515	227	50	
10	0	0	0	0	579	505	226	50	
11	0	0	0	0	584	511	229	49	
12	0	0	0	0	542	510	228	50	
13	0	0	0	0	529	505	228	49	
14	0	0	0	0	515	503	229	49	
15	0	0	0	0	504	501	228	49	
0	0	0	0	0	495	504	228	49	
1	0	0	0	0	506	508	229	50	
2	0	0	0	0	468	503	229	50	
3	0	0	0	0	437	505	230	49	
4	0	0	0	0	439	505	229	49	
5	0	0	0	0	489	511	230	49	
6	0	0	0	0	564	514	229	47	
7	0	0	0	0	648	517	229	48	
8	0	0	0	0	599	517	230	48	
9	0	0	0	0	567	515	231	48	
10	0	0	0	0	512	515	231	48	
11	0	0	0	0	503	515	230	48	
12	0	0	0	0	494	509	231	48	
13	0	0	0	0	492	492	231	47	
14	0	0	0	0	490	490	231	47	
15	0	0	0	0	500	494	231	46	
0	0	0	0	0	499	503	231	47	
1	0	0	0	0	491	500	231	46	
2	0	0	0	0	462	508	231	46	
3	0	0	0	0	451	510	232	48	
4	0	0	0	0	473	510	231	46	
5	0	0	0	0	509	503	231	47	
6	0	0	0	0	522	504	231	47	
7	0	0	0	0	561	503	231	47	
8	0	0	0	0	562	515	232	47	
9	0	0	0	0	547	519	231	47	
10	0	0	0	0	505	516	231	47	
11	0	0	0	0	510	513	231	47	
12	0	0	0	0	507	511	231	47	
13	0	0	0	0	486	504	231	47	
14	0	0	0	0	495	505	233	48	
15	0	0	0	0	560	504	231	49	
0	0	0	0	0	515	513	231	50	
1	0	0	0	0	472	515	231	49	
2	0	0	0	0	421	515	231	49	
3	0	0	0	0	473	515	231	50	
4	0	0	0	0	532	512	231	48	
5	0	0	0	0	525	506	230	50	
6	0	0	0	0	545	509	230	50	
7	0	0	0	0	546	493	230	50	
8	0	0	0	0	532	494	229	48	
9	0	0	0	0	499	506	231	49	
10	0	0	0	0	476	514	228	50	
11	0	0	0	0	485	511	229	50	
12	0	0	0	0	495	502	227	50	
13	0	0	0	0	516	507	227	50	
14	0	0	0	0	545	511	228	51	
15	0	0	0	0	569	499	227	51	
0	0	0	0	0	582	505	230	50	
1	0	0	0	0	568	514	228	50	
2	0	0	0	0	510	514	228	51	
3	0	0	0	0	484	513	227	52	
4	0	0	0	0	480	512	228	52	
5	0	0	0	0	482	510	227	51	
6	0	0	0	0	495	509	227	51	
7	0	0	0	0	487	510	227	51	
8	0	0	0	0	496	509	226	52	
9	0	0	0	0	510	505	228	51	
10	0	0	0	0	499	506	227	51	
11	0	0	0	0	497	501	227	50	
12	0	0	0	0	549	506	224	51	
13	0	0	0	0	514	508	223	50	
14	0	0	0	0	480	500	224	51	
15	0	0	0	0	501	505	225	53	
0	0	0	0	0	507	509	226	52	
1	0	0	0	0	518	507	225	53	
2	0	0	0	0	555	510	225	51	
3	0	0	0	0	527	515	225	50	
4	0	0	0	0	500	514	225	51	
5	0	0	0	0	465	509	224	51	
6	0	0	0	0	458	508	223	50	
7	0	0	0	0	505	508	222	51	
8	0	0	0	0	506	507	222	51	
9	0	0	0	0	537	504	222	51	
10	0	0	0	0	535	500	222	51	
11	0	0	0	0	561	505	222	51	
12	0	0	0	0	570	512	222	51	
13	0	0	0	0	532	516	222	51	
14	0	0	0	0	519	510	221	50	
15	0	0	0	0	487	507	220	50	
0	0	0	0	0	474	508	220	49	
1	0	0	0	0	463	511	220	49	
2	0	0	0	0	464	514	221	49	
3	0	0	0	0	494	512	219	50	
4	0	0	0	0	553	506	221	50	
5	0	0	0	0	534	503	221	50	
6	0	0	0	0	546	507	222	49	
7	0	0	0	0	550	508	221	49	
8	0	0	0	0	510	505	222	50	
9	0	0	0	0	505	504	223	49	
10	0	0	0	0	498	511	223	49	
11	0	0	0	0	503	506	223	49	
12	0	0	0	0	508	504	223	48	
13	0	0	0	0	503	504	222	48	
14	0	0	0	0	467	508	222	48	
15	0	0	0	0	435	504	224	49	
0	0	0	0	0	459	504	220	48	
1	0	0	0	0	450	511	222	48	
2	0	0	0	0	524	507	222	48	
3	0	0	0	0	694	509	222	48	
4	0	0	0	0	611	511	221	48	
5	0	0	0	0	522	516	224	47	
6	0	0	0	0	505	513	222	47	
7	0	0	0	0	505	512	224	47	
8	0	0	0	0	513	516	223	47	
9	0	0	0	0	501	515	223	48	
10	0	0	0	0	485	508	221	49	
11	0	0	0	0	489	508	223	48	
12	0	0	0	0	488	500	222	48	
13	0	0	0	0	480	495	222	48	
14	0	0	0	0	496	495	221	48	
15	0	0	0	0	549	504	222	48	
0	0	0	0	0	539	514	221	47	
1	0	0	0	0	534	513	221	47	
2	0	0	0	0	518	507	222	47	
3	0	0	0	0	505	500	222	47	
4	0	0	0	0	496	493	221	48	
5	0	0	0	0	487	512	222	47	
6	0	0	0	0	469	515	221	47	
7	0	0	0	0	457	511	221	47	
8	0	0	0	0	462	519	220	47	
9	0	0	0	0	486	511	219	47	
10	0	0	0	0	488	500	218	46	
11	0	0	0	0	555	504	220	47	
12	0	0	0	0	552	509	220	47	
13	0	0	0	0	550	515	218	47	
14	0	0	0	0	581	512	221	47	
15	0	0	0	0	516	507	220	46	
0	0	0	0	0	491	508	219	46	
1	0	0	0	0	484	506	220	46	
2	0	0	0	0	512	505	219	46	
3	0	0	0	0	545	512	221	46	
4	0	0	0	0	529	510	221	46	
5	0	0	0	0	537	512	221	46	
6	0	0	0	0	521	509	219	46	
7	0	0	0	0	523	509	220	46	
8	0	0	0	0	503	507	221	46	
9	0	0	0	0	489	508	219	46	
10	0	0	0	0	492	502	220	46	
11	0	0	0	0	476	498	220	46	
12	0	0	0	0	477	511	220	46	
13	0	0	0	0	512	513	219	47	
14	0	0	0	0	505	509	219	46	
15	0	0	0	0	513	501	221	46	
0	0	0	0	0	547	507	220	46	
1	0	0	0	0	595	509	219	46	
2	0	0	0	0	519	505	217	46	
3	0	0	0	0	481	511	219	46	
4	0	0	0	0	476	516	217	46	
5	0	0	0	0	498	512	216	46	
6	0	0	0	0	500	507	216	45	
7	0	0	0	0	472	508	216	45	
8	0	0	0	0	501	504	217	46	
9	0	0	0	0	529	496	217	45	
10	0	0	0	0	531	502	217	45	
11	0	0	0	0	512	505	218	46	
12	0	0	0	0	515	513	219	46	
13	0	0	0	0	508	515	216	46	
14	0	0	0	0	507	513	216	46	
15	0	0	0	0	520	511	214	46	
0	0	0	0	0	508	504	214	46	
1	0	0	0	0	516	508	214	46	
2	0	0	0	0	510	513	215	46	
3	0	0	0	0	524	512	216	46	
4	0	0	0	0	525	508	216	46	
5	0	0	0	0	511	504	216	46	
6	0	0	0	0	503	504	216	46	
7	0	0	0	0	493	504	216	46	
8	0	0	0	0	500	507	217	46	
9	0	0	0	0	502	505	215	46	
10	0	0	0	0	505	508	213	46	
11	0	0	0	0	515	509	213	46	
12	0	0	0	0	532	510	212	46	
13	0	0	0	0	507	503	211	46	
14	0	0	0	0	507	504	211	46	
15	0	0	0	0	503	505	211	46	
0	0	0	0	0	529	510	211	47	
1	0	0	0	0	512	515	212	47	
2	0	0	0	0	466	514	213	47	
3	0	0	0	0	475	510	213	47	
4	0	0	0	0	519	515	213	48	
5	0	0	0	0	557	519	213	47	
6	0	0	0	0	558	508	212	47	
7	0	0	0	0	511	504	214	47	
8	0	0	0	0	509	504	213	47	
9	0	0	0	0	546	502	213	47	
10	0	0	0	0	516	505	212	47	
11	0	0	0	0	503	506	212	47	
12	0	0	0	0	502	510	213	47	
13	0	0	0	0	497	504	213	46	
14	0	0	0	0	521	500	213	47	
15	0	0	0	0	531	500	214	47	
0	0	0	0	0	510	510	214	47	
1	0	0	0	0	487	512	215	47	
2	0	0	0	0	480	508	214	47	
3	0	0	0	0	488	510	215	47	
4	0	0	0	0	501	508	216	47	
5	0	0	0	0	509	506	216	47	
6	0	0	0	0	516	503	216	47	
7	0	0	0	0	531	510	217	47	
8	0	0	0	0	540	516	216	47	
9	0	0	0	0	505	514	217	47	
10	0	0	0	0	510	515	217	47	
11	0	0	0	0	511	513	219	47	
12	0	0	0	0	506	505	217	47	
13	0	0	0	0	499	503	218	47	
14	0	0	0	0	486	503	216	48	
15	0	0	0	0	494	503	216	47	
0	0	0	0	0	499	508	216	48	
1	0	0	0	0	508	506	216	47	
2	0	0	0	0	515	510	216	47	
3	0	0	0	0	539	505	215	47	
4	0	0	0	0	535	507	214	48	
5	0	0	0	0	551	511	215	48	
6	0	0	0	0	514	510	216	47	
7	0	0	0	0	502	508	215	47	
8	0	0	0	0	498	510	214	48	
9	0	0	0	0	512	510	214	47	
10	0	0	0	0	512	503	215	48	
11	0	0	0	0	526	511	215	47	
12	0	0	0	0	541	518	214	48	
13	0	0	0	0	528	516	214	48	
14	0	0	0	0	517	507	214	47	
15	0	0	0	0	496	502	217	47	
0	0	0	0	0	484	504	215	47	
1	0	0	0	0	510	505	214	47	
2	0	0	0	0	512	502	212	48	
3	0	0	0	0	496	509	211	47	
4	0	0	0	0	475	504	211	48	
5	0	0	0	0	485	512	209	47	
6	0	0	0	0	495	512	207	46	
7	0	0	0	0	498	507	208	47	
8	0	0	0	0	502	507	209	46	
9	0	0	0	0	511	509	209	46	
10	0	0	0	0	499	507	208	46	
11	0	0	0	0	504	505	209	46	
12	0	0	0	0	521	507	208	47	
13	0	0	0	0	506	510	207	47	
14	0	0	0	0	558	512	207	46	
15	0	0	0	0	599	512	206	46	
0	0	0	0	0	575	518	207	46	
1	0	0	0	0	500	515	205	46	
2	0	0	0	0	485	514	205	45	
3	0	0	0	0	481	506	206	45	
4	0	0	0	0	491	503	205	45	
5	0	0	0	0	504	504	204	45	
6	0	0	0	0	513	501	201	45	
7	0	0	0	0	512	498	201	45	
8	0	0	0	0	500	503	199	45	
9	0	0	0	0	496	510	198	45	
10	0	0	0	0	506	511	197	46	
11	0	0	0	0	516	510	197	46	
12	0	0	0	0	519	507	197	46	
13	0	0	0	0	517	501	195	45	
14	0	0	0	0	508	502	194	46	
15	0	0	0	0	529	507	196	45	
0	0	0	0	0	541	509	196	45	
1	0	0	0	0	524	509	197	44	
2	0	0	0	0	504	510	195	45	
3	0	0	0	0	492	510	195	44	
4	0	0	0	0	502	507	193	44	
5	0	0	0	0	487	511	192	44	
6	0	0	0	0	464	512	192	44	
7	0	0	0	0	474	510	190	41	
8	0	0	0	0	480	509	189	43	
9	0	0	0	0	483	511	187	42	
10	0	0	0	0	561	507	188	43	
11	0	0	0	0	583	513	191	42	
12	0	0	0	0	557	504	190	42	
13	0	0	0	0	548	509	189	39	
14	0	0	0	0	532	508	190	38	
15	0	0	0	0	520	499	188	36	
0	0	0	0	0	504	506	185	36	
1	0	0	0	0	499	509	185	36	
2	0	0	0	0	481	506	183	36	
3	0	0	0	0	466	508	183	36	
4	0	0	0	0	474	510	182	35	
5	0	0	0	0	519	515	182	37	
6	0	0	0	0	544	513	181	35	
7	0	0	0	0	531	507	182	38	
8	0	0	0	0	554	511	182	37	
9	0	0	0	0	519	515	182	38	
10	0	0	0	0	456	506	181	38	
11	0	0	0	0	444	494	181	38	
12	0	0	0	0	449	503	183	39	
13	0	0	0	0	513	514	184	36	
14	0	0	0	0	614	515	184	35	
15	0	0	0	0	582	512	183	31	
0	0	0	0	0	515	502	183	31	
1	0	0	0	0	501	505	183	35	
2	0	0	0	0	505	498	183	32	
3	0	0	0	0	497	500	182	29	
4	0	0	0	0	489	499	181	31	
5	0	0	0	0	498	504	183	29	
6	0	0	0	0	500	511	181	28	
7	0	0	0	0	523	511	181	32	
8	0	0	0	0	530	513	180	30	
9	0	0	0	0	533	515	179	28	
10	0	0	0	0	526	512	179	35	
11	0	0	0	0	482	510	178	34	
12	0	0	0	0	460	505	178	35	
13	0	0	0	0	448	511	178	34	
14	0	0	0	0	453	507	178	34	
15	0	0	0	0	471	505	178	35	
0	0	0	0	0	544	507	179	30	
1	0	0	0	0	584	514	179	32	
2	0	0	0	0	563	510	179	34	
3	0	0	0	0	519	505	179	34	
4	0	0	0	0	516	508	179	30	
5	0	0	0	0	521	509	178	33	
6	0	0	0	0	515	511	177	33	
7	0	0	0	0	511	510	175	27	
8	0	0	0	0	492	512	172	37	
9	0	0	0	0	499	507	173	38	
10	0	0	0	0	528	510	166	37	
11	0	0	0	0	518	510	157	34	
12	0	0	0	0	533	504	152	35	
13	0	0	0	0	533	505	151	32	
14	0	0	0	0	510	514	152	34	
15	0	0	0	0	512	510	152	33	
0	0	0	0	0	507	497	152	31	
1	0	0	0	0	508	504	152	28	
2	0	0	0	0	507	511	150	28	
3	0	0	0	0	465	504	151	27	
4	0	0	0	0	478	507	152	28	
5	0	0	0	0	491	512	151	28	
6	0	0	0	0	493	509	151	28	
7	0	0	0	0	538	507	150	27	
8	0	0	0	0	526	512	152	27	
9	0	0	0	0	497	504	152	26	
10	0	0	0	0	533	503	152	25	
11	0	0	0	0	549	511	153	25	
12	0	0	0	0	518	511	152	26	
13	0	0	0	0	535	505	151	25	
14	0	0	0	0	542	505	151	25	
15	0	0	0	0	516	504	152	25	
0	0	0	0	0	527	506	152	25	
1	0	0	0	0	488	511	150	25	
2	0	0	0	0	467	512	150	25	
3	0	0	0	0	494	513	150	25	
4	0	0	0	0	481	507	150	25	
5	0	0	0	0	483	508	151	25	
6	0	0	0	0	529	509	151	24	
7	0	0	0	0	547	508	149	25	
8	0	0	0	0	518	511	150	24	
9	0	0	0	0	525	509	149	25	
10	0	0	0	0	536	512	149	25	
11	0	0	0	0	513	511	150	24	
12	0	0	0	0	487	505	150	24	
13	0	0	0	0	486	507	153	24	
14	0	0	0	0	494	507	152	24	
15	0	0	0	0	509	505	151	24	
0	0	0	0	0	528	507	151	24	
1	0	0	0	0	533	509	150	24	
2	0	0	0	0	481	506	152	23	
3	0	0	0	0	487	502	152	24	
4	0	0	0	0	500	500	152	23	
5	0	0	0	0	528	507	151	22	
6	0	0	0	0	520	507	151	21	
7	0	0	0	0	540	506	153	22	
8	0	0	0	0	537	511	153	22	
9	0	0	0	0	514	516	153	21	
10	0	0	0	0	493	516	153	21	
11	0	0	0	0	460	508	152	20	
12	0	0	0	0	469	507	153	20	
13	0	0	0	0	480	511	152	21	
14	0	0	0	0	472	510	152	19	
15	0	0	0	0	489	513	153	17	
0	0	0	0	0	527	505	152	16	
1	0	0	0	0	516	504	153	15	
2	0	0	0	0	555	503	152	15	
3	0	0	0	0	614	507	152	14	
4	0	0	0	0	593	512	152	14	
5	0	0	0	0	538	510	153	15	
6	0	0	0	0	502	505	153	15	
7	0	0	0	0	509	512	154	15	
8	0	0	0	0	496	508	154	16	
9	0	0	0	0	463	502	154	17	
10	0	0	0	0	464	496	153	18	
11	0	0	0	0	452	499	154	20	
12	0	0	0	0	472	506	153	19	
13	0	0	0	0	564	511	153	20	
14	0	0	0	0	588	520	153	19	
15	0	0	0	0	518	517	154	19	
0	0	0	0	0	527	516	153	20	
1	0	0	0	0	527	518	154	20	
2	0	0	0	0	534	516	154	21	
3	0	0	0	0	504	514	154	21	
4	0	0	0	0	462	512	153	21	
5	0	0	0	0	472	506	154	21	
6	0	0	0	0	493	499	153	22	
7	0	0	0	0	497	490	152	20	
8	0	0	0	0	496	487	152	20	
9	0	0	0	0	507	499	152	20	
10	0	0	0	0	515	504	153	20	
11	0	0	0	0	524	511	153	20	
12	0	0	0	0	527	515	153	20	
13	0	0	0	0	525	517	153	19	
14	0	0	0	0	504	508	152	20	
15	0	0	0	0	507	513	153	20	
0	0	0	0	0	531	512	152	19	
1	0	0	0	0	536	506	152	22	
2	0	0	0	0	500	508	152	23	
3	0	0	0	0	496	512	152	22	
4	0	0	0	0	500	511	152	20	
5	0	0	0	0	503	514	152	26	
6	0	0	0	0	530	513	152	25	
7	0	0	0	0	515	510	153	25	
8	0	0	0	0	497	507	152	26	
9	0	0	0	0	510	513	152	25	
10	0	0	0	0	527	505	153	26	
11	0	0	0	0	484	494	152	25	
12	0	0	0	0	486	498	153	25	
13	0	0	0	0	502	508	153	23	
14	0	0	0	0	516	508	152	23	
15	0	0	0	0	534	508	153	21	
0	0	0	0	0	563	514	152	21	
1	0	0	0	0	493	504	152	22	
2	0	0	0	0	473	504	153	23	
3	0	0	0	0	492	503	153	24	
4	0	0	0	0	516	506	153	23	
5	0	0	0	0	570	507	155	18	
6	0	0	0	0	586	509	153	20	
7	0	0	0	0	519	508	153	19	
8	0	0	0	0	490	511	152	18	
9	0	0	0	0	495	514	154	19	
10	0	0	0	0	497	511	154	21	
11	0	0	0	0	503	507	153	20	
12	0	0	0	0	515	508	153	16	
13	0	0	0	0	498	508	153	20	
14	0	0	0	0	480	507	153	19	
15	0	0	0	0	483	507	154	20	
0	0	0	0	0	511	506	153	18	
1	0	0	0	0	492	508	153	18	
2	0	0	0	0	518	501	153	16	
3	0	0	0	0	567	502	153	15	
4	0	0	0	0	540	508	154	12	
5	0	0	0	0	527	506	153	10	
6	0	0	0	0	539	507	153	7	
7	0	0	0	0	536	505	154	7	
8	0	0	0	0	508	508	153	4	
9	0	0	0	0	488	502	154	4	
10	0	0	0	0	483	503	154	4	
11	0	0	0	0	483	510	153	4	
12	0	0	0	0	483	510	154	3	
13	0	0	0	0	491	506	155	4	
14	0	0	0	0	516	509	154	4	
15	0	0	0	0	554	509	153	4	
0	0	0	0	0	549	514	154	4	
1	0	0	0	0	537	507	154	4	
2	0	0	0	0	495	507	154	4	
3	0	0	0	0	474	506	153	4	
4	0	0	0	0	462	513	154	4	
5	0	0	0	0	477	518	154	5	
6	0	0	0	0	503	510	154	4	
7	0	0	0	0	522	508	154	4	
8	0	0	0	0	534	498	153	5	
9	0	0	0	0	492	500	153	4	
10	0	0	0	0	470	514	152	5	
11	0	0	0	0	492	517	152	4	
12	0	0	0	0	516	515	152	5	
13	0	0	0	0	525	514	153	4	
14	0	0	0	0	534	510	151	4	
15	0	0	0	0	552	508	153	5	
0	0	0	0	0	507	504	151	5	
1	0	0	0	0	472	494	152	5	
2	0	0	0	0	503	495	152	6	
3	0	0	0	0	538	510	152	7	
4	0	0	0	0	518	520	150	7	
5	0	0	0	0	513	517	151	7	
6	0	0	0	0	566	519	149	6	
7	0	0	0	0	558	519	148	7	
8	0	0	0	0	515	507	148	7	
9	0	0	0	0	510	494	149	7	
10	0	0	0	0	524	500	149	7	
11	0	0	0	0	499	501	151	7	
12	0	0	0	0	487	507	150	7	
13	0	0	0	0	466	513	150	7	
14	0	0	0	0	463	513	150	7	
15	0	0	0	0	496	516	150	7	
0	0	0	0	0	533	512	149	6	
1	0	0	0	0	536	500	149	3	
2	0	0	0	0	523	504	150	3	
3	0	0	0	0	480	501	151	3	
4	0	0	0	0	489	507	150	3	
5	0	0	0	0	502	507	150	3	
6	0	0	0	0	509	508	150	3	
7	0	0	0	0	522	506	149	3	
8	0	0	0	0	536	506	150	3	
9	0	0	0	0	578	507	151	3	
10	0	0	0	0	569	510	152	3	
11	0	0	0	0	512	510	150	3	
12	0	0	0	0	485	506	150	3	
13	0	0	0	0	470	507	152	3	
14	0	0	0	0	469	507	151	4	
15	0	0	0	0	484	513	152	5	
0	0	0	0	0	495	513	153	5	
1	0	0	0	0	519	512	151	5	
2	0	0	0	0	535	508	150	4	
3	0	0	0	0	498	508	152	4	
4	0	0	0	0	483	509	150	4	
5	0	0	0	0	494	506	149	5	
6	0	0	0	0	557	512	152	4	
7	0	0	0	0	566	509	154	4	
8	0	0	0	0	539	508	153	4	
9	0	0	0	0	497	507	150	4	
10	0	0	0	0	465	508	151	4	
11	0	0	0	0	443	510	150	4	
12	0	0	0	0	456	506	152	4	
13	0	0	0	0	508	511	151	4	
14	0	0	0	0	558	511	152	5	
15	0	0	0	0	614	508	152	4	
0	0	0	0	0	606	503	154	4	
1	0	0	0	0	532	504	152	4	
2	0	0	0	0	512	502	153	4	
3	0	0	0	0	492	504	152	5	
4	0	0	0	0	478	508	153	4	
5	0	0	0	0	475	510	154	4	
6	0	0	0	0	469	513	155	5	
7	0	0	0	0	496	510	153	4	
8	0	0	0	0	504	505	153	4	
9	0	0	0	0	491	511	152	4	
10	0	0	0	0	504	509	153	3	
11	0	0	0	0	522	508	152	4	
12	0	0	0	0	518	508	153	3	
13	0	0	0	0	500	508	151	4	
14	0	0	0	0	512	512	151	7	
15	0	0	0	0	513	514	152	7	
0	0	0	0	0	507	508	152	7	
1	0	0	0	0	508	507	152	7	
2	0	0	0	0	511	507	151	7	
3	0	0	0	0	541	508	150	7	
4	0	0	0	0	515	506	153	7	
5	0	0	0	0	499	506	151	6	
6	0	0	0	0	521	507	149	6	
7	0	0	0	0	550	507	149	7	
8	0	0	0	0	530	507	151	7	
9	0	0	0	0	507	507	152	6	
10	0	0	0	0	465	512	150	7	
11	0	0	0	0	479	510	151	8	
12	0	0	0	0	496	510	151	7	
13	0	0	0	0	524	519	151	7	
14	0	0	0	0	528	514	150	7	
15	0	0	0	0	511	509	150	7	
0	0	0	0	0	496	506	152	7	
1	0	0	0	0	481	502	150	6	
2	0	0	0	0	512	503	151	6	
3	0	0	0	0	522	501	150	6	
4	0	0	0	0	549	496	149	5	
5	0	0	0	0	594	500	150	6	
6	0	0	0	0	609	512	151	5	
7	0	0	0	0	510	508	152	4	
8	0	0	0	0	472	508	151	4	
9	0	0	0	0	472	502	152	5	
10	0	0	0	0	492	505	150	5	
11	0	0	0	0	491	512	149	5	
12	0	0	0	0	480	514	151	3	
13	0	0	0	0	487	513	151	4	
14	0	0	0	0	493	511	151	4	
15	0	0	0	0	527	507	152	4	
0	0	0	0	0	531	512	150	4	
1	0	0	0	0	519	512	151	4	
2	0	0	0	0	507	516	151	4	
3	0	0	0	0	498	509	150	3	
4	0	0	0	0	498	498	152	3	
5	0	0	0	0	486	500	150	3	
6	0	0	0	0	468	498	151	3	
7	0	0	0	0	492	505	152	4	
8	0	0	0	0	504	512	151	4	
9	0	0	0	0	527	509	152	4	
10	0	0	0	0	588	515	152	4	
11	0	0	0	0	542	511	152	5	
12	0	0	0	0	467	509	151	6	
13	0	0	0	0	486	513	151	6	
14	0	0	0	0	463	505	152	6	
15	0	0	0	0	533	506	150	6	
0	0	0	0	0	659	512	149	6	
1	0	0	0	0	666	516	149	6	
2	0	0	0	0	521	511	150	6	
3	0	0	0	0	456	503	149	5	
4	0	0	0	0	465	507	149	5	
5	0	0	0	0	461	508	149	4	
6	0	0	0	0	463	502	149	3	
7	0	0	0	0	488	506	149	2	
8	0	0	0	0	501	508	150	1	
9	0	0	0	0	498	498	148	1	
10	0	0	0	0	490	497	149	1	
11	0	0	0	0	500	505	149	1	
12	0	0	0	0	505	514	150	0	
13	0	0	0	0	518	514	150	1	
14	0	0	0	0	536	509	149	1	
15	0	0	0	0	564	510	149	1	
0	0	0	0	0	548	511	151	1	
1	0	0	0	0	503	512	150	1	
2	0	0	0	0	487	512	151	1	
3	0	0	0	0	504	514	150	3	
4	0	0	0	0	472	506	151	3	
5	0	0	0	0	474	504	151	3	
6	0	0	0	0	480	503	151	3	
7	0	0	0	0	480	504	151	4	
8	0	0	0	0	499	506	151	4	
9	0	0	0	0	512	504	151	4	
10	0	0	0	0	513	511	150	4	
11	0	0	0	0	516	512	151	4	
12	0	0	0	0	558	508	149	4	
13	0	0	0	0	595	505	150	4	
14	0	0	0	0	561	508	150	3	
15	0	0	0	0	524	516	150	4	
0	0	0	0	0	493	509	151	4	
1	0	0	0	0	504	503	151	4	
2	0	0	0	0	493	510	151	5	
3	0	0	0	0	492	505	151	5	
4	0	0	0	0	505	502	150	4	
5	0	0	0	0	538	505	151	3	
6	0	0	0	0	512	508	151	3	
7	0	0	0	0	480	507	151	3	
8	0	0	0	0	477	515	151	3	
9	0	0	0	0	522	513	152	3	
10	0	0	0	0	546	514	152	3	
11	0	0	0	0	527	511	151	3	
12	0	0	0	0	506	508	151	3	
13	0	0	0	0	504	500	150	3	
14	0	0	0	0	518	505	152	3	
15	0	0	0	0	501	509	151	3	
0	0	0	0	0	487	506	152	3	
1	0	0	0	0	480	505	151	3	
2	0	0	0	0	489	505	151	3	
3	0	0	0	0	498	510	151	3	
4	0	0	0	0	542	507	150	3	
5	0	0	0	0	583	509	150	3	
6	0	0	0	0	549	512	151	3	
7	0	0	0	0	513	512	152	3	
8	0	0	0	0	494	503	152	3	
9	0	0	0	0	479	504	153	3	
10	0	0	0	0	466	507	154	3	
11	0	0	0	0	472	509	154	3	
12	0	0	0	0	472	511	154	4	
13	0	0	0	0	510	510	154	3	
14	0	0	0	0	583	508	152	3	
15	0	0	0	0	531	505	153	3	
0	0	0	0	0	474	504	152	3	
1	0	0	0	0	493	508	153	3	
2	0	0	0	0	523	511	152	3	
3	0	0	0	0	510	508	152	3	
4	0	0	0	0	536	508	152	2	
5	0	0	0	0	583	510	151	2	
6	0	0	0	0	545	511	152	3	
7	0	0	0	0	468	512	152	3	
8	0	0	0	0	473	514	150	3	
9	0	0	0	0	500	513	150	3	
10	0	0	0	0	487	506	151	3	
11	0	0	0	0	526	504	152	3	
12	0	0	0	0	531	504	149	4	
13	0	0	0	0	499	505	151	5	
14	0	0	0	0	514	510	151	4	
15	0	0	0	0	549	510	152	4	
0	0	0	0	0	501	509	149	5	
1	0	0	0	0	494	511	149	4	
2	0	0	0	0	482	515	152	4	
3	0	0	0	0	497	512	151	4	
4	0	0	0	0	514	507	151	3	
5	0	0	0	0	519	508	150	3	
6	0	0	0	0	534	508	148	3	
7	0	0	0	0	519	498	149	3	
8	0	0	0	0	491	489	149	3	
9	0	0	0	0	476	496	150	3	
10	0	0	0	0	521	506	151	3	
11	0	0	0	0	529	510	150	2	
12	0	0	0	0	537	510	150	1	
13	0	0	0	0	512	509	151	1	
14	0	0	0	0	503	504	151	0	
15	0	0	0	0	515	511	151	0	
0	0	0	0	0	525	514	150	0	
1	0	0	0	0	499	503	150	1	
2	0	0	0	0	503	511	150	0	
3	0	0	0	0	503	519	149	0	
4	0	0	0	0	494	516	148	0	
5	0	0	0	0	501	517	148	0	
6	0	0	0	0	563	516	146	0	
7	0	0	0	0	515	504	145	0	
8	0	0	0	0	476	505	144	0	
9	0	0	0	0	468	504	144	0	
10	0	0	0	0	485	503	146	0	
11	0	0	0	0	538	496	145	0	
12	0	0	0	0	570	497	143	0	
13	0	0	0	0	571	505	144	0	
14	0	0	0	0	557	518	142	0	
15	0	0	0	0	521	519	142	0	
0	0	0	0	0	488	513	143	0	
1	0	0	0	0	480	510	141	0	
2	0	0	0	0	481	506	144	0	
3	0	0	0	0	501	504	143	0	
4	0	0	0	0	489	510	143	0	
5	0	0	0	0	480	510	144	0	
6	0	0	0	0	495	507	143	0	
7	0	0	0	0	466	507	143	0	
8	0	0	0	0	473	510	143	0	
9	0	0	0	0	522	512	143	0	
10	0	0	0	0	549	504	143	0	
11	0	0	0	0	608	504	143	0	
12	0	0	0	0	568	506	143	0	
13	0	0	0	0	504	506	144	0	
14	0	0	0	0	502	501	142	0	
15	0	0	0	0	525	501	140	0	
0	0	0	0	0	519	506	142	0	
1	0	0	0	0	507	514	141	0	
2	0	0	0	0	483	510	132	0	
3	0	0	0	0	482	512	132	0	
4	0	0	0	0	464	510	131	0	
5	0	0	0	0	509	515	131	0	
6	0	0	0	0	513	516	130	0	
7	0	0	0	0	527	510	131	0	
8	0	0	0	0	521	507	131	0	
9	0	0	0	0	505	503	131	0	
10	0	0	0	0	484	508	129	0	
11	0	0	0	0	485	506	131	0	
12	0	0	0	0	492	502	131	0	
13	0	0	0	0	519	502	129	0	
14	0	0	0	0	541	503	129	0	
15	0	0	0	0	567	505	129	0	
0	0	0	0	0	551	508	129	0	
1	0	0	0	0	521	512	129	0	
2	0	0	0	0	495	508	127	0	
3	0	0	0	0	494	513	129	0	
4	0	0	0	0	492	511	129	0	
5	0	0	0	0	492	507	128	0	
6	0	0	0	0	504	513	129	0	
7	0	0	0	0	527	508	128	0	
8	0	0	0	0	517	504	127	0	
9	0	0	0	0	519	503	127	0	
10	0	0	0	0	497	503	127	0	
11	0	0	0	0	503	499	129	0	
12	0	0	0	0	504	507	127	0	
13	0	0	0	0	509	513	128	0	
14	0	0	0	0	507	518	128	0	
15	0	0	0	0	543	516	130	0	
0	0	0	0	0	523	514	129	0	
1	0	0	0	0	532	514	127	0	
2	0	0	0	0	508	505	127	0	
3	0	0	0	0	490	499	127	0	
4	0	0	0	0	508	501	129	0	
5	0	0	0	0	528	507	129	0	
6	0	0	0	0	502	508	128	0	
7	0	0	0	0	528	509	130	0	
8	0	0	0	0	532	504	128	0	
9	0	0	0	0	497	504	131	0	
10	0	0	0	0	481	506	131	0	
11	0	0	0	0	451	508	131	0	
12	0	0	0	0	433	508	130	0	
13	0	0	0	0	489	505	130	0	
14	0	0	0	0	537	508	131	0	
15	0	0	0	0	553	515	131	0	
0	0	0	0	0	568	515	131	0	
1	0	0	0	0	575	514	130	0	
2	0	0	0	0	523	510	129	0	
3	0	0	0	0	521	508	128	0	
4	0	0	0	0	511	504	128	0	
5	0	0	0	0	489	499	129	0	
6	0	0	0	0	490	504	129	0	
7	0	0	0	0	497	506	128	0	
8	0	0	0	0	505	507	129	0	
9	0	0	0	0	476	512	129	0	
10	0	0	0	0	480	513	127	0	
11	0	0	0	0	498	508	126	0	
12	0	0	0	0	542	510	126	0	
13	0	0	0	0	580	511	128	0	
14	0	0	0	0	520	514	126	0	
15	0	0	0	0	476	510	126	0	
0	0	0	0	0	463	507	127	0	
1	0	0	0	0	481	503	127	0	
2	0	0	0	0	511	493	127	0	
3	0	0	0	0	565	506	126	0	
4	0	0	0	0	515	514	127	0	
5	0	0	0	0	491	512	127	0	
6	0	0	0	0	517	504	127	0	
7	0	0	0	0	598	508	128	0	
8	0	0	0	0	646	510	128	0	
9	0	0	0	0	534	505	128	0	
10	0	0	0	0	440	509	127	0	
11	0	0	0	0	406	508	128	0	
12	0	0	0	0	391	507	129	0	
13	0	0	0	0	496	509	128	0	
14	0	0	0	0	546	511	130	0	
15	0	0	0	0	576	513	130	0	
0	0	0	0	0	530	512	131	0	
1	0	0	0	0	521	508	131	0	
2	0	0	0	0	492	502	129	0	
3	0	0	0	0	487	504	129	0	
4	0	0	0	0	500	503	127	0	
5	0	0	0	0	483	507	127	0	
6	0	0	0	0	508	505	126	0	
7	0	0	0	0	545	510	126	0	
8	0	0	0	0	519	513	126	0	
9	0	0	0	0	518	512	125	0	
10	0	0	0	0	540	512	124	0	
11	0	0	0	0	524	504	125	0	
12	0	0	0	0	501	503	125	0	
13	0	0	0	0	496	510	122	0	
14	0	0	0	0	511	506	122	0	
15	0	0	0	0	523	510	121	0	
0	0	0	0	0	503	508	121	0	
1	0	0	0	0	480	510	123	0	
2	0	0	0	0	482	505	125	0	
3	0	0	0	0	494	508	123	0	
4	0	0	0	0	494	503	126	0	
5	0	0	0	0	560	507	127	0	
6	0	0	0	0	596	519	126	0	
7	0	0	0	0	527	515	127	0	
8	0	0	0	0	503	507	122	0	
9	0	0	0	0	535	499	124	0	
10	0	0	0	0	531	494	123	0	
11	0	0	0	0	499	496	120	0	
12	0	0	0	0	455	509	123	0	
13	0	0	0	0	439	516	123	0	
14	0	0	0	0	481	519	122	0	
15	0	0	0	0	528	514	121	0	
0	0	0	0	0	529	505	122	0	
1	0	0	0	0	515	510	124	0	
2	0	0	0	0	513	511	121	0	
3	0	0	0	0	510	503	121	0	
4	0	0	0	0	504	501	122	0	
5	0	0	0	0	515	505	119	0	
6	0	0	0	0	499	510	121	0	
7	0	0	0	0	478	516	121	0	
8	0	0	0	0	497	516	122	0	
9	0	0	0	0	491	512	122	0	
10	0	0	0	0	492	499	123	0	
11	0	0	0	0	549	496	123	0	
12	0	0	0	0	593	511	122	0	
13	0	0	0	0	578	519	122	0	
14	0	0	0	0	547	514	120	0	
15	0	0	0	0	524	501	122	0	
0	0	0	0	0	525	502	121	0	
1	0	0	0	0	492	499	124	0	
2	0	0	0	0	476	501	124	0	
3	0	0	0	0	476	500	124	0	
4	0	0	0	0	489	507	124	0	
5	0	0	0	0	495	511	126	0	
6	0	0	0	0	501	516	127	0	
7	0	0	0	0	494	508	127	0	
8	0	0	0	0	469	505	127	0	
9	0	0	0	0	449	508	127	0	
10	0	0	0	0	488	509	128	0	
11	0	0	0	0	483	509	129	0	
12	0	0	0	0	514	509	127	0	
13	0	0	0	0	648	514	129	0	
14	0	0	0	0	552	516	127	0	
15	0	0	0	0	482	513	127	0	
0	0	0	0	0	537	509	129	0	
1	0	0	0	0	612	511	129	0	
2	0	0	0	0	563	512	128	0	
3	0	0	0	0	500	511	128	0	
4	0	0	0	0	500	502	129	0	
5	0	0	0	0	499	505	129	0	
6	0	0	0	0	490	504	129	0	
7	0	0	0	0	484	507	129	0	
8	0	0	0	0	486	507	128	0	
9	0	0	0	0	490	508	129	0	
10	0	0	0	0	479	507	130	0	
11	0	0	0	0	486	506	130	0	
12	0	0	0	0	482	510	131	0	
13	0	0	0	0	460	505	129	0	
14	0	0	0	0	507	506	129	0	
15	0	0	0	0	536	507	129	0	
0	0	0	0	0	557	509	130	0	
1	0	0	0	0	580	508	130	0	
2	0	0	0	0	530	507	131	0	
3	0	0	0	0	485	509	130	0	
4	0	0	0	0	489	509	130	0	
5	0	0	0	0	523	510	130	0	
6	0	0	0	0	536	510	129	0	
7	0	0	0	0	537	511	130	0	
8	0	0	0	0	536	511	130	0	
9	0	0	0	0	513	505	131	0	
10	0	0	0	0	501	508	131	0	
11	0	0	0	0	492	511	131	0	
12	0	0	0	0	489	503	131	0	
13	0	0	0	0	483	504	130	0	
14	0	0	0	0	483	508	131	0	
15	0	0	0	0	479	505	131	0	
0	0	0	0	0	478	507	130	0	
1	0	0	0	0	497	507	130	0	
2	0	0	0	0	534	507	130	0	
3	0	0	0	0	540	511	131	0	
4	0	0	0	0	515	504	130	0	
5	0	0	0	0	520	507	130	0	
6	0	0	0	0	482	510	131	0	
7	0	0	0	0	483	510	131	0	
8	0	0	0	0	512	508	131	0	
9	0	0	0	0	654	512	130	0	
10	0	0	0	0	595	515	130	0	
11	0	0	0	0	505	515	130	0	
12	0	0	0	0	495	511	131	0	
13	0	0	0	0	491	506	131	0	
14	0	0	0	0	482	505	131	0	
15	0	0	0	0	480	504	132	0	
0	0	0	0	0	488	507	132	0	
1	0	0	0	0	497	508	132	0	
2	0	0	0	0	508	504	131	0	
3	0	0	0	0	523	507	132	0	
4	0	0	0	0	516	499	131	0	
5	0	0	0	0	502	502	132	0	
6	0	0	0	0	494	511	133	0	
7	0	0	0	0	487	512	132	0	
8	0	0	0	0	456	509	132	0	
9	0	0	0	0	439	506	132	0	
10	0	0	0	0	469	506	131	0	
11	0	0	0	0	488	509	131	0	
12	0	0	0	0	619	515	132	0	
13	0	0	0	0	687	519	132	0	
14	0	0	0	0	664	521	134	0	
15	0	0	0	0	510	513	134	0	
0	0	0	0	0	474	500	132	0	
1	0	0	0	0	484	499	132	0	
2	0	0	0	0	472	500	133	0	
3	0	0	0	0	453	499	132	0	
4	0	0	0	0	451	507	133	0	
5	0	0	0	0	470	507	133	0	
6	0	0	0	0	494	508	133	0	
7	0	0	0	0	590	506	133	0	
8	0	0	0	0	588	512	133	0	
9	0	0	0	0	515	511	132	0	
10	0	0	0	0	492	506	133	0	
11	0	0	0	0	509	503	133	0	
12	0	0	0	0	502	505	132	0	
13	0	0	0	0	518	510	132	0	
14	0	0	0	0	495	507	132	0	
15	0	0	0	0	468	504	133	0	
0	0	0	0	0	473	510	134	0	
1	0	0	0	0	482	513	133	0	
2	0	0	0	0	536	512	133	0	
3	0	0	0	0	574	514	134	0	
4	0	0	0	0	551	512	132	0	
5	0	0	0	0	513	515	132	0	
6	0	0	0	0	491	508	134	0	
7	0	0	0	0	491	498	129	0	
8	0	0	0	0	495	499	131	0	
9	0	0	0	0	509	510	131	0	
10	0	0	0	0	513	510	130	0	
11	0	0	0	0	515	508	129	0	
12	0	0	0	0	505	511	131	0	
13	0	0	0	0	499	510	131	0	
14	0	0	0	0	486	508	130	0	
15	0	0	0	0	491	507	128	0	
0	0	0	0	0	514	504	129	0	
1	0	0	0	0	515	500	128	0	
2	0	0	0	0	494	504	129	0	
3	0	0	0	0	507	507	128	0	
4	0	0	0	0	532	510	128	0	
5	0	0	0	0	554	512	129	0	
6	0	0	0	0	528	511	130	0	
7	0	0	0	0	536	515	130	0	
8	0	0	0	0	527	511	130	0	
9	0	0	0	0	494	511	130	0	
10	0	0	0	0	502	513	129	0	
11	0	0	0	0	513	508	128	0	
12	0	0	0	0	512	501	128	0	
13	0	0	0	0	508	505	129	0	
14	0	0	0	0	527	511	128	0	
15	0	0	0	0	484	512	128	0	
0	0	0	0	0	460	510	129	0	
1	0	0	0	0	462	511	127	0	
2	0	0	0	0	516	506	127	0	
3	0	0	0	0	527	504	127	0	
4	0	0	0	0	538	505	127	0	
5	0	0	0	0	534	498	127	0	
6	0	0	0	0	521	500	128	0	
7	0	0	0	0	502	508	127	0	
8	0	0	0	0	496	508	128	0	
9	0	0	0	0	492	503	129	0	
10	0	0	0	0	525	506	128	0	
11	0	0	0	0	579	511	129	0	
12	0	0	0	0	572	517	128	0	
13	0	0	0	0	556	515	128	0	
14	0	0	0	0	516	515	127	0	
15	0	0	0	0	486	509	128	0	
0	0	0	0	0	482	509	128	0	
1	0	0	0	0	488	511	127	0	
2	0	0	0	0	491	511	127	0	
3	0	0	0	0	495	507	126	0	
4	0	0	0	0	499	504	127	0	
5	0	0	0	0	511	505	127	0	
6	0	0	0	0	506	508	128	0	
7	0	0	0	0	467	506	126	0	
8	0	0	0	0	488	506	127	0	
9	0	0	0	0	515	506	127	0	
10	0	0	0	0	492	505	126	0	
11	0	0	0	0	540	506	127	0	
12	0	0	0	0	560	509	127	0	
13	0	0	0	0	506	516	126	0	
14	0	0	0	0	481	511	128	0	
15	0	0	0	0	500	508	127	0	
0	0	0	0	0	500	511	127	0	
1	0	0	0	0	530	509	126	0	
2	0	0	0	0	572	511	127	0	
3	0	0	0	0	537	508	128	0	
4	0	0	0	0	505	500	128	0	
5	0	0	0	0	495	499	128	0	
6	0	0	0	0	487	501	128	0	
7	0	0	0	0	486	508	128	0	
8	0	0	0	0	493	509	127	0	
9	0	0	0	0	509	505	125	0	
10	0	0	0	0	507	507	126	0	
11	0	0	0	0	503	510	126	0	
12	0	0	0	0	539	507	126	0	
13	0	0	0	0	574	513	127	0	
14	0	0	0	0	534	512	127	0	
15	0	0	0	0	507	508	126	0	
0	0	0	0	0	494	508	126	0	
1	0	0	0	0	495	507	127	0	
2	0	0	0	0	513	508	126	0	
3	0	0	0	0	525	508	124	0	
4	0	0	0	0	518	508	124	0	
5	0	0	0	0	515	508	127	0	
6	0	0	0	0	499	506	126	0	
7	0	0	0	0	492	503	125	0	
8	0	0	0	0	478	505	126	0	
9	0	0	0	0	483	507	124	0	
10	0	0	0	0	484	509	126	0	
11	0	0	0	0	489	512	124	0	
12	0	0	0	0	433	506	125	0	
13	0	0	0	0	458	506	126	0	
14	0	0	0	0	592	513	123	0	
15	0	0	0	0	636	513	126	0	
0	0	0	0	0	589	514	126	0	
1	0	0	0	0	562	513	117	0	
2	0	0	0	0	516	506	118	0	
3	0	0	0	0	468	505	117	0	
4	0	0	0	0	478	505	117	0	
5	0	0	0	0	487	506	117	0	
6	0	0	0	0	482	508	117	0	
7	0	0	0	0	486	514	117	0	
8	0	0	0	0	564	513	119	0	
9	0	0	0	0	523	515	119	0	
10	0	0	0	0	456	508	121	0	
11	0	0	0	0	512	506	121	0	
12	0	0	0	0	541	498	122	0	
13	0	0	0	0	525	504	122	0	
14	0	0	0	0	503	504	120	0	
15	0	0	0	0	509	507	122	0	
0	0	0	0	0	496	507	121	0	
1	0	0	0	0	490	507	122	0	
2	0	0	0	0	493	510	119	0	
3	0	0	0	0	494	508	121	0	
4	0	0	0	0	508	504	119	0	
5	0	0	0	0	553	507	120	0	
6	0	0	0	0	531	508	120	0	
7	0	0	0	0	504	507	119	0	
8	0	0	0	0	519	512	119	0	
9	0	0	0	0	507	510	118	0	
10	0	0	0	0	489	512	118	0	
11	0	0	0	0	494	504	119	0	
12	0	0	0	0	490	504	117	0	
13	0	0	0	0	505	504	117	0	
14	0	0	0	0	550	508	116	0	
15	0	0	0	0	532	509	115	0	
0	0	0	0	0	516	507	115	0	
1	0	0	0	0	524	511	113	0	
2	0	0	0	0	509	511	112	0	
3	0	0	0	0	474	510	113	0	
4	0	0	0	0	475	511	112	0	
5	0	0	0	0	483	508	112	0	
6	0	0	0	0	499	514	112	0	
7	0	0	0	0	602	516	112	0	
8	0	0	0	0	574	510	111	0	
9	0	0	0	0	548	502	112	0	
10	0	0	0	0	523	503	111	0	
11	0	0	0	0	489	502	111	0	
12	0	0	0	0	489	504	111	0	
13	0	0	0	0	491	501	111	0	
14	0	0	0	0	492	507	110	0	
15	0	0	0	0	497	509	110	0	
0	0	0	0	0	501	508	110	0	
1	0	0	0	0	506	509	110	0	
2	0	0	0	0	510	511	111	0	
3	0	0	0	0	504	515	111	0	
4	0	0	0	0	497	513	112	0	
5	0	0	0	0	524	511	111	0	
6	0	0	0	0	515	509	110	0	
7	0	0	0	0	496	511	110	0	
8	0	0	0	0	511	506	110	0	
9	0	0	0	0	488	500	110	0	
10	0	0	0	0	497	502	108	0	
11	0	0	0	0	551	505	109	0	
12	0	0	0	0	544	506	108	0	
13	0	0	0	0	518	516	108	0	
14	0	0	0	0	533	517	109	0	
15	0	0	0	0	520	509	108	0	
