# OpenSignals Text File Format. Version 1
# {"98:D3:31:B2:12:BA": {"position": 0, "device": "bitalino", "device name": "98:D3:31:B2:12:BA", "device connection": "BTH98:D3:31:B2:12:BA", "sampling rate": 1000, "resolution": [4, 1, 1, 1, 1, 10, 10, 10, 10, 6, 6], "firmware version": 771, "comments": "", "keywords": "", "mode": 0, "sync interval": 2, "date": "2022-7-18", "time": "13:0:56.621", "channels": [1, 2, 3, 4, 5, 6], "sensor": ["RAW", "RAW", "EMGBIT", "EMGBIT", "ACC", "RAW"], "label": ["A1", "A2", "A3", "A4", "A5", "A6"], "column": ["nSeq", "I1", "I2", "I3", "I4", "A1", "A2", "A3", "A4", "A5", "A6"], "special": [{}, {}, {}, {}, {}, {}], "digital IO": [0, 0, 0, 0, 1, 1, 1, 1]}}
# EndOfHeader
0	0	0	0	0	467	508	1	0	3	2			
1	0	0	0	0	472	508	0	0	3	2			
2	0	0	0	0	472	510	0	0	3	2			
3	0	0	0	0	472	511	0	0	3	2			
4	0	0	0	0	472	510	0	0	3	2			
5	0	0	0	0	472	511	0	0	3	2			
6	0	0	0	0	476	511	0	0	3	2			
7	0	0	0	0	476	511	0	0	3	2			
8	0	0	0	0	476	512	0	0	3	2			
9	0	0	0	0	480	512	0	0	3	2			
10	0	0	0	0	480	511	0	0	3	2			
11	0	0	0	0	476	508	0	0	3	2			
12	0	0	0	0	476	511	0	0	3	2			
13	0	0	0	0	480	511	0	0	3	2			
14	0	0	0	0	483	511	0	0	3	2			
15	0	0	0	0	483	508	0	0	3	2			
0	0	0	0	0	481	508	0	0	3	2			
1	0	0	0	0	480	508	0	0	3	2			
2	0	0	0	0	480	508	0	0	3	2			
3	0	0	0	0	476	504	0	0	3	2			
4	0	0	0	0	476	504	0	0	3	2			
5	0	0	0	0	473	505	0	0	3	2			
6	0	0	0	0	472	510	0	0	3	2			
7	0	0	0	0	472	511	0	0	3	2			
8	0	0	0	0	472	511	0	0	3	2			
9	0	0	0	0	472	511	0	0	3	2			
10	0	0	0	0	470	511	0	0	3	2			
11	0	0	0	0	463	511	0	0	4	2			
12	0	0	0	0	463	512	0	0	4	2			
13	0	0	0	0	465	511	0	0	3	2			
14	0	0	0	0	472	510	0	0	3	2			
15	0	0	0	0	476	511	0	0	3	2			
0	0	0	0	0	476	508	0	0	3	2			
1	0	0	0	0	478	510	0	0	3	2			
2	0	0	0	0	486	510	0	0	3	2			
3	0	0	0	0	496	508	0	0	3	2			
4	0	0	0	0	496	508	0	0	3	2			
5	0	0	0	0	492	508	0	0	3	2			
6	0	0	0	0	483	508	0	0	3	2			
7	0	0	0	0	481	508	0	0	3	2			
8	0	0	0	0	483	508	0	0	3	2			
9	0	0	0	0	483	511	0	0	3	2			
10	0	0	0	0	476	510	0	0	3	2			
11	0	0	0	0	465	508	0	0	3	2			
12	0	0	0	0	463	510	0	0	3	2			
13	0	0	0	0	467	510	0	0	3	2			
14	0	0	0	0	472	511	0	0	3	2			
15	0	0	0	0	472	511	0	0	3	2			
0	0	0	0	0	476	512	0	0	3	2			
1	0	0	0	0	480	512	0	0	3	2			
2	0	0	0	0	480	511	0	0	3	2			
3	0	0	0	0	480	510	0	0	3	2			
4	0	0	0	0	480	511	0	0	3	2			
5	0	0	0	0	483	511	0	0	3	2			
6	0	0	0	0	487	511	0	0	3	2			
7	0	0	0	0	487	511	0	0	3	2			
8	0	0	0	0	483	508	0	0	3	2			
9	0	0	0	0	476	504	0	7	3	2			
10	0	0	0	0	476	504	0	7	3	2			
11	0	0	0	0	476	508	0	7	3	2			
12	0	0	0	0	467	508	0	7	3	2			
13	0	0	0	0	463	508	0	7	3	2			
14	0	0	0	0	463	508	0	7	3	2			
15	0	0	0	0	467	508	0	7	3	2			
0	0	0	0	0	467	512	0	6	3	2			
1	0	0	0	0	472	511	0	7	3	2			
2	0	0	0	0	472	511	0	7	3	2			
3	0	0	0	0	472	510	0	7	3	2			
4	0	0	0	0	472	511	0	7	3	2			
5	0	0	0	0	476	512	0	12	3	2			
6	0	0	0	0	480	511	0	12	3	2			
7	0	0	0	0	480	511	0	12	3	2			
8	0	0	0	0	480	510	0	12	3	2			
9	0	0	0	0	480	508	0	12	3	2			
10	0	0	0	0	480	510	0	12	3	2			
11	0	0	0	0	481	504	0	12	3	2			
12	0	0	0	0	480	504	0	12	3	2			
13	0	0	0	0	473	508	0	7	4	2			
14	0	0	0	0	467	508	0	7	3	2			
15	0	0	0	0	463	508	0	7	3	2			
0	0	0	0	0	472	508	0	7	3	2			
1	0	0	0	0	472	510	0	3	3	2			
2	0	0	0	0	465	511	0	3	3	2			
3	0	0	0	0	467	511	0	3	3	2			
4	0	0	0	0	472	510	0	7	3	2			
5	0	0	0	0	476	511	0	7	3	2			
6	0	0	0	0	476	511	0	7	3	2			
7	0	0	0	0	476	512	0	7	3	2			
8	0	0	0	0	476	512	0	7	3	2			
9	0	0	0	0	480	512	0	7	3	2			
10	0	0	0	0	480	513	0	7	4	2			
11	0	0	0	0	476	512	0	7	3	2			
12	0	0	0	0	472	512	0	7	3	2			
13	0	0	0	0	472	513	0	7	3	2			
14	0	0	0	0	472	511	0	7	3	2			
15	0	0	0	0	472	511	0	0	3	2			
0	0	0	0	0	472	512	0	0	3	2			
1	0	0	0	0	472	511	0	0	3	2			
2	0	0	0	0	476	510	0	0	3	2			
3	0	0	0	0	476	508	0	0	4	2			
4	0	0	0	0	476	510	0	0	3	2			
5	0	0	0	0	476	508	0	0	3	2			
6	0	0	0	0	476	511	0	0	3	2			
7	0	0	0	0	480	510	0	0	3	2			
8	0	0	0	0	473	511	0	0	3	2			
9	0	0	0	0	463	508	0	0	3	2			
10	0	0	0	0	463	510	0	0	3	2			
11	0	0	0	0	476	510	0	0	3	2			
12	0	0	0	0	480	512	0	0	3	2			
13	0	0	0	0	480	511	0	0	3	2			
14	0	0	0	0	480	510	0	0	3	2			
15	0	0	0	0	480	510	0	0	3	2			
0	0	0	0	0	480	508	0	0	3	2			
1	0	0	0	0	476	508	0	0	3	2			
2	0	0	0	0	472	508	0	0	3	2			
3	0	0	0	0	463	505	0	0	3	2			
4	0	0	0	0	463	505	0	0	3	2			
5	0	0	0	0	467	508	0	0	3	2			
6	0	0	0	0	472	505	0	0	3	2			
7	0	0	0	0	476	504	0	0	3	2			
8	0	0	0	0	478	504	0	0	3	2			
9	0	0	0	0	480	508	0	0	3	2			
10	0	0	0	0	487	510	0	0	3	2			
11	0	0	0	0	487	510	0	0	3	2			
12	0	0	0	0	487	511	0	0	3	2			
13	0	0	0	0	483	511	0	0	3	2			
14	0	0	0	0	480	511	0	0	4	2			
15	0	0	0	0	476	510	0	0	3	2			
0	0	0	0	0	472	510	0	0	3	2			
1	0	0	0	0	467	510	0	0	4	2			
2	0	0	0	0	463	510	0	0	3	2			
3	0	0	0	0	463	511	0	0	3	2			
4	0	0	0	0	465	511	0	0	3	2			
5	0	0	0	0	472	510	0	0	3	2			
6	0	0	0	0	472	511	0	0	3	2			
7	0	0	0	0	476	508	0	0	3	2			
8	0	0	0	0	486	508	0	0	3	2			
9	0	0	0	0	487	510	0	0	3	2			
10	0	0	0	0	487	510	0	0	3	2			
11	0	0	0	0	480	510	0	0	3	2			
12	0	0	0	0	480	510	0	0	3	2			
13	0	0	0	0	476	508	0	0	3	2			
14	0	0	0	0	476	510	0	0	3	2			
15	0	0	0	0	480	508	0	0	3	2			
0	0	0	0	0	480	511	0	0	3	2			
1	0	0	0	0	476	510	0	0	3	2			
2	0	0	0	0	476	510	0	0	3	2			
3	0	0	0	0	480	512	0	0	3	2			
4	0	0	0	0	480	511	0	0	3	2			
5	0	0	0	0	480	512	0	0	3	2			
6	0	0	0	0	478	511	0	0	3	2			
7	0	0	0	0	480	511	0	0	3	2			
8	0	0	0	0	478	510	0	0	3	2			
9	0	0	0	0	476	508	0	0	3	2			
10	0	0	0	0	476	508	0	0	3	2			
11	0	0	0	0	480	511	0	0	4	2			
12	0	0	0	0	480	510	0	0	3	2			
13	0	0	0	0	480	510	0	0	3	2			
14	0	0	0	0	480	508	0	0	3	2			
15	0	0	0	0	476	508	0	0	3	2			
0	0	0	0	0	480	510	0	0	3	2			
1	0	0	0	0	481	508	0	0	3	2			
2	0	0	0	0	486	510	0	0	3	2			
3	0	0	0	0	483	508	0	0	3	2			
4	0	0	0	0	487	511	0	0	3	2			
5	0	0	0	0	483	510	0	0	4	2			
6	0	0	0	0	480	511	0	0	3	2			
7	0	0	0	0	473	511	0	0	3	2			
8	0	0	0	0	472	511	0	0	3	2			
9	0	0	0	0	472	511	0	0	3	2			
10	0	0	0	0	465	511	0	0	3	2			
11	0	0	0	0	463	511	0	0	4	2			
12	0	0	0	0	472	510	0	0	3	2			
13	0	0	0	0	472	511	0	0	3	2			
14	0	0	0	0	472	510	0	0	3	2			
15	0	0	0	0	472	508	0	0	3	2			
0	0	0	0	0	463	510	0	0	3	2			
1	0	0	0	0	462	510	0	0	3	2			
2	0	0	0	0	463	508	0	0	3	2			
3	0	0	0	0	472	508	0	0	3	2			
4	0	0	0	0	478	508	0	0	3	2			
5	0	0	0	0	480	510	0	0	3	2			
6	0	0	0	0	480	508	0	0	3	2			
7	0	0	0	0	483	508	0	0	3	2			
8	0	0	0	0	483	510	0	0	3	2			
9	0	0	0	0	480	510	0	0	3	2			
10	0	0	0	0	478	511	0	0	3	2			
11	0	0	0	0	476	511	0	0	3	2			
12	0	0	0	0	480	511	0	0	3	2			
13	0	0	0	0	480	510	0	0	3	2			
14	0	0	0	0	478	512	0	0	3	2			
15	0	0	0	0	480	512	0	0	3	2			
0	0	0	0	0	480	511	0	0	3	2			
1	0	0	0	0	480	508	0	0	3	2			
2	0	0	0	0	480	511	0	0	3	2			
3	0	0	0	0	476	508	0	0	3	2			
4	0	0	0	0	472	508	0	0	3	2			
5	0	0	0	0	472	504	0	0	3	2			
6	0	0	0	0	472	508	0	0	3	2			
7	0	0	0	0	472	508	0	0	4	2			
8	0	0	0	0	467	508	0	0	3	2			
9	0	0	0	0	467	508	0	0	3	2			
10	0	0	0	0	472	511	0	0	4	2			
11	0	0	0	0	476	510	0	0	3	2			
12	0	0	0	0	480	510	0	0	3	2			
13	0	0	0	0	483	511	0	0	4	2			
14	0	0	0	0	483	510	0	0	3	2			
15	0	0	0	0	480	511	0	0	3	2			
0	0	0	0	0	480	510	0	0	3	2			
1	0	0	0	0	480	510	0	0	3	2			
2	0	0	0	0	480	508	0	0	3	2			
3	0	0	0	0	480	508	0	0	4	2			
4	0	0	0	0	486	510	0	0	3	2			
5	0	0	0	0	487	510	0	0	3	2			
6	0	0	0	0	487	508	0	0	3	2			
7	0	0	0	0	487	505	0	0	3	2			
8	0	0	0	0	487	508	0	0	3	2			
9	0	0	0	0	483	504	0	0	3	2			
10	0	0	0	0	480	508	0	0	3	2			
11	0	0	0	0	472	511	0	0	3	2			
12	0	0	0	0	455	508	0	0	3	2			
13	0	0	0	0	448	508	0	0	3	2			
14	0	0	0	0	451	508	0	0	3	2			
15	0	0	0	0	455	508	0	0	3	2			
0	0	0	0	0	465	510	0	0	3	2			
1	0	0	0	0	472	511	0	0	3	2			
2	0	0	0	0	472	511	0	0	3	2			
3	0	0	0	0	473	510	0	0	3	2			
4	0	0	0	0	480	508	0	0	3	2			
5	0	0	0	0	487	510	0	0	3	2			
6	0	0	0	0	480	510	0	0	3	2			
7	0	0	0	0	473	510	0	0	4	2			
8	0	0	0	0	472	510	0	0	3	2			
9	0	0	0	0	473	510	0	0	3	2			
10	0	0	0	0	478	508	0	0	3	2			
11	0	0	0	0	483	508	0	0	3	2			
12	0	0	0	0	483	508	0	0	3	2			
13	0	0	0	0	480	508	0	0	3	2			
14	0	0	0	0	478	508	0	0	3	2			
15	0	0	0	0	480	510	0	0	3	2			
0	0	0	0	0	480	510	0	0	3	2			
1	0	0	0	0	478	510	0	0	3	2			
2	0	0	0	0	476	508	0	0	3	2			
3	0	0	0	0	476	510	0	0	3	2			
4	0	0	0	0	478	510	0	0	3	2			
5	0	0	0	0	480	511	0	0	3	2			
6	0	0	0	0	480	512	0	0	3	2			
7	0	0	0	0	480	512	0	0	3	2			
8	0	0	0	0	480	511	0	0	3	2			
9	0	0	0	0	480	511	0	0	3	2			
10	0	0	0	0	480	511	0	0	3	2			
11	0	0	0	0	480	510	0	0	4	2			
12	0	0	0	0	480	510	0	0	4	2			
13	0	0	0	0	480	511	0	0	3	2			
14	0	0	0	0	478	510	0	0	3	2			
15	0	0	0	0	473	508	0	0	3	2			
0	0	0	0	0	472	508	0	0	3	2			
1	0	0	0	0	472	510	0	0	3	2			
2	0	0	0	0	476	508	0	0	3	2			
3	0	0	0	0	476	511	0	0	3	2			
4	0	0	0	0	472	510	0	0	3	2			
5	0	0	0	0	476	512	0	0	3	2			
6	0	0	0	0	476	510	0	0	4	2			
7	0	0	0	0	476	510	0	0	4	2			
8	0	0	0	0	472	510	0	0	3	2			
9	0	0	0	0	472	510	0	0	3	2			
10	0	0	0	0	472	511	0	0	3	2			
11	0	0	0	0	478	511	0	0	3	2			
12	0	0	0	0	481	510	0	0	3	2			
13	0	0	0	0	480	511	0	0	3	2			
14	0	0	0	0	480	511	0	0	3	2			
15	0	0	0	0	480	510	0	0	3	2			
0	0	0	0	0	480	511	0	0	3	2			
1	0	0	0	0	480	512	0	0	3	2			
2	0	0	0	0	480	510	0	0	3	2			
3	0	0	0	0	478	508	0	0	3	2			
4	0	0	0	0	473	508	0	0	3	2			
5	0	0	0	0	478	505	0	0	3	2			
6	0	0	0	0	476	505	0	0	4	2			
7	0	0	0	0	472	508	0	0	3	2			
8	0	0	0	0	472	508	0	0	3	2			
9	0	0	0	0	480	508	0	0	3	2			
10	0	0	0	0	480	508	0	0	3	2			
11	0	0	0	0	480	508	0	0	4	2			
12	0	0	0	0	483	511	0	0	4	2			
13	0	0	0	0	480	511	0	0	3	2			
14	0	0	0	0	480	512	0	0	3	2			
15	0	0	0	0	476	511	0	0	3	2			
0	0	0	0	0	476	512	0	0	3	2			
1	0	0	0	0	467	511	0	0	3	2			
2	0	0	0	0	455	512	0	0	3	2			
3	0	0	0	0	455	510	0	0	3	2			
4	0	0	0	0	460	504	0	0	3	2			
5	0	0	0	0	467	504	0	0	3	2			
6	0	0	0	0	472	508	0	0	4	2			
7	0	0	0	0	472	508	0	0	4	2			
8	0	0	0	0	472	508	0	0	3	2			
9	0	0	0	0	473	508	0	0	3	2			
10	0	0	0	0	476	508	0	0	3	2			
11	0	0	0	0	481	510	0	0	4	2			
12	0	0	0	0	481	511	0	0	3	2			
13	0	0	0	0	480	512	0	0	3	2			
14	0	0	0	0	473	511	0	0	3	2			
15	0	0	0	0	476	510	0	0	3	2			
0	0	0	0	0	472	508	0	0	3	2			
1	0	0	0	0	472	512	0	0	3	2			
2	0	0	0	0	476	511	0	0	3	2			
3	0	0	0	0	478	510	0	0	3	2			
4	0	0	0	0	478	508	0	0	3	2			
5	0	0	0	0	472	508	0	0	3	2			
6	0	0	0	0	476	511	0	0	3	2			
7	0	0	0	0	480	512	0	0	3	2			
8	0	0	0	0	478	511	0	0	3	2			
9	0	0	0	0	472	508	0	0	3	2			
10	0	0	0	0	472	510	0	0	3	2			
11	0	0	0	0	472	508	0	0	3	2			
12	0	0	0	0	480	510	0	0	3	2			
13	0	0	0	0	492	510	0	0	3	2			
14	0	0	0	0	494	508	0	0	3	2			
15	0	0	0	0	487	508	0	0	3	2			
0	0	0	0	0	483	508	0	0	3	2			
1	0	0	0	0	480	510	0	0	3	2			
2	0	0	0	0	476	511	0	0	3	2			
3	0	0	0	0	478	510	0	0	3	2			
4	0	0	0	0	480	510	0	0	3	2			
5	0	0	0	0	480	512	0	0	4	2			
6	0	0	0	0	480	512	0	0	3	2			
7	0	0	0	0	480	513	0	0	3	2			
8	0	0	0	0	476	511	0	0	4	2			
9	0	0	0	0	467	512	0	0	3	2			
10	0	0	0	0	463	508	0	0	3	2			
11	0	0	0	0	472	511	0	0	3	2			
12	0	0	0	0	472	511	0	0	3	2			
13	0	0	0	0	476	510	0	0	4	2			
14	0	0	0	0	480	510	0	0	3	2			
15	0	0	0	0	480	508	0	0	3	2			
0	0	0	0	0	480	510	0	0	3	2			
1	0	0	0	0	473	510	0	0	3	2			
2	0	0	0	0	472	510	0	0	3	2			
3	0	0	0	0	472	508	0	0	3	2			
4	0	0	0	0	467	508	0	0	3	2			
5	0	0	0	0	467	508	0	0	3	2			
6	0	0	0	0	465	510	0	0	3	2			
7	0	0	0	0	472	511	0	0	3	2			
8	0	0	0	0	478	511	0	0	3	2			
9	0	0	0	0	480	511	0	0	3	2			
10	0	0	0	0	480	510	0	0	3	2			
11	0	0	0	0	487	508	0	0	4	2			
12	0	0	0	0	487	508	0	0	3	2			
13	0	0	0	0	481	508	0	0	3	2			
14	0	0	0	0	480	508	0	0	3	2			
15	0	0	0	0	476	508	0	0	3	2			
0	0	0	0	0	472	504	0	0	3	2			
1	0	0	0	0	476	508	0	0	3	2			
2	0	0	0	0	473	505	0	0	3	2			
3	0	0	0	0	473	508	0	0	3	2			
4	0	0	0	0	476	508	0	0	3	2			
5	0	0	0	0	472	510	0	0	3	2			
6	0	0	0	0	472	508	0	0	4	2			
7	0	0	0	0	472	510	0	0	3	2			
8	0	0	0	0	472	508	0	0	3	2			
9	0	0	0	0	472	511	0	0	3	2			
10	0	0	0	0	472	508	0	0	3	2			
11	0	0	0	0	476	511	0	0	3	2			
12	0	0	0	0	480	511	0	0	3	2			
13	0	0	0	0	480	512	0	0	4	2			
14	0	0	0	0	483	512	0	0	3	2			
15	0	0	0	0	487	513	0	0	3	2			
0	0	0	0	0	481	512	0	0	3	2			
1	0	0	0	0	480	511	0	0	3	2			
2	0	0	0	0	480	510	0	0	3	2			
3	0	0	0	0	476	510	0	0	3	2			
4	0	0	0	0	472	511	0	0	3	2			
5	0	0	0	0	472	511	0	0	3	2			
6	0	0	0	0	472	508	0	0	3	2			
7	0	0	0	0	476	508	0	0	3	2			
8	0	0	0	0	480	505	0	0	3	2			
9	0	0	0	0	480	508	0	0	3	2			
10	0	0	0	0	481	508	0	0	4	2			
11	0	0	0	0	480	508	0	0	3	2			
12	0	0	0	0	480	508	0	0	3	2			
13	0	0	0	0	480	511	0	0	3	2			
14	0	0	0	0	481	511	0	0	3	2			
15	0	0	0	0	486	510	0	0	3	2			
0	0	0	0	0	487	511	0	0	3	2			
1	0	0	0	0	481	508	0	0	3	2			
2	0	0	0	0	476	510	0	0	3	2			
3	0	0	0	0	467	512	0	0	3	2			
4	0	0	0	0	472	511	0	0	3	2			
5	0	0	0	0	470	511	0	0	3	2			
6	0	0	0	0	472	511	0	0	4	2			
7	0	0	0	0	473	511	0	0	3	2			
8	0	0	0	0	463	510	0	0	3	2			
9	0	0	0	0	463	508	0	0	3	2			
10	0	0	0	0	472	508	0	0	3	2			
11	0	0	0	0	478	505	0	0	3	2			
12	0	0	0	0	480	508	0	0	3	2			
13	0	0	0	0	480	505	0	0	3	2			
14	0	0	0	0	478	508	0	0	3	2			
15	0	0	0	0	476	508	0	0	4	2			
0	0	0	0	0	472	510	0	0	3	2			
1	0	0	0	0	476	510	0	0	4	2			
2	0	0	0	0	472	511	0	0	3	2			
3	0	0	0	0	472	510	0	0	3	2			
4	0	0	0	0	472	511	0	0	3	2			
5	0	0	0	0	472	513	0	0	3	2			
6	0	0	0	0	472	512	0	0	3	2			
7	0	0	0	0	472	511	0	0	3	2			
8	0	0	0	0	472	512	0	0	3	2			
9	0	0	0	0	467	511	0	0	3	2			
10	0	0	0	0	467	511	0	0	3	2			
11	0	0	0	0	472	508	0	0	3	2			
12	0	0	0	0	472	508	0	0	3	2			
13	0	0	0	0	476	510	0	0	3	2			
14	0	0	0	0	480	508	0	0	3	2			
15	0	0	0	0	480	508	0	0	3	2			
0	0	0	0	0	483	508	0	0	3	2			
1	0	0	0	0	487	505	0	0	4	2			
2	0	0	0	0	487	510	0	0	3	2			
3	0	0	0	0	481	508	0	0	3	2			
4	0	0	0	0	480	508	0	0	3	2			
5	0	0	0	0	478	508	0	0	3	2			
6	0	0	0	0	476	508	0	0	3	2			
7	0	0	0	0	476	510	0	0	3	2			
8	0	0	0	0	472	508	0	0	3	2			
9	0	0	0	0	472	510	0	0	3	2			
10	0	0	0	0	472	511	0	0	3	2			
11	0	0	0	0	472	511	0	0	3	2			
12	0	0	0	0	472	511	0	0	3	2			
13	0	0	0	0	472	511	0	0	3	2			
14	0	0	0	0	472	511	0	0	4	2			
15	0	0	0	0	472	510	0	0	3	2			
0	0	0	0	0	472	511	0	0	3	2			
1	0	0	0	0	472	508	0	0	3	2			
2	0	0	0	0	480	511	0	0	4	2			
3	0	0	0	0	481	504	0	0	3	2			
4	0	0	0	0	481	505	0	0	3	2			
5	0	0	0	0	481	504	0	0	4	2			
6	0	0	0	0	483	504	0	0	3	2			
7	0	0	0	0	487	505	0	0	3	2			
8	0	0	0	0	487	508	0	0	3	2			
9	0	0	0	0	487	508	0	0	3	2			
10	0	0	0	0	483	511	0	0	3	2			
11	0	0	0	0	481	511	0	0	3	2			
12	0	0	0	0	480	511	0	0	3	2			
13	0	0	0	0	478	510	0	0	3	2			
14	0	0	0	0	472	511	0	0	3	2			
15	0	0	0	0	463	512	0	0	3	2			
0	0	0	0	0	462	511	0	0	3	2			
1	0	0	0	0	472	512	0	0	3	2			
2	0	0	0	0	473	511	0	0	3	2			
3	0	0	0	0	472	510	0	0	3	2			
4	0	0	0	0	472	510	0	0	3	2			
5	0	0	0	0	478	510	0	0	3	2			
6	0	0	0	0	480	508	0	0	3	2			
7	0	0	0	0	480	504	0	0	3	2			
8	0	0	0	0	480	508	0	0	3	2			
9	0	0	0	0	476	508	0	0	3	2			
10	0	0	0	0	467	508	0	0	3	2			
11	0	0	0	0	472	505	0	0	3	2			
12	0	0	0	0	472	508	0	0	3	2			
13	0	0	0	0	470	510	0	0	3	2			
14	0	0	0	0	467	510	0	0	4	2			
15	0	0	0	0	472	511	0	0	3	2			
0	0	0	0	0	472	511	0	0	3	2			
1	0	0	0	0	472	510	0	0	3	2			
2	0	0	0	0	473	511	0	0	3	2			
3	0	0	0	0	478	511	0	0	3	2			
4	0	0	0	0	476	512	0	0	3	2			
5	0	0	0	0	476	511	0	0	3	2			
6	0	0	0	0	478	512	0	0	3	2			
7	0	0	0	0	476	512	0	0	3	2			
8	0	0	0	0	481	512	0	0	3	2			
9	0	0	0	0	483	511	0	0	4	2			
10	0	0	0	0	487	510	0	0	3	2			
11	0	0	0	0	487	511	0	0	3	2			
12	0	0	0	0	483	508	0	0	3	2			
13	0	0	0	0	480	508	0	0	3	2			
14	0	0	0	0	472	508	0	0	4	2			
15	0	0	0	0	472	508	0	0	3	2			
0	0	0	0	0	467	508	0	0	3	2			
1	0	0	0	0	472	505	0	0	3	2			
2	0	0	0	0	472	505	0	0	3	2			
3	0	0	0	0	472	508	0	1	3	2			
4	0	0	0	0	476	510	0	0	3	2			
5	0	0	0	0	480	510	0	0	3	2			
6	0	0	0	0	480	510	0	0	3	2			
7	0	0	0	0	476	511	0	0	3	2			
8	0	0	0	0	472	512	0	0	3	2			
9	0	0	0	0	472	512	0	0	3	2			
10	0	0	0	0	472	510	0	0	3	2			
11	0	0	0	0	476	508	0	0	3	2			
12	0	0	0	0	476	508	0	0	3	2			
13	0	0	0	0	476	508	0	0	3	2			
14	0	0	0	0	476	510	0	0	3	2			
15	0	0	0	0	476	505	0	0	3	2			
0	0	0	0	0	472	504	0	0	3	2			
1	0	0	0	0	463	508	0	0	4	2			
2	0	0	0	0	463	508	0	0	3	2			
3	0	0	0	0	467	508	0	0	4	2			
4	0	0	0	0	470	511	0	0	3	2			
5	0	0	0	0	472	508	0	0	3	2			
6	0	0	0	0	472	510	0	0	3	2			
7	0	0	0	0	472	508	0	0	3	2			
8	0	0	0	0	483	510	0	0	3	2			
9	0	0	0	0	487	510	0	0	3	2			
10	0	0	0	0	487	511	0	0	4	2			
11	0	0	0	0	481	512	0	0	3	2			
12	0	0	0	0	480	513	0	0	3	2			
13	0	0	0	0	481	511	0	0	3	2			
14	0	0	0	0	486	511	0	0	3	2			
15	0	0	0	0	487	508	0	0	3	2			
0	0	0	0	0	492	510	0	0	3	2			
1	0	0	0	0	492	511	0	0	3	2			
2	0	0	0	0	487	508	0	0	3	2			
3	0	0	0	0	487	508	0	0	3	2			
4	0	0	0	0	481	505	0	0	3	2			
5	0	0	0	0	472	508	0	0	3	2			
6	0	0	0	0	462	504	0	0	3	2			
7	0	0	0	0	460	504	0	0	3	2			
8	0	0	0	0	463	508	0	0	3	2			
9	0	0	0	0	465	510	0	0	3	2			
10	0	0	0	0	467	510	0	0	3	2			
11	0	0	0	0	472	510	0	0	3	2			
12	0	0	0	0	472	510	0	0	3	2			
13	0	0	0	0	472	512	0	0	3	2			
14	0	0	0	0	472	511	0	0	3	2			
15	0	0	0	0	473	512	0	0	3	2			
0	0	0	0	0	478	511	0	0	3	2			
1	0	0	0	0	480	512	0	0	3	2			
2	0	0	0	0	480	510	0	0	4	2			
3	0	0	0	0	480	508	0	0	4	2			
4	0	0	0	0	480	510	0	0	3	2			
5	0	0	0	0	476	508	0	0	3	2			
6	0	0	0	0	472	508	0	0	3	2			
7	0	0	0	0	472	508	0	0	3	2			
8	0	0	0	0	472	508	0	0	3	2			
9	0	0	0	0	480	508	0	0	3	2			
10	0	0	0	0	480	508	0	0	3	2			
11	0	0	0	0	478	508	0	0	3	2			
12	0	0	0	0	476	508	0	0	3	2			
13	0	0	0	0	472	508	0	0	3	2			
14	0	0	0	0	472	508	0	0	3	2			
15	0	0	0	0	472	510	0	0	3	2			
0	0	0	0	0	472	511	0	0	3	2			
1	0	0	0	0	472	510	0	0	3	2			
2	0	0	0	0	476	512	0	0	3	2			
3	0	0	0	0	473	511	0	0	3	2			
4	0	0	0	0	472	510	0	0	3	2			
5	0	0	0	0	472	511	0	0	3	2			
6	0	0	0	0	476	511	0	0	3	2			
7	0	0	0	0	476	511	0	0	3	2			
8	0	0	0	0	480	511	0	0	3	2			
9	0	0	0	0	476	510	0	0	3	2			
10	0	0	0	0	473	508	0	0	3	2			
11	0	0	0	0	472	508	0	0	3	2			
12	0	0	0	0	472	510	0	0	3	2			
13	0	0	0	0	476	505	0	0	3	2			
14	0	0	0	0	480	508	0	0	3	2			
15	0	0	0	0	480	508	0	0	3	2			
0	0	0	0	0	480	510	0	0	3	2			
1	0	0	0	0	480	508	0	0	3	2			
2	0	0	0	0	476	508	0	0	3	2			
3	0	0	0	0	480	510	0	0	3	2			
4	0	0	0	0	478	510	0	0	3	2			
5	0	0	0	0	473	508	0	0	3	2			
6	0	0	0	0	465	511	0	0	3	2			
7	0	0	0	0	455	511	0	0	3	2			
8	0	0	0	0	463	508	0	0	3	2			
9	0	0	0	0	472	510	0	0	3	2			
10	0	0	0	0	476	510	0	0	3	2			
11	0	0	0	0	476	510	0	0	4	2			
12	0	0	0	0	480	510	0	0	3	2			
13	0	0	0	0	483	511	0	0	3	2			
14	0	0	0	0	492	510	0	0	3	2			
15	0	0	0	0	492	508	0	0	3	2			
0	0	0	0	0	486	508	0	0	3	2			
1	0	0	0	0	480	508	0	0	3	2			
2	0	0	0	0	480	508	0	0	3	2			
3	0	0	0	0	476	510	0	0	3	2			
4	0	0	0	0	476	510	0	0	3	2			
5	0	0	0	0	480	511	0	0	3	2			
6	0	0	0	0	476	508	0	0	3	2			
7	0	0	0	0	476	512	0	0	3	2			
8	0	0	0	0	480	512	0	0	3	2			
9	0	0	0	0	476	511	0	0	3	2			
10	0	0	0	0	473	512	0	0	3	2			
11	0	0	0	0	473	510	0	0	4	2			
12	0	0	0	0	472	512	0	0	3	2			
13	0	0	0	0	472	512	0	0	3	2			
14	0	0	0	0	473	512	0	0	3	2			
15	0	0	0	0	478	512	0	0	3	2			
0	0	0	0	0	476	511	0	0	3	2			
1	0	0	0	0	480	508	0	0	3	2			
2	0	0	0	0	483	511	0	0	3	2			
3	0	0	0	0	480	510	0	0	4	2			
4	0	0	0	0	480	510	0	0	3	2			
5	0	0	0	0	480	510	0	0	3	2			
6	0	0	0	0	480	508	0	0	3	2			
7	0	0	0	0	476	510	0	0	4	2			
8	0	0	0	0	476	508	0	0	3	2			
9	0	0	0	0	478	508	0	0	3	2			
10	0	0	0	0	476	510	0	0	3	2			
11	0	0	0	0	478	510	0	0	3	2			
12	0	0	0	0	472	510	0	0	3	2			
13	0	0	0	0	467	508	0	0	3	2			
14	0	0	0	0	467	512	0	0	3	2			
15	0	0	0	0	465	511	0	0	4	2			
0	0	0	0	0	467	511	0	0	3	2			
1	0	0	0	0	472	510	0	0	3	2			
2	0	0	0	0	476	510	0	0	3	2			
3	0	0	0	0	480	510	0	0	3	2			
4	0	0	0	0	483	511	0	0	3	2			
5	0	0	0	0	481	511	0	0	3	2			
6	0	0	0	0	476	508	0	0	3	2			
7	0	0	0	0	476	508	0	0	3	2			
8	0	0	0	0	480	508	0	0	3	2			
9	0	0	0	0	480	505	0	0	3	2			
10	0	0	0	0	472	508	0	0	3	2			
11	0	0	0	0	463	505	0	0	3	2			
12	0	0	0	0	463	508	0	0	3	2			
13	0	0	0	0	467	508	0	0	3	2			
14	0	0	0	0	472	510	0	0	3	2			
15	0	0	0	0	472	510	0	0	3	2			
0	0	0	0	0	472	508	0	0	3	2			
1	0	0	0	0	472	511	0	0	4	2			
2	0	0	0	0	472	510	0	0	3	2			
3	0	0	0	0	472	511	0	0	3	2			
4	0	0	0	0	476	512	0	0	3	2			
5	0	0	0	0	472	511	0	0	3	2			
6	0	0	0	0	472	511	0	0	3	2			
7	0	0	0	0	472	510	0	0	4	2			
8	0	0	0	0	472	510	0	0	3	2			
9	0	0	0	0	476	511	0	0	3	2			
10	0	0	0	0	480	511	0	0	3	2			
11	0	0	0	0	480	511	0	0	3	2			
12	0	0	0	0	480	510	0	0	3	2			
13	0	0	0	0	480	510	0	0	3	2			
14	0	0	0	0	480	508	0	0	3	2			
15	0	0	0	0	480	504	0	0	3	2			
0	0	0	0	0	476	505	0	0	3	2			
1	0	0	0	0	476	508	0	0	3	2			
2	0	0	0	0	476	508	0	1	3	2			
3	0	0	0	0	472	508	0	1	3	2			
4	0	0	0	0	467	510	0	1	3	2			
5	0	0	0	0	472	512	0	1	3	2			
6	0	0	0	0	476	511	0	3	3	2			
7	0	0	0	0	487	512	0	3	3	2			
8	0	0	0	0	494	512	0	1	3	2			
9	0	0	0	0	487	511	0	3	3	2			
10	0	0	0	0	480	511	0	3	3	2			
11	0	0	0	0	472	510	0	3	3	2			
12	0	0	0	0	472	510	0	3	3	2			
13	0	0	0	0	480	510	0	3	3	2			
14	0	0	0	0	480	508	0	3	3	2			
15	0	0	0	0	480	508	0	3	3	2			
0	0	0	0	0	480	510	0	1	3	2			
1	0	0	0	0	473	504	0	12	3	2			
2	0	0	0	0	472	504	0	14	3	2			
3	0	0	0	0	465	504	0	15	3	2			
4	0	0	0	0	467	508	0	17	3	2			
5	0	0	0	0	470	508	0	19	3	2			
6	0	0	0	0	472	510	0	16	3	2			
7	0	0	0	0	472	508	0	19	3	2			
8	0	0	0	0	476	510	0	17	3	2			
9	0	0	0	0	476	511	0	17	3	2			
10	0	0	0	0	481	511	0	15	3	2			
11	0	0	0	0	483	510	0	15	4	2			
12	0	0	0	0	481	512	0	15	3	2			
13	0	0	0	0	483	512	0	15	3	2			
14	0	0	0	0	483	511	0	19	3	2			
15	0	0	0	0	481	512	0	17	3	2			
0	0	0	0	0	480	511	0	15	3	2			
1	0	0	0	0	476	510	0	17	3	2			
2	0	0	0	0	478	510	0	15	3	2			
3	0	0	0	0	476	508	0	15	4	2			
4	0	0	0	0	467	508	0	15	4	2			
5	0	0	0	0	460	508	0	15	3	2			
6	0	0	0	0	467	510	0	15	3	2			
7	0	0	0	0	480	510	0	15	3	2			
8	0	0	0	0	481	510	0	15	3	2			
9	0	0	0	0	480	505	0	15	3	2			
10	0	0	0	0	476	508	0	15	3	2			
11	0	0	0	0	472	508	0	19	3	2			
12	0	0	0	0	467	510	0	19	4	2			
13	0	0	0	0	472	511	0	19	4	2			
14	0	0	0	0	472	510	0	19	3	2			
15	0	0	0	0	476	511	0	19	3	2			
0	0	0	0	0	476	510	0	24	3	2			
1	0	0	0	0	473	511	0	19	3	2			
2	0	0	0	0	472	512	0	22	3	2			
3	0	0	0	0	472	511	0	19	3	2			
4	0	0	0	0	472	508	0	22	3	2			
5	0	0	0	0	472	510	0	24	3	2			
6	0	0	0	0	476	511	0	17	3	2			
7	0	0	0	0	478	508	0	19	3	2			
8	0	0	0	0	480	510	0	19	3	2			
9	0	0	0	0	480	505	0	19	3	2			
10	0	0	0	0	480	504	0	24	3	2			
11	0	0	0	0	480	508	0	24	4	2			
12	0	0	0	0	480	508	0	19	3	2			
13	0	0	0	0	472	504	0	19	4	2			
14	0	0	0	0	467	510	0	19	3	2			
15	0	0	0	0	467	510	0	24	3	2			
0	0	0	0	0	467	511	0	19	3	2			
1	0	0	0	0	472	508	0	17	3	2			
2	0	0	0	0	472	511	0	22	3	2			
3	0	0	0	0	476	511	0	17	3	2			
4	0	0	0	0	480	511	0	19	3	2			
5	0	0	0	0	476	511	0	19	3	2			
6	0	0	0	0	472	511	0	22	4	2			
7	0	0	0	0	472	511	0	19	3	2			
8	0	0	0	0	476	511	0	19	3	2			
9	0	0	0	0	480	511	0	19	3	2			
10	0	0	0	0	480	510	0	19	3	2			
11	0	0	0	0	480	508	0	22	3	2			
12	0	0	0	0	487	508	0	24	3	2			
13	0	0	0	0	496	504	0	22	4	2			
14	0	0	0	0	486	508	0	17	3	2			
15	0	0	0	0	481	508	0	15	3	2			
0	0	0	0	0	480	508	0	19	3	2			
1	0	0	0	0	480	510	0	14	3	2			
2	0	0	0	0	480	511	0	12	3	2			
3	0	0	0	0	472	511	0	7	3	2			
4	0	0	0	0	472	510	0	7	3	2			
5	0	0	0	0	472	510	0	7	3	2			
6	0	0	0	0	472	511	0	7	3	2			
7	0	0	0	0	472	512	0	7	3	2			
8	0	0	0	0	467	511	0	7	3	2			
9	0	0	0	0	460	511	0	7	3	2			
10	0	0	0	0	462	508	0	7	3	2			
11	0	0	0	0	467	510	0	12	3	2			
12	0	0	0	0	472	511	0	12	3	2			
13	0	0	0	0	476	510	0	12	3	2			
14	0	0	0	0	480	508	0	12	3	2			
15	0	0	0	0	483	508	0	12	3	2			
0	0	0	0	0	487	510	0	7	3	2			
1	0	0	0	0	487	511	0	7	3	2			
2	0	0	0	0	478	508	0	7	3	2			
3	0	0	0	0	472	508	0	7	3	2			
4	0	0	0	0	472	508	0	7	3	2			
5	0	0	0	0	472	510	0	7	3	2			
6	0	0	0	0	472	508	0	9	4	2			
7	0	0	0	0	472	510	0	12	3	2			
8	0	0	0	0	472	510	0	12	3	2			
9	0	0	0	0	472	510	0	12	3	2			
10	0	0	0	0	473	511	0	7	3	2			
11	0	0	0	0	476	511	0	12	3	2			
12	0	0	0	0	480	512	0	14	3	2			
13	0	0	0	0	478	511	0	12	3	2			
14	0	0	0	0	480	511	0	7	3	2			
15	0	0	0	0	480	511	0	7	3	2			
0	0	0	0	0	480	511	0	7	3	2			
1	0	0	0	0	481	510	0	7	3	2			
2	0	0	0	0	483	510	0	12	3	2			
3	0	0	0	0	480	508	0	12	3	2			
4	0	0	0	0	476	508	0	12	3	2			
5	0	0	0	0	472	508	0	12	3	2			
6	0	0	0	0	472	504	0	14	3	2			
7	0	0	0	0	472	508	0	12	3	2			
8	0	0	0	0	472	508	0	12	3	2			
9	0	0	0	0	472	508	0	12	3	2			
10	0	0	0	0	472	508	0	12	3	2			
11	0	0	0	0	472	511	0	12	3	2			
12	0	0	0	0	476	512	0	12	3	2			
13	0	0	0	0	476	508	0	12	3	2			
14	0	0	0	0	476	510	0	12	3	2			
15	0	0	0	0	476	511	0	14	3	2			
0	0	0	0	0	476	511	0	12	3	2			
1	0	0	0	0	476	512	0	14	3	2			
2	0	0	0	0	476	508	0	14	3	2			
3	0	0	0	0	480	510	0	14	3	2			
4	0	0	0	0	481	510	0	14	3	2			
5	0	0	0	0	480	510	0	12	3	2			
6	0	0	0	0	476	508	0	14	3	2			
7	0	0	0	0	476	508	0	14	3	2			
8	0	0	0	0	478	505	0	12	3	2			
9	0	0	0	0	473	508	0	12	3	2			
10	0	0	0	0	472	510	0	14	3	2			
11	0	0	0	0	467	508	0	12	3	2			
12	0	0	0	0	463	510	0	14	3	2			
13	0	0	0	0	463	508	0	14	3	2			
14	0	0	0	0	465	505	0	14	3	2			
15	0	0	0	0	470	505	0	12	3	2			
0	0	0	0	0	472	510	0	15	3	2			
1	0	0	0	0	472	510	0	12	4	2			
2	0	0	0	0	476	510	0	14	3	2			
3	0	0	0	0	480	512	0	12	3	2			
4	0	0	0	0	481	512	0	14	3	2			
5	0	0	0	0	487	511	0	0	3	2			
6	0	0	0	0	480	515	0	0	3	2			
7	0	0	0	0	480	511	0	0	3	2			
8	0	0	0	0	480	510	0	0	3	2			
9	0	0	0	0	480	510	0	0	3	2			
10	0	0	0	0	481	505	0	0	4	2			
11	0	0	0	0	480	508	0	0	3	2			
12	0	0	0	0	476	510	0	0	3	2			
13	0	0	0	0	460	508	0	0	3	2			
14	0	0	0	0	448	508	0	0	3	2			
15	0	0	0	0	449	508	0	0	4	2			
0	0	0	0	0	455	508	0	0	3	2			
1	0	0	0	0	463	510	0	0	3	2			
2	0	0	0	0	472	510	0	0	3	2			
3	0	0	0	0	472	508	0	0	3	2			
4	0	0	0	0	476	510	0	0	3	2			
5	0	0	0	0	480	512	0	0	3	2			
6	0	0	0	0	480	511	0	0	3	2			
7	0	0	0	0	476	510	0	0	3	2			
8	0	0	0	0	472	510	0	0	3	2			
9	0	0	0	0	480	511	0	0	3	2			
10	0	0	0	0	480	510	0	0	3	2			
11	0	0	0	0	483	510	0	0	3	2			
12	0	0	0	0	487	508	0	0	3	2			
13	0	0	0	0	483	504	0	0	3	2			
14	0	0	0	0	483	508	0	0	3	2			
15	0	0	0	0	483	508	0	0	3	2			
0	0	0	0	0	480	508	0	0	3	2			
1	0	0	0	0	480	508	0	0	3	2			
2	0	0	0	0	476	508	0	0	3	2			
3	0	0	0	0	476	508	0	0	3	2			
4	0	0	0	0	476	508	0	0	3	2			
5	0	0	0	0	472	510	0	0	3	2			
6	0	0	0	0	472	510	0	0	3	2			
7	0	0	0	0	472	508	0	0	3	2			
8	0	0	0	0	476	512	0	0	3	2			
9	0	0	0	0	480	511	0	0	3	2			
10	0	0	0	0	480	511	0	0	3	2			
11	0	0	0	0	480	511	0	0	3	2			
12	0	0	0	0	476	511	0	0	3	2			
13	0	0	0	0	476	511	0	0	3	2			
14	0	0	0	0	480	510	0	0	3	2			
15	0	0	0	0	478	510	0	0	3	2			
0	0	0	0	0	476	510	0	0	3	2			
1	0	0	0	0	476	511	0	0	3	2			
2	0	0	0	0	476	511	0	0	3	2			
3	0	0	0	0	476	510	0	0	3	2			
4	0	0	0	0	480	508	0	0	3	2			
5	0	0	0	0	480	508	0	0	3	2			
6	0	0	0	0	476	508	0	0	3	2			
7	0	0	0	0	476	508	0	0	3	2			
8	0	0	0	0	480	508	0	0	3	2			
9	0	0	0	0	480	510	0	0	3	2			
10	0	0	0	0	480	511	0	0	3	2			
11	0	0	0	0	478	511	0	0	3	2			
12	0	0	0	0	467	511	0	0	3	2			
13	0	0	0	0	472	510	0	0	3	2			
14	0	0	0	0	476	510	0	0	3	2			
15	0	0	0	0	472	511	0	0	3	2			
0	0	0	0	0	476	511	0	0	3	2			
1	0	0	0	0	472	511	0	0	3	2			
2	0	0	0	0	467	511	0	0	3	2			
3	0	0	0	0	467	511	0	0	3	2			
4	0	0	0	0	467	510	0	0	3	2			
5	0	0	0	0	472	510	0	0	3	2			
6	0	0	0	0	478	511	0	0	3	2			
7	0	0	0	0	480	510	0	0	3	2			
8	0	0	0	0	480	510	0	0	3	2			
9	0	0	0	0	481	508	0	0	3	2			
10	0	0	0	0	481	508	0	0	3	2			
11	0	0	0	0	481	505	0	0	3	2			
12	0	0	0	0	480	508	0	0	3	2			
13	0	0	0	0	472	505	0	0	3	2			
14	0	0	0	0	463	508	0	0	3	2			
15	0	0	0	0	460	510	0	0	3	2			
0	0	0	0	0	465	510	0	0	3	2			
1	0	0	0	0	472	510	0	0	3	2			
2	0	0	0	0	472	512	0	0	3	2			
3	0	0	0	0	476	512	0	0	3	2			
4	0	0	0	0	478	511	0	0	3	2			
5	0	0	0	0	480	512	0	0	3	2			
6	0	0	0	0	476	511	0	0	3	2			
7	0	0	0	0	476	510	0	0	3	2			
8	0	0	0	0	480	510	0	0	3	2			
9	0	0	0	0	480	508	0	0	3	2			
10	0	0	0	0	480	508	0	0	3	2			
11	0	0	0	0	480	510	0	0	3	2			
12	0	0	0	0	480	508	0	0	3	2			
13	0	0	0	0	480	508	0	0	3	2			
14	0	0	0	0	472	510	0	0	3	2			
15	0	0	0	0	463	510	0	0	3	2			
0	0	0	0	0	463	510	0	0	3	2			
1	0	0	0	0	463	505	0	0	3	2			
2	0	0	0	0	463	504	0	1	3	2			
3	0	0	0	0	472	508	0	0	3	2			
4	0	0	0	0	472	511	0	0	3	2			
5	0	0	0	0	476	511	0	0	3	2			
6	0	0	0	0	487	512	0	0	3	2			
7	0	0	0	0	492	512	0	0	3	2			
8	0	0	0	0	486	511	0	0	3	2			
9	0	0	0	0	480	512	0	0	3	2			
10	0	0	0	0	476	511	0	0	4	2			
11	0	0	0	0	476	508	0	0	3	2			
12	0	0	0	0	483	508	0	0	3	2			
13	0	0	0	0	487	508	0	0	3	2			
14	0	0	0	0	487	508	0	0	3	2			
15	0	0	0	0	487	508	0	0	3	2			
0	0	0	0	0	483	505	0	0	3	2			
1	0	0	0	0	483	504	0	0	3	2			
2	0	0	0	0	483	504	0	0	3	2			
3	0	0	0	0	483	508	0	0	4	2			
4	0	0	0	0	473	508	0	0	4	2			
5	0	0	0	0	467	510	0	0	3	2			
6	0	0	0	0	476	512	0	0	3	2			
7	0	0	0	0	476	511	0	0	3	2			
8	0	0	0	0	472	511	0	0	3	2			
9	0	0	0	0	472	510	0	0	3	2			
10	0	0	0	0	472	511	0	0	3	2			
11	0	0	0	0	472	511	0	0	3	2			
12	0	0	0	0	472	511	0	0	3	2			
13	0	0	0	0	472	508	0	7	3	2			
14	0	0	0	0	473	510	0	7	3	2			
15	0	0	0	0	473	512	0	3	3	2			
0	0	0	0	0	476	512	0	3	3	2			
1	0	0	0	0	476	511	0	3	3	2			
2	0	0	0	0	476	511	0	0	3	2			
3	0	0	0	0	478	510	0	7	3	2			
4	0	0	0	0	480	508	0	3	3	2			
5	0	0	0	0	476	508	0	7	3	2			
6	0	0	0	0	478	510	0	3	3	2			
7	0	0	0	0	476	508	0	0	3	2			
8	0	0	0	0	476	508	0	0	3	2			
9	0	0	0	0	473	510	0	0	3	2			
10	0	0	0	0	473	511	0	0	3	2			
11	0	0	0	0	476	511	0	0	3	2			
12	0	0	0	0	476	510	0	0	3	2			
13	0	0	0	0	476	512	0	0	3	2			
14	0	0	0	0	476	512	0	0	3	2			
15	0	0	0	0	476	510	0	0	3	2			
0	0	0	0	0	480	512	0	0	3	2			
1	0	0	0	0	480	512	0	0	3	2			
2	0	0	0	0	480	508	0	0	3	2			
3	0	0	0	0	476	508	0	0	3	2			
4	0	0	0	0	476	508	0	0	3	2			
5	0	0	0	0	476	508	0	1	3	2			
6	0	0	0	0	473	510	0	0	3	2			
7	0	0	0	0	472	508	0	0	3	2			
8	0	0	0	0	472	508	0	0	3	2			
9	0	0	0	0	472	508	0	0	3	2			
10	0	0	0	0	476	510	0	0	3	2			
11	0	0	0	0	480	508	0	0	3	2			
12	0	0	0	0	478	510	0	0	3	2			
13	0	0	0	0	476	504	0	0	3	2			
14	0	0	0	0	473	510	0	0	3	2			
15	0	0	0	0	478	510	0	0	3	2			
0	0	0	0	0	483	508	0	0	3	2			
1	0	0	0	0	483	511	0	0	3	2			
2	0	0	0	0	472	511	0	0	3	2			
3	0	0	0	0	465	511	0	0	3	2			
4	0	0	0	0	467	511	0	0	3	2			
5	0	0	0	0	467	512	0	0	3	2			
6	0	0	0	0	473	511	0	0	3	2			
7	0	0	0	0	476	512	0	0	3	2			
8	0	0	0	0	467	510	0	0	3	2			
9	0	0	0	0	463	511	0	0	3	2			
10	0	0	0	0	462	510	0	0	3	2			
11	0	0	0	0	462	508	0	0	3	2			
12	0	0	0	0	462	508	0	0	3	2			
13	0	0	0	0	467	508	0	0	3	2			
14	0	0	0	0	472	508	0	0	3	2			
15	0	0	0	0	487	510	0	0	3	2			
0	0	0	0	0	496	508	0	0	3	2			
1	0	0	0	0	487	508	0	0	3	2			
2	0	0	0	0	483	508	0	0	3	2			
3	0	0	0	0	480	510	0	0	3	2			
4	0	0	0	0	478	511	0	0	3	2			
5	0	0	0	0	476	511	0	0	3	2			
6	0	0	0	0	472	511	0	0	3	2			
7	0	0	0	0	480	511	0	0	4	2			
8	0	0	0	0	480	510	0	0	3	2			
9	0	0	0	0	480	511	0	0	3	2			
10	0	0	0	0	478	511	0	0	4	2			
11	0	0	0	0	480	511	0	0	4	2			
12	0	0	0	0	480	510	0	0	3	2			
13	0	0	0	0	480	511	0	0	3	2			
14	0	0	0	0	480	511	0	0	3	2			
15	0	0	0	0	481	508	0	0	3	2			
0	0	0	0	0	478	508	0	0	3	2			
1	0	0	0	0	476	508	0	0	3	2			
2	0	0	0	0	472	508	0	0	3	2			
3	0	0	0	0	472	508	0	0	3	2			
4	0	0	0	0	467	508	0	0	3	2			
5	0	0	0	0	467	508	0	0	3	2			
6	0	0	0	0	472	510	0	0	3	2			
7	0	0	0	0	472	510	0	0	3	2			
8	0	0	0	0	472	510	0	0	3	2			
9	0	0	0	0	476	508	0	0	3	2			
10	0	0	0	0	478	510	0	0	3	2			
11	0	0	0	0	480	508	0	0	3	2			
12	0	0	0	0	480	511	0	0	3	2			
13	0	0	0	0	480	510	0	0	3	2			
14	0	0	0	0	480	508	0	0	3	2			
15	0	0	0	0	480	508	0	0	3	2			
0	0	0	0	0	480	512	0	0	3	2			
1	0	0	0	0	478	512	0	0	3	2			
2	0	0	0	0	478	510	0	0	3	2			
3	0	0	0	0	476	508	0	0	3	2			
4	0	0	0	0	476	508	0	0	3	2			
5	0	0	0	0	478	510	0	0	3	2			
6	0	0	0	0	476	511	0	0	4	2			
7	0	0	0	0	476	508	0	0	4	2			
8	0	0	0	0	472	510	0	0	3	2			
9	0	0	0	0	472	508	0	0	3	2			
10	0	0	0	0	476	508	0	0	3	2			
11	0	0	0	0	480	510	0	0	3	2			
12	0	0	0	0	480	511	0	0	3	2			
13	0	0	0	0	480	508	0	0	3	2			
14	0	0	0	0	480	512	0	0	3	2			
15	0	0	0	0	480	508	0	0	3	2			
0	0	0	0	0	480	511	0	0	3	2			
1	0	0	0	0	476	511	0	0	3	2			
2	0	0	0	0	465	511	0	0	3	2			
3	0	0	0	0	455	508	0	0	3	2			
4	0	0	0	0	460	511	0	0	3	2			
5	0	0	0	0	467	508	0	0	3	2			
6	0	0	0	0	472	508	0	0	3	2			
7	0	0	0	0	472	505	0	0	3	2			
8	0	0	0	0	472	508	0	0	3	2			
9	0	0	0	0	480	510	0	0	3	2			
10	0	0	0	0	480	508	0	0	3	2			
11	0	0	0	0	472	508	0	0	3	2			
12	0	0	0	0	472	510	0	0	3	2			
13	0	0	0	0	476	511	0	0	3	2			
14	0	0	0	0	480	512	0	0	3	2			
15	0	0	0	0	476	510	0	0	3	2			
0	0	0	0	0	476	510	0	0	3	2			
1	0	0	0	0	478	511	0	0	3	2			
2	0	0	0	0	480	512	0	0	3	2			
3	0	0	0	0	483	513	0	0	4	2			
4	0	0	0	0	487	513	0	0	4	2			
5	0	0	0	0	487	512	0	0	3	2			
6	0	0	0	0	481	511	0	0	3	2			
7	0	0	0	0	476	512	0	0	3	2			
8	0	0	0	0	472	511	0	0	3	2			
9	0	0	0	0	467	510	0	0	3	2			
10	0	0	0	0	472	510	0	0	3	2			
11	0	0	0	0	472	510	0	0	3	2			
12	0	0	0	0	472	510	0	0	4	2			
13	0	0	0	0	472	508	0	0	3	2			
14	0	0	0	0	472	508	0	0	3	2			
15	0	0	0	0	476	504	0	0	3	2			
0	0	0	0	0	478	508	0	0	3	2			
1	0	0	0	0	476	508	0	0	3	2			
2	0	0	0	0	476	508	0	0	3	2			
3	0	0	0	0	478	508	0	0	3	2			
4	0	0	0	0	476	508	0	0	3	2			
5	0	0	0	0	480	510	0	0	3	2			
6	0	0	0	0	478	508	0	0	3	2			
7	0	0	0	0	467	512	0	0	3	2			
8	0	0	0	0	463	512	0	0	3	2			
9	0	0	0	0	467	513	0	0	3	2			
10	0	0	0	0	472	511	0	0	3	2			
11	0	0	0	0	473	510	0	0	4	2			
12	0	0	0	0	480	508	0	0	3	2			
13	0	0	0	0	483	508	0	0	3	2			
14	0	0	0	0	494	508	0	0	4	2			
15	0	0	0	0	497	508	0	0	3	2			
0	0	0	0	0	496	510	0	0	3	2			
1	0	0	0	0	496	510	0	0	3	2			
2	0	0	0	0	486	510	0	0	3	2			
3	0	0	0	0	465	508	0	0	4	2			
4	0	0	0	0	462	508	0	0	3	2			
5	0	0	0	0	467	508	0	0	3	2			
6	0	0	0	0	472	508	0	0	3	2			
7	0	0	0	0	472	508	0	0	3	2			
8	0	0	0	0	467	511	0	0	3	2			
9	0	0	0	0	472	511	0	0	3	2			
10	0	0	0	0	476	511	0	0	3	2			
11	0	0	0	0	472	511	0	0	3	2			
12	0	0	0	0	472	512	0	0	3	2			
13	0	0	0	0	476	511	0	0	3	2			
14	0	0	0	0	476	511	0	0	3	2			
15	0	0	0	0	476	510	0	0	3	2			
0	0	0	0	0	476	510	0	0	3	2			
1	0	0	0	0	476	510	0	0	3	2			
2	0	0	0	0	473	508	0	0	3	2			
3	0	0	0	0	472	508	0	0	3	2			
4	0	0	0	0	473	510	0	0	3	2			
5	0	0	0	0	476	510	0	0	3	2			
6	0	0	0	0	478	504	0	0	3	2			
7	0	0	0	0	473	504	0	0	3	2			
8	0	0	0	0	472	508	0	0	3	2			
9	0	0	0	0	473	508	0	0	3	2			
10	0	0	0	0	476	511	0	0	3	2			
11	0	0	0	0	472	511	0	0	3	2			
12	0	0	0	0	472	511	0	0	3	2			
13	0	0	0	0	467	512	0	0	3	2			
14	0	0	0	0	463	511	0	0	3	2			
15	0	0	0	0	472	511	0	0	4	2			
0	0	0	0	0	478	512	0	0	3	2			
1	0	0	0	0	480	512	0	0	3	2			
2	0	0	0	0	480	510	0	0	3	2			
3	0	0	0	0	480	511	0	0	3	2			
4	0	0	0	0	480	511	0	0	3	2			
5	0	0	0	0	480	511	0	0	3	2			
6	0	0	0	0	480	508	0	0	3	2			
7	0	0	0	0	480	508	0	0	3	2			
8	0	0	0	0	476	508	0	0	3	2			
9	0	0	0	0	476	504	0	0	3	2			
10	0	0	0	0	478	508	0	0	3	2			
11	0	0	0	0	476	504	0	0	4	2			
12	0	0	0	0	472	508	0	0	3	2			
13	0	0	0	0	480	508	0	0	3	2			
14	0	0	0	0	481	508	0	0	3	2			
15	0	0	0	0	481	508	0	0	3	2			
0	0	0	0	0	481	508	0	0	3	2			
1	0	0	0	0	481	511	0	0	3	2			
2	0	0	0	0	480	510	0	0	3	2			
3	0	0	0	0	480	511	0	0	3	2			
4	0	0	0	0	478	511	0	0	3	2			
5	0	0	0	0	463	512	0	0	3	2			
6	0	0	0	0	463	511	0	0	3	2			
7	0	0	0	0	467	512	0	0	4	2			
8	0	0	0	0	467	511	0	0	3	2			
9	0	0	0	0	472	508	0	0	3	2			
10	0	0	0	0	476	508	0	0	3	2			
11	0	0	0	0	480	511	0	0	4	2			
12	0	0	0	0	480	510	0	0	3	2			
13	0	0	0	0	476	505	0	0	3	2			
14	0	0	0	0	472	504	0	0	3	2			
15	0	0	0	0	472	508	0	0	3	2			
0	0	0	0	0	473	508	0	0	3	2			
1	0	0	0	0	476	510	0	0	3	2			
2	0	0	0	0	476	508	0	0	3	2			
3	0	0	0	0	476	508	0	0	3	2			
4	0	0	0	0	478	510	0	0	4	2			
5	0	0	0	0	480	512	0	0	3	2			
6	0	0	0	0	476	512	0	0	4	2			
7	0	0	0	0	473	512	0	0	3	2			
8	0	0	0	0	472	511	0	0	3	2			
9	0	0	0	0	473	508	0	0	3	2			
10	0	0	0	0	476	508	0	0	3	2			
11	0	0	0	0	476	508	0	0	3	2			
12	0	0	0	0	480	511	0	0	3	2			
13	0	0	0	0	480	508	0	0	3	2			
14	0	0	0	0	480	511	0	0	3	2			
15	0	0	0	0	476	508	0	0	3	2			
0	0	0	0	0	480	508	0	0	3	2			
1	0	0	0	0	480	508	0	0	3	2			
2	0	0	0	0	480	510	0	0	3	2			
3	0	0	0	0	480	508	0	0	3	2			
4	0	0	0	0	478	508	0	0	3	2			
5	0	0	0	0	472	510	0	0	3	2			
6	0	0	0	0	476	510	0	0	3	2			
7	0	0	0	0	472	508	0	0	3	2			
8	0	0	0	0	472	511	0	0	3	2			
9	0	0	0	0	467	508	0	0	3	2			
10	0	0	0	0	472	512	0	0	3	2			
11	0	0	0	0	472	512	0	0	3	2			
12	0	0	0	0	467	512	0	0	4	2			
13	0	0	0	0	463	508	0	0	3	2			
14	0	0	0	0	460	511	0	0	3	2			
15	0	0	0	0	462	510	0	0	3	2			
0	0	0	0	0	467	510	0	0	3	2			
1	0	0	0	0	480	511	0	0	3	2			
2	0	0	0	0	486	510	0	0	3	2			
3	0	0	0	0	483	510	0	0	3	2			
4	0	0	0	0	481	508	0	0	3	2			
5	0	0	0	0	494	505	0	0	3	2			
6	0	0	0	0	511	508	0	0	3	2			
7	0	0	0	0	504	504	0	0	3	2			
8	0	0	0	0	492	508	0	0	3	2			
9	0	0	0	0	481	508	0	0	3	2			
10	0	0	0	0	480	504	0	0	3	2			
11	0	0	0	0	478	508	0	0	3	2			
12	0	0	0	0	472	510	0	0	3	2			
13	0	0	0	0	463	510	0	0	3	2			
14	0	0	0	0	472	511	0	0	3	2			
15	0	0	0	0	472	511	0	0	3	2			
0	0	0	0	0	476	511	0	0	4	2			
1	0	0	0	0	480	510	0	0	3	2			
2	0	0	0	0	472	511	0	0	3	2			
3	0	0	0	0	472	511	0	0	3	2			
4	0	0	0	0	472	512	0	0	4	2			
5	0	0	0	0	476	511	0	0	4	2			
6	0	0	0	0	478	511	0	0	3	2			
7	0	0	0	0	476	511	0	0	3	2			
8	0	0	0	0	467	508	0	0	3	2			
9	0	0	0	0	463	510	0	0	3	2			
10	0	0	0	0	476	508	0	0	3	2			
11	0	0	0	0	481	508	0	0	3	2			
12	0	0	0	0	481	508	0	0	3	2			
13	0	0	0	0	480	510	0	0	3	2			
14	0	0	0	0	480	510	0	0	3	2			
15	0	0	0	0	478	511	0	0	3	2			
0	0	0	0	0	480	510	0	0	3	2			
1	0	0	0	0	478	511	0	0	3	2			
2	0	0	0	0	478	510	0	0	3	2			
3	0	0	0	0	480	512	0	0	3	2			
4	0	0	0	0	480	511	0	0	3	2			
5	0	0	0	0	478	511	0	0	3	2			
6	0	0	0	0	472	510	0	0	3	2			
7	0	0	0	0	467	508	0	0	3	2			
8	0	0	0	0	467	511	0	0	3	2			
9	0	0	0	0	472	510	0	0	3	2			
10	0	0	0	0	463	511	0	0	3	2			
11	0	0	0	0	462	508	0	0	3	2			
12	0	0	0	0	463	510	0	0	3	2			
13	0	0	0	0	463	508	0	0	3	2			
14	0	0	0	0	467	508	0	0	3	2			
15	0	0	0	0	472	508	0	0	4	2			
0	0	0	0	0	480	508	0	0	3	2			
1	0	0	0	0	486	508	0	0	3	2			
2	0	0	0	0	483	508	0	0	3	2			
3	0	0	0	0	480	508	0	0	3	2			
4	0	0	0	0	480	510	0	0	3	2			
5	0	0	0	0	476	510	0	0	3	2			
6	0	0	0	0	473	511	0	0	3	2			
7	0	0	0	0	480	512	0	0	3	2			
8	0	0	0	0	480	510	0	0	3	2			
9	0	0	0	0	481	508	0	0	3	2			
10	0	0	0	0	483	504	0	6	3	2			
11	0	0	0	0	487	505	0	7	3	2			
12	0	0	0	0	483	508	0	7	3	2			
13	0	0	0	0	483	511	0	7	3	2			
14	0	0	0	0	481	511	0	7	3	2			
15	0	0	0	0	480	508	0	7	3	2			
0	0	0	0	0	480	511	0	7	3	2			
1	0	0	0	0	480	510	0	7	3	2			
2	0	0	0	0	478	508	0	7	3	2			
3	0	0	0	0	473	508	0	7	4	2			
4	0	0	0	0	472	508	0	7	4	2			
5	0	0	0	0	472	508	0	9	3	2			
6	0	0	0	0	465	510	0	12	3	2			
7	0	0	0	0	463	510	0	12	3	2			
8	0	0	0	0	467	511	0	7	3	2			
9	0	0	0	0	473	512	0	7	4	2			
10	0	0	0	0	476	512	0	7	3	2			
11	0	0	0	0	476	512	0	7	3	2			
12	0	0	0	0	476	511	0	7	3	2			
13	0	0	0	0	472	511	0	7	3	2			
14	0	0	0	0	472	511	0	7	3	2			
15	0	0	0	0	472	510	0	7	3	2			
0	0	0	0	0	472	510	0	7	3	2			
1	0	0	0	0	476	508	0	12	3	2			
2	0	0	0	0	480	510	0	7	3	2			
3	0	0	0	0	480	504	0	7	3	2			
4	0	0	0	0	476	508	0	12	3	2			
5	0	0	0	0	472	508	0	7	3	2			
6	0	0	0	0	472	508	0	7	3	2			
7	0	0	0	0	473	508	0	7	4	2			
8	0	0	0	0	472	508	0	9	3	2			
9	0	0	0	0	473	508	0	7	3	2			
10	0	0	0	0	476	505	0	9	3	2			
11	0	0	0	0	476	508	0	7	3	2			
12	0	0	0	0	476	511	0	9	3	2			
13	0	0	0	0	476	511	0	7	3	2			
14	0	0	0	0	467	510	0	7	3	2			
15	0	0	0	0	460	512	0	7	3	2			
0	0	0	0	0	463	511	0	7	3	2			
1	0	0	0	0	467	512	0	7	3	2			
2	0	0	0	0	472	511	0	7	3	2			
3	0	0	0	0	472	511	0	7	3	2			
4	0	0	0	0	472	508	0	7	3	2			
5	0	0	0	0	472	510	0	6	3	2			
6	0	0	0	0	472	508	0	3	3	2			
7	0	0	0	0	476	508	0	6	3	2			
8	0	0	0	0	476	504	0	7	3	2			
9	0	0	0	0	476	508	0	9	3	2			
10	0	0	0	0	472	505	0	7	3	2			
11	0	0	0	0	472	508	0	7	3	2			
12	0	0	0	0	480	508	0	9	3	2			
13	0	0	0	0	480	510	0	12	3	2			
14	0	0	0	0	481	510	0	7	3	2			
15	0	0	0	0	487	508	0	12	3	2			
0	0	0	0	0	487	511	0	12	3	2			
1	0	0	0	0	487	511	0	12	3	2			
2	0	0	0	0	480	510	0	12	3	2			
3	0	0	0	0	467	510	0	12	3	2			
4	0	0	0	0	463	510	0	12	3	2			
5	0	0	0	0	467	510	0	14	3	2			
6	0	0	0	0	476	511	0	14	3	2			
7	0	0	0	0	478	510	0	15	3	2			
8	0	0	0	0	476	510	0	15	3	2			
9	0	0	0	0	480	511	0	15	4	2			
10	0	0	0	0	481	511	0	12	3	2			
11	0	0	0	0	480	508	0	12	3	2			
12	0	0	0	0	472	508	0	12	4	2			
13	0	0	0	0	467	508	0	14	3	2			
14	0	0	0	0	467	508	0	14	3	2			
15	0	0	0	0	465	510	0	14	3	2			
0	0	0	0	0	465	510	0	15	3	2			
1	0	0	0	0	467	511	0	15	3	2			
2	0	0	0	0	472	510	0	16	3	2			
3	0	0	0	0	481	510	0	19	3	2			
4	0	0	0	0	487	510	0	19	4	2			
5	0	0	0	0	486	508	0	19	4	2			
6	0	0	0	0	483	511	0	24	3	2			
7	0	0	0	0	483	512	0	24	3	2			
8	0	0	0	0	480	512	0	24	3	2			
9	0	0	0	0	476	511	0	24	3	2			
10	0	0	0	0	472	511	0	24	3	2			
11	0	0	0	0	476	511	0	25	3	2			
12	0	0	0	0	476	504	0	25	3	2			
13	0	0	0	0	478	508	0	24	3	2			
14	0	0	0	0	476	508	0	24	3	2			
15	0	0	0	0	476	508	0	24	3	2			
0	0	0	0	0	476	505	0	28	3	2			
1	0	0	0	0	465	508	0	28	3	2			
2	0	0	0	0	462	508	0	25	3	2			
3	0	0	0	0	463	505	0	25	4	2			
4	0	0	0	0	467	505	0	28	3	2			
5	0	0	0	0	472	508	0	28	3	2			
6	0	0	0	0	472	508	0	28	3	2			
7	0	0	0	0	472	510	0	28	4	2			
8	0	0	0	0	476	512	0	24	3	2			
9	0	0	0	0	478	513	0	24	3	2			
10	0	0	0	0	476	513	0	24	3	2			
11	0	0	0	0	472	512	0	24	4	2			
12	0	0	0	0	472	511	0	24	3	2			
13	0	0	0	0	472	512	0	22	3	2			
14	0	0	0	0	480	512	0	24	3	2			
15	0	0	0	0	480	510	0	24	3	2			
0	0	0	0	0	481	511	0	22	3	2			
1	0	0	0	0	483	508	0	24	3	2			
2	0	0	0	0	480	510	0	24	3	2			
3	0	0	0	0	481	510	0	24	3	2			
4	0	0	0	0	480	508	0	24	3	2			
5	0	0	0	0	476	508	0	24	3	2			
6	0	0	0	0	463	508	0	24	3	2			
7	0	0	0	0	463	508	0	24	3	2			
8	0	0	0	0	467	508	0	24	3	2			
9	0	0	0	0	472	510	0	24	3	2			
10	0	0	0	0	476	511	0	24	3	2			
11	0	0	0	0	476	511	0	24	3	2			
12	0	0	0	0	478	508	0	24	3	2			
13	0	0	0	0	478	510	0	24	3	2			
14	0	0	0	0	476	512	0	24	3	2			
15	0	0	0	0	476	511	0	24	3	2			
0	0	0	0	0	478	511	0	24	3	2			
1	0	0	0	0	476	511	0	24	3	2			
2	0	0	0	0	472	510	0	24	3	2			
3	0	0	0	0	472	511	0	24	3	2			
4	0	0	0	0	472	511	0	24	3	2			
5	0	0	0	0	472	511	0	22	3	2			
6	0	0	0	0	476	508	0	24	3	2			
7	0	0	0	0	480	508	0	24	3	2			
8	0	0	0	0	481	505	0	24	3	2			
9	0	0	0	0	481	505	0	24	3	2			
10	0	0	0	0	480	505	0	24	3	2			
11	0	0	0	0	476	508	0	24	4	2			
12	0	0	0	0	476	510	0	25	3	2			
13	0	0	0	0	478	511	0	24	3	2			
14	0	0	0	0	478	510	0	24	3	2			
15	0	0	0	0	480	512	0	24	3	2			
0	0	0	0	0	481	511	0	24	3	2			
1	0	0	0	0	481	511	0	19	3	2			
2	0	0	0	0	487	512	0	19	3	2			
3	0	0	0	0	492	511	0	19	3	2			
4	0	0	0	0	481	512	0	17	3	2			
5	0	0	0	0	467	511	0	19	3	2			
6	0	0	0	0	467	508	0	24	3	2			
7	0	0	0	0	476	510	0	24	3	2			
8	0	0	0	0	476	508	0	24	3	2			
9	0	0	0	0	476	508	0	25	3	2			
10	0	0	0	0	472	508	0	28	3	2			
11	0	0	0	0	472	508	0	28	3	2			
12	0	0	0	0	472	505	0	28	3	2			
13	0	0	0	0	472	505	0	28	3	2			
14	0	0	0	0	472	508	0	24	3	2			
15	0	0	0	0	472	508	0	28	3	2			
0	0	0	0	0	473	505	0	28	3	2			
1	0	0	0	0	472	510	0	28	3	2			
2	0	0	0	0	472	508	0	28	3	2			
3	0	0	0	0	476	508	0	25	3	2			
4	0	0	0	0	476	508	0	33	3	2			
5	0	0	0	0	476	511	0	35	3	2			
6	0	0	0	0	476	512	0	35	3	2			
7	0	0	0	0	476	512	0	33	3	2			
8	0	0	0	0	480	512	0	33	3	2			
9	0	0	0	0	480	511	0	31	3	2			
10	0	0	0	0	480	512	0	33	4	2			
11	0	0	0	0	476	511	0	31	3	2			
12	0	0	0	0	476	511	0	33	3	2			
13	0	0	0	0	472	511	0	35	3	2			
14	0	0	0	0	465	510	0	33	3	2			
15	0	0	0	0	467	505	0	31	3	2			
0	0	0	0	0	467	510	0	31	3	2			
1	0	0	0	0	472	511	0	33	3	2			
2	0	0	0	0	472	510	0	31	3	2			
3	0	0	0	0	472	510	0	31	3	2			
4	0	0	0	0	476	511	0	31	3	2			
5	0	0	0	0	483	508	0	31	3	2			
6	0	0	0	0	492	511	0	31	3	2			
7	0	0	0	0	487	511	0	31	3	2			
8	0	0	0	0	486	511	0	31	3	2			
9	0	0	0	0	480	511	0	31	3	2			
10	0	0	0	0	480	510	0	33	3	2			
11	0	0	0	0	476	511	0	33	3	2			
12	0	0	0	0	476	508	0	35	3	2			
13	0	0	0	0	473	508	0	33	3	2			
14	0	0	0	0	476	510	0	31	3	2			
15	0	0	0	0	472	511	0	31	3	2			
0	0	0	0	0	472	508	0	31	3	2			
1	0	0	0	0	478	508	0	31	3	2			
2	0	0	0	0	481	511	0	30	3	2			
3	0	0	0	0	487	508	0	30	3	2			
4	0	0	0	0	492	508	0	24	3	2			
5	0	0	0	0	492	510	0	24	3	2			
6	0	0	0	0	487	510	0	24	3	2			
7	0	0	0	0	480	508	0	24	4	2			
8	0	0	0	0	467	510	0	22	3	2			
9	0	0	0	0	462	511	0	24	3	2			
10	0	0	0	0	465	512	0	22	3	2			
11	0	0	0	0	472	512	0	24	3	2			
12	0	0	0	0	478	511	0	24	3	2			
13	0	0	0	0	480	511	0	24	3	2			
14	0	0	0	0	480	512	0	24	3	2			
15	0	0	0	0	480	512	0	24	3	2			
0	0	0	0	0	483	510	0	24	3	2			
1	0	0	0	0	480	511	0	25	3	2			
2	0	0	0	0	476	511	0	24	3	2			
3	0	0	0	0	465	511	0	28	3	2			
4	0	0	0	0	460	511	0	28	3	2			
5	0	0	0	0	460	510	0	24	3	2			
6	0	0	0	0	472	508	0	25	3	2			
7	0	0	0	0	476	508	0	24	3	2			
8	0	0	0	0	473	504	0	25	3	2			
9	0	0	0	0	472	508	0	24	3	2			
10	0	0	0	0	472	508	0	24	3	2			
11	0	0	0	0	472	508	0	24	3	2			
12	0	0	0	0	472	504	0	24	3	2			
13	0	0	0	0	476	508	0	28	3	2			
14	0	0	0	0	476	508	0	28	3	2			
15	0	0	0	0	476	511	0	28	3	2			
0	0	0	0	0	473	510	0	28	3	2			
1	0	0	0	0	472	511	0	25	3	2			
2	0	0	0	0	472	512	0	24	4	2			
3	0	0	0	0	467	511	0	28	3	2			
4	0	0	0	0	467	510	0	30	3	2			
5	0	0	0	0	472	511	0	31	3	2			
6	0	0	0	0	473	512	0	35	3	2			
7	0	0	0	0	480	510	0	35	3	2			
8	0	0	0	0	487	510	0	39	3	2			
9	0	0	0	0	494	510	0	39	3	2			
10	0	0	0	0	494	508	0	39	3	2			
11	0	0	0	0	492	508	0	39	3	2			
12	0	0	0	0	487	508	0	38	3	2			
13	0	0	0	0	480	504	0	39	3	2			
14	0	0	0	0	481	504	0	39	3	2			
15	0	0	0	0	483	505	0	39	3	2			
0	0	0	0	0	480	504	0	38	3	2			
1	0	0	0	0	480	508	0	39	3	2			
2	0	0	0	0	486	508	0	39	3	2			
3	0	0	0	0	483	510	0	31	3	2			
4	0	0	0	0	480	508	0	33	3	2			
5	0	0	0	0	480	508	0	33	3	2			
6	0	0	0	0	472	508	0	33	3	2			
7	0	0	0	0	472	511	0	35	4	2			
8	0	0	0	0	473	510	0	35	3	2			
9	0	0	0	0	470	510	0	33	3	2			
10	0	0	0	0	472	511	0	35	3	2			
11	0	0	0	0	467	510	0	35	3	2			
12	0	0	0	0	463	508	0	39	3	2			
13	0	0	0	0	463	511	0	39	3	2			
14	0	0	0	0	467	508	0	39	3	2			
15	0	0	0	0	472	508	0	39	3	2			
0	0	0	0	0	472	508	0	41	3	2			
1	0	0	0	0	472	508	0	39	4	2			
2	0	0	0	0	472	508	0	39	3	2			
3	0	0	0	0	472	508	0	41	3	2			
4	0	0	0	0	472	510	0	44	3	2			
5	0	0	0	0	472	510	0	39	3	2			
6	0	0	0	0	476	511	0	39	3	2			
7	0	0	0	0	476	511	0	44	3	2			
8	0	0	0	0	478	510	0	44	3	2			
9	0	0	0	0	480	511	0	44	3	2			
10	0	0	0	0	478	512	0	44	3	2			
11	0	0	0	0	480	511	0	44	3	2			
12	0	0	0	0	480	512	0	44	3	2			
13	0	0	0	0	480	512	0	44	3	2			
14	0	0	0	0	480	512	0	44	3	2			
15	0	0	0	0	476	512	0	44	3	2			
0	0	0	0	0	480	511	0	44	3	2			
1	0	0	0	0	480	508	0	46	3	2			
2	0	0	0	0	480	510	0	39	3	2			
3	0	0	0	0	480	505	0	44	3	2			
4	0	0	0	0	476	508	0	44	3	2			
5	0	0	0	0	476	508	0	46	3	2			
6	0	0	0	0	476	508	0	47	3	2			
7	0	0	0	0	476	510	0	48	3	2			
8	0	0	0	0	476	510	0	48	3	2			
9	0	0	0	0	476	510	0	48	3	2			
10	0	0	0	0	470	510	0	48	3	2			
11	0	0	0	0	472	510	0	48	3	2			
12	0	0	0	0	472	511	0	49	3	2			
13	0	0	0	0	472	511	0	49	3	2			
14	0	0	0	0	472	512	0	49	3	2			
15	0	0	0	0	472	512	0	48	3	2			
0	0	0	0	0	476	512	0	48	3	2			
1	0	0	0	0	472	510	0	48	4	2			
2	0	0	0	0	472	511	0	48	3	2			
3	0	0	0	0	473	511	0	47	3	2			
4	0	0	0	0	480	508	0	48	3	2			
5	0	0	0	0	480	508	0	48	3	2			
6	0	0	0	0	480	511	0	48	3	2			
7	0	0	0	0	492	508	0	48	3	2			
8	0	0	0	0	496	511	0	48	3	2			
9	0	0	0	0	496	510	0	48	3	2			
10	0	0	0	0	492	510	0	48	3	2			
11	0	0	0	0	487	508	0	48	4	2			
12	0	0	0	0	480	508	0	48	3	2			
13	0	0	0	0	472	508	0	49	3	2			
14	0	0	0	0	467	504	0	48	3	2			
15	0	0	0	0	465	511	0	46	3	2			
0	0	0	0	0	465	508	0	49	3	2			
1	0	0	0	0	472	508	0	51	3	2			
2	0	0	0	0	476	510	0	51	3	2			
3	0	0	0	0	473	512	0	51	3	2			
4	0	0	0	0	476	512	0	51	4	2			
5	0	0	0	0	473	512	0	56	3	2			
6	0	0	0	0	476	511	0	56	3	2			
7	0	0	0	0	472	511	0	56	3	2			
8	0	0	0	0	472	508	0	56	3	2			
9	0	0	0	0	478	510	0	56	3	2			
10	0	0	0	0	480	510	0	56	3	2			
11	0	0	0	0	480	508	0	56	3	2			
12	0	0	0	0	480	508	0	56	3	2			
13	0	0	0	0	472	508	0	60	3	2			
14	0	0	0	0	463	508	0	57	3	2			
15	0	0	0	0	467	508	0	56	3	2			
0	0	0	0	0	472	510	0	56	3	2			
1	0	0	0	0	472	510	0	56	3	2			
2	0	0	0	0	472	510	0	57	3	2			
3	0	0	0	0	472	510	0	56	3	2			
4	0	0	0	0	478	508	0	56	3	2			
5	0	0	0	0	487	508	0	60	3	2			
6	0	0	0	0	483	511	0	56	3	2			
7	0	0	0	0	480	511	0	57	3	2			
8	0	0	0	0	481	511	0	56	3	2			
9	0	0	0	0	486	512	0	56	3	2			
10	0	0	0	0	480	512	0	56	3	2			
11	0	0	0	0	480	511	0	56	3	2			
12	0	0	0	0	481	510	0	56	3	2			
13	0	0	0	0	483	510	0	56	3	2			
14	0	0	0	0	483	508	0	57	3	2			
15	0	0	0	0	483	510	0	60	3	2			
0	0	0	0	0	481	508	0	62	3	2			
1	0	0	0	0	480	508	0	62	3	2			
2	0	0	0	0	480	510	0	62	3	2			
3	0	0	0	0	480	510	0	56	3	2			
4	0	0	0	0	480	510	0	57	3	2			
5	0	0	0	0	480	508	0	60	3	2			
6	0	0	0	0	483	510	0	60	3	2			
7	0	0	0	0	487	511	0	57	3	2			
8	0	0	0	0	492	511	0	60	3	2			
9	0	0	0	0	492	511	0	60	3	2			
10	0	0	0	0	483	510	0	60	3	2			
11	0	0	0	0	463	511	0	57	3	2			
12	0	0	0	0	444	511	0	60	3	2			
13	0	0	0	0	435	508	0	60	3	2			
14	0	0	0	0	440	510	0	60	3	2			
15	0	0	0	0	455	508	0	57	3	2			
0	0	0	0	0	467	508	0	60	3	2			
1	0	0	0	0	476	508	0	60	3	2			
2	0	0	0	0	480	508	0	60	3	2			
3	0	0	0	0	483	508	0	62	3	2			
4	0	0	0	0	481	508	0	63	3	2			
5	0	0	0	0	476	508	0	62	3	2			
6	0	0	0	0	472	508	0	63	3	2			
7	0	0	0	0	472	508	0	62	3	2			
8	0	0	0	0	473	511	0	62	3	2			
9	0	0	0	0	473	511	0	62	3	2			
10	0	0	0	0	472	511	0	63	3	2			
11	0	0	0	0	472	511	0	63	3	2			
12	0	0	0	0	473	510	0	62	3	2			
13	0	0	0	0	480	508	0	62	3	2			
14	0	0	0	0	483	511	0	60	3	2			
15	0	0	0	0	483	512	0	60	3	2			
0	0	0	0	0	480	512	0	60	3	2			
1	0	0	0	0	480	515	0	60	3	2			
2	0	0	0	0	480	515	0	62	3	2			
3	0	0	0	0	480	511	0	60	3	2			
4	0	0	0	0	480	511	0	60	3	2			
5	0	0	0	0	480	510	0	60	3	2			
6	0	0	0	0	483	508	0	62	3	2			
7	0	0	0	0	483	508	0	62	3	2			
8	0	0	0	0	481	508	0	62	3	2			
9	0	0	0	0	480	510	0	63	3	2			
10	0	0	0	0	480	508	0	63	3	2			
11	0	0	0	0	476	505	0	63	3	2			
12	0	0	0	0	473	504	0	63	3	2			
13	0	0	0	0	472	505	0	63	3	2			
14	0	0	0	0	467	508	0	63	3	2			
15	0	0	0	0	467	508	0	63	3	2			
0	0	0	0	0	470	505	0	63	3	2			
1	0	0	0	0	472	508	0	65	4	2			
2	0	0	0	0	473	508	0	67	4	2			
3	0	0	0	0	480	510	0	65	3	2			
4	0	0	0	0	480	512	0	63	3	2			
5	0	0	0	0	480	512	0	63	3	2			
6	0	0	0	0	480	511	0	63	3	2			
7	0	0	0	0	480	511	0	63	3	2			
8	0	0	0	0	480	508	0	65	3	2			
9	0	0	0	0	480	510	0	63	3	2			
10	0	0	0	0	480	508	0	65	3	2			
11	0	0	0	0	480	505	0	65	3	2			
12	0	0	0	0	480	504	0	63	3	2			
13	0	0	0	0	481	504	0	63	3	2			
14	0	0	0	0	481	504	0	63	3	2			
15	0	0	0	0	480	508	0	65	4	2			
0	0	0	0	0	472	508	0	65	3	2			
1	0	0	0	0	463	508	0	67	4	2			
2	0	0	0	0	462	508	0	67	3	2			
3	0	0	0	0	455	510	0	67	3	2			
4	0	0	0	0	455	508	0	67	3	2			
5	0	0	0	0	465	510	0	67	3	2			
6	0	0	0	0	467	511	0	67	3	2			
7	0	0	0	0	467	512	0	67	3	2			
8	0	0	0	0	467	512	0	65	3	2			
9	0	0	0	0	472	512	0	67	3	2			
10	0	0	0	0	472	513	0	65	3	2			
11	0	0	0	0	473	512	0	67	3	2			
12	0	0	0	0	476	511	0	67	3	2			
13	0	0	0	0	480	511	0	65	3	2			
14	0	0	0	0	480	511	0	65	3	2			
15	0	0	0	0	480	508	0	67	3	2			
0	0	0	0	0	480	508	0	65	3	2			
1	0	0	0	0	480	508	0	67	3	2			
2	0	0	0	0	476	508	0	65	3	2			
3	0	0	0	0	472	508	0	67	3	2			
4	0	0	0	0	472	508	0	67	3	2			
5	0	0	0	0	472	508	0	67	3	2			
6	0	0	0	0	472	508	0	67	3	2			
7	0	0	0	0	472	508	0	67	3	2			
8	0	0	0	0	472	508	0	67	3	2			
9	0	0	0	0	476	508	0	67	3	2			
10	0	0	0	0	480	510	0	67	3	2			
11	0	0	0	0	480	510	0	67	3	2			
12	0	0	0	0	478	510	0	67	3	2			
13	0	0	0	0	472	511	0	67	3	2			
14	0	0	0	0	472	512	0	67	3	2			
15	0	0	0	0	472	511	0	67	3	2			
0	0	0	0	0	476	511	0	67	3	2			
1	0	0	0	0	480	510	0	67	3	2			
2	0	0	0	0	480	511	0	67	3	2			
3	0	0	0	0	480	508	0	67	3	2			
4	0	0	0	0	480	511	0	63	3	2			
5	0	0	0	0	480	512	0	63	3	2			
6	0	0	0	0	480	511	0	67	3	2			
7	0	0	0	0	483	508	0	67	3	2			
8	0	0	0	0	483	508	0	67	3	2			
9	0	0	0	0	480	508	0	67	3	2			
10	0	0	0	0	476	510	0	65	3	2			
11	0	0	0	0	476	508	0	63	3	2			
12	0	0	0	0	472	510	0	65	3	2			
13	0	0	0	0	467	508	0	65	3	2			
14	0	0	0	0	472	511	0	67	3	2			
15	0	0	0	0	476	511	0	65	3	2			
0	0	0	0	0	472	512	0	67	3	2			
1	0	0	0	0	472	511	0	67	3	2			
2	0	0	0	0	472	511	0	67	3	2			
3	0	0	0	0	472	510	0	70	3	2			
4	0	0	0	0	472	511	0	70	3	2			
5	0	0	0	0	476	508	0	70	3	2			
6	0	0	0	0	478	508	0	67	3	2			
7	0	0	0	0	478	504	0	67	3	2			
8	0	0	0	0	478	508	0	67	3	2			
9	0	0	0	0	480	508	0	67	3	2			
10	0	0	0	0	481	508	0	63	3	2			
11	0	0	0	0	481	510	0	70	3	2			
12	0	0	0	0	480	510	0	67	3	2			
13	0	0	0	0	480	510	0	71	3	2			
14	0	0	0	0	476	510	0	71	4	2			
15	0	0	0	0	476	511	0	71	3	2			
0	0	0	0	0	473	510	0	71	3	2			
1	0	0	0	0	476	510	0	71	3	2			
2	0	0	0	0	476	511	0	71	3	2			
3	0	0	0	0	480	510	0	71	3	2			
4	0	0	0	0	480	511	0	71	3	2			
5	0	0	0	0	478	510	0	70	3	2			
6	0	0	0	0	476	510	0	70	3	2			
7	0	0	0	0	473	511	0	67	3	2			
8	0	0	0	0	473	511	0	70	3	2			
9	0	0	0	0	473	508	0	70	3	2			
10	0	0	0	0	472	508	0	70	3	2			
11	0	0	0	0	472	505	0	71	4	2			
12	0	0	0	0	476	508	0	71	4	2			
13	0	0	0	0	480	508	0	67	3	2			
14	0	0	0	0	480	510	0	67	3	2			
15	0	0	0	0	483	508	0	63	3	2			
0	0	0	0	0	483	511	0	63	3	2			
1	0	0	0	0	476	510	0	67	3	2			
2	0	0	0	0	473	510	0	63	3	2			
3	0	0	0	0	476	508	0	67	4	2			
4	0	0	0	0	472	510	0	67	3	2			
5	0	0	0	0	467	510	0	63	3	2			
6	0	0	0	0	467	511	0	65	3	2			
7	0	0	0	0	476	508	0	67	3	2			
8	0	0	0	0	480	511	0	71	3	2			
9	0	0	0	0	480	512	0	71	3	2			
10	0	0	0	0	480	510	0	71	3	2			
11	0	0	0	0	480	511	0	71	3	2			
12	0	0	0	0	480	510	0	67	3	2			
13	0	0	0	0	478	508	0	67	3	2			
14	0	0	0	0	472	510	0	67	3	2			
15	0	0	0	0	467	510	0	71	3	2			
0	0	0	0	0	473	510	0	70	3	2			
1	0	0	0	0	480	510	0	67	3	2			
2	0	0	0	0	480	510	0	70	4	2			
3	0	0	0	0	480	510	0	67	4	2			
4	0	0	0	0	476	505	0	67	3	2			
5	0	0	0	0	473	508	0	71	3	2			
6	0	0	0	0	472	508	0	67	3	2			
7	0	0	0	0	467	508	0	71	3	2			
8	0	0	0	0	463	510	0	71	3	2			
9	0	0	0	0	455	511	0	71	4	2			
10	0	0	0	0	455	511	0	67	3	2			
11	0	0	0	0	455	512	0	67	3	2			
12	0	0	0	0	460	511	0	71	3	2			
13	0	0	0	0	463	511	0	71	3	2			
14	0	0	0	0	467	511	0	71	3	2			
15	0	0	0	0	472	512	0	70	3	2			
0	0	0	0	0	480	511	0	67	3	2			
1	0	0	0	0	492	511	0	71	3	2			
2	0	0	0	0	496	512	0	71	3	2			
3	0	0	0	0	487	508	0	71	3	2			
4	0	0	0	0	480	508	0	67	3	2			
5	0	0	0	0	480	508	0	67	3	2			
6	0	0	0	0	476	504	0	67	3	2			
7	0	0	0	0	472	508	0	71	3	2			
8	0	0	0	0	476	508	0	71	3	2			
9	0	0	0	0	478	510	0	71	3	2			
10	0	0	0	0	480	508	0	76	3	2			
11	0	0	0	0	483	510	0	76	3	2			
12	0	0	0	0	483	508	0	71	3	2			
13	0	0	0	0	480	510	0	71	3	2			
14	0	0	0	0	480	510	0	71	3	2			
15	0	0	0	0	480	510	0	71	4	2			
0	0	0	0	0	476	511	0	71	3	2			
1	0	0	0	0	472	511	0	71	3	2			
2	0	0	0	0	467	511	0	71	3	2			
3	0	0	0	0	473	511	0	71	3	2			
4	0	0	0	0	480	510	0	71	3	2			
5	0	0	0	0	483	511	0	71	3	2			
6	0	0	0	0	487	510	0	71	3	2			
7	0	0	0	0	487	504	0	71	3	2			
8	0	0	0	0	487	508	0	71	3	2			
9	0	0	0	0	483	508	0	71	3	2			
10	0	0	0	0	480	504	0	71	3	2			
11	0	0	0	0	476	504	0	76	4	2			
12	0	0	0	0	473	504	0	71	3	2			
13	0	0	0	0	465	505	0	71	3	2			
14	0	0	0	0	465	510	0	71	3	2			
15	0	0	0	0	472	508	0	71	3	2			
0	0	0	0	0	472	511	0	71	3	2			
1	0	0	0	0	467	510	0	76	3	2			
2	0	0	0	0	472	510	0	76	3	2			
3	0	0	0	0	472	512	0	76	4	2			
4	0	0	0	0	472	512	0	76	3	2			
5	0	0	0	0	472	511	0	76	3	2			
6	0	0	0	0	472	512	0	76	3	2			
7	0	0	0	0	472	511	0	76	3	2			
8	0	0	0	0	472	511	0	76	3	2			
9	0	0	0	0	476	511	0	76	3	2			
10	0	0	0	0	480	510	0	76	3	2			
11	0	0	0	0	480	508	0	78	3	2			
12	0	0	0	0	480	508	0	78	3	2			
13	0	0	0	0	480	508	0	78	3	2			
14	0	0	0	0	478	508	0	78	3	2			
15	0	0	0	0	478	508	0	79	4	2			
0	0	0	0	0	473	508	0	76	3	2			
1	0	0	0	0	472	510	0	78	3	2			
2	0	0	0	0	472	508	0	78	3	2			
3	0	0	0	0	472	508	0	79	3	2			
4	0	0	0	0	470	510	0	79	3	2			
5	0	0	0	0	472	511	0	79	3	2			
6	0	0	0	0	472	511	0	79	3	2			
7	0	0	0	0	478	510	0	79	3	2			
8	0	0	0	0	480	511	0	79	3	2			
9	0	0	0	0	480	511	0	79	3	2			
10	0	0	0	0	480	511	0	79	3	2			
11	0	0	0	0	480	510	0	79	3	2			
12	0	0	0	0	480	511	0	79	3	2			
13	0	0	0	0	473	512	0	79	3	2			
14	0	0	0	0	467	510	0	79	3	2			
15	0	0	0	0	463	510	0	79	3	2			
0	0	0	0	0	462	508	0	78	3	2			
1	0	0	0	0	472	510	0	79	4	2			
2	0	0	0	0	476	508	0	78	3	2			
3	0	0	0	0	476	504	0	79	3	2			
4	0	0	0	0	478	508	0	78	3	2			
5	0	0	0	0	480	508	0	78	4	2			
6	0	0	0	0	480	508	0	76	3	2			
7	0	0	0	0	480	511	0	78	3	2			
8	0	0	0	0	480	508	0	78	3	2			
9	0	0	0	0	473	510	0	78	3	2			
10	0	0	0	0	472	512	0	79	3	2			
11	0	0	0	0	472	513	0	78	3	2			
12	0	0	0	0	473	511	0	78	3	2			
13	0	0	0	0	472	512	0	78	3	2			
14	0	0	0	0	472	511	0	76	3	2			
15	0	0	0	0	476	510	0	76	3	2			
0	0	0	0	0	480	510	0	76	3	2			
1	0	0	0	0	480	510	0	76	3	2			
2	0	0	0	0	480	511	0	76	3	2			
3	0	0	0	0	478	510	0	78	3	2			
4	0	0	0	0	476	505	0	76	3	2			
5	0	0	0	0	480	505	0	71	3	2			
6	0	0	0	0	480	504	0	71	3	2			
7	0	0	0	0	480	504	0	71	4	2			
8	0	0	0	0	480	508	0	71	3	2			
9	0	0	0	0	478	508	0	71	3	2			
10	0	0	0	0	476	508	0	71	3	2			
11	0	0	0	0	476	511	0	71	3	2			
12	0	0	0	0	480	511	0	71	3	2			
13	0	0	0	0	481	512	0	71	4	2			
14	0	0	0	0	476	511	0	71	3	2			
15	0	0	0	0	463	511	0	71	3	2			
0	0	0	0	0	462	510	0	76	3	2			
1	0	0	0	0	467	511	0	76	3	2			
2	0	0	0	0	476	511	0	76	3	2			
3	0	0	0	0	476	511	0	78	3	2			
4	0	0	0	0	478	508	0	76	3	2			
5	0	0	0	0	476	508	0	78	3	2			
6	0	0	0	0	476	511	0	78	3	2			
7	0	0	0	0	480	508	0	78	3	2			
8	0	0	0	0	480	508	0	76	3	2			
9	0	0	0	0	478	505	0	76	3	2			
10	0	0	0	0	480	508	0	78	3	2			
11	0	0	0	0	481	508	0	78	4	2			
12	0	0	0	0	483	508	0	76	3	2			
13	0	0	0	0	481	508	0	79	3	2			
14	0	0	0	0	483	511	0	78	3	2			
15	0	0	0	0	480	511	0	78	3	2			
0	0	0	0	0	476	511	0	78	4	2			
1	0	0	0	0	467	511	0	76	3	2			
2	0	0	0	0	465	511	0	78	3	2			
3	0	0	0	0	465	511	0	78	4	2			
4	0	0	0	0	465	510	0	78	3	2			
5	0	0	0	0	467	512	0	79	3	2			
6	0	0	0	0	473	511	0	79	3	2			
7	0	0	0	0	480	510	0	79	3	2			
8	0	0	0	0	480	510	0	78	3	2			
9	0	0	0	0	480	511	0	78	3	2			
10	0	0	0	0	478	510	0	79	3	2			
11	0	0	0	0	476	508	0	79	4	2			
12	0	0	0	0	472	508	0	79	4	2			
13	0	0	0	0	472	508	0	78	3	2			
14	0	0	0	0	467	508	0	79	3	2			
15	0	0	0	0	472	510	0	79	3	2			
0	0	0	0	0	476	510	0	78	3	2			
1	0	0	0	0	476	511	0	79	4	2			
2	0	0	0	0	476	508	0	78	3	2			
3	0	0	0	0	476	508	0	79	4	2			
4	0	0	0	0	472	508	0	79	3	2			
5	0	0	0	0	472	511	0	79	3	2			
6	0	0	0	0	478	510	0	79	3	2			
7	0	0	0	0	478	510	0	79	3	2			
8	0	0	0	0	480	511	0	79	3	2			
9	0	0	0	0	480	511	0	79	3	2			
10	0	0	0	0	481	510	0	79	3	2			
11	0	0	0	0	481	510	0	78	3	2			
12	0	0	0	0	480	510	0	78	3	2			
13	0	0	0	0	483	510	0	78	3	2			
14	0	0	0	0	480	510	0	78	3	2			
15	0	0	0	0	473	508	0	76	3	2			
0	0	0	0	0	480	510	0	76	3	2			
1	0	0	0	0	483	510	0	76	3	2			
2	0	0	0	0	480	508	0	76	3	2			
3	0	0	0	0	472	508	0	76	3	2			
4	0	0	0	0	463	508	0	76	3	2			
5	0	0	0	0	462	508	0	76	3	2			
6	0	0	0	0	463	508	0	76	3	2			
7	0	0	0	0	463	511	0	76	3	2			
8	0	0	0	0	463	511	0	76	3	2			
9	0	0	0	0	467	510	0	76	3	2			
10	0	0	0	0	472	512	0	78	3	2			
11	0	0	0	0	476	511	0	76	3	2			
12	0	0	0	0	476	510	0	76	3	2			
13	0	0	0	0	478	510	0	78	3	2			
14	0	0	0	0	480	511	0	76	3	2			
15	0	0	0	0	478	511	0	76	3	2			
0	0	0	0	0	480	511	0	76	4	2			
1	0	0	0	0	480	510	0	76	3	2			
2	0	0	0	0	480	511	0	76	3	2			
3	0	0	0	0	478	508	0	76	4	2			
4	0	0	0	0	476	508	0	76	3	2			
5	0	0	0	0	476	508	0	76	3	2			
6	0	0	0	0	476	505	0	76	3	2			
7	0	0	0	0	472	508	0	76	3	2			
8	0	0	0	0	472	511	0	76	4	2			
9	0	0	0	0	472	512	0	76	3	2			
10	0	0	0	0	476	510	0	73	3	2			
11	0	0	0	0	480	510	0	76	3	2			
12	0	0	0	0	487	510	0	76	3	2			
13	0	0	0	0	481	510	0	76	3	2			
14	0	0	0	0	472	511	0	76	3	2			
15	0	0	0	0	472	511	0	76	3	2			
0	0	0	0	0	473	511	0	76	3	2			
1	0	0	0	0	472	510	0	76	3	2			
2	0	0	0	0	467	510	0	76	3	2			
3	0	0	0	0	473	508	0	76	3	2			
4	0	0	0	0	480	510	0	76	3	2			
5	0	0	0	0	483	510	0	76	3	2			
6	0	0	0	0	487	510	0	76	3	2			
7	0	0	0	0	487	510	0	76	3	2			
8	0	0	0	0	480	508	0	76	3	2			
9	0	0	0	0	476	508	0	78	3	2			
10	0	0	0	0	467	510	0	76	3	2			
11	0	0	0	0	463	508	0	78	4	2			
12	0	0	0	0	462	508	0	78	3	2			
13	0	0	0	0	457	508	0	76	3	2			
14	0	0	0	0	455	508	0	76	3	2			
15	0	0	0	0	463	508	0	76	3	2			
0	0	0	0	0	472	510	0	76	3	2			
1	0	0	0	0	478	510	0	76	3	2			
2	0	0	0	0	480	512	0	76	3	2			
3	0	0	0	0	486	511	0	78	3	2			
4	0	0	0	0	483	511	0	76	3	2			
5	0	0	0	0	480	512	0	78	3	2			
6	0	0	0	0	480	511	0	76	3	2			
7	0	0	0	0	480	512	0	78	3	2			
8	0	0	0	0	481	512	0	78	3	2			
9	0	0	0	0	480	511	0	78	3	2			
10	0	0	0	0	480	505	0	78	3	2			
11	0	0	0	0	480	508	0	79	3	2			
12	0	0	0	0	480	508	0	78	3	2			
13	0	0	0	0	480	508	0	78	3	2			
14	0	0	0	0	478	510	0	78	3	2			
15	0	0	0	0	480	511	0	78	3	2			
0	0	0	0	0	480	508	0	76	3	2			
1	0	0	0	0	480	511	0	78	3	2			
2	0	0	0	0	480	511	0	78	3	2			
3	0	0	0	0	472	511	0	78	3	2			
4	0	0	0	0	467	510	0	79	3	2			
5	0	0	0	0	465	510	0	79	3	2			
6	0	0	0	0	463	512	0	79	3	2			
7	0	0	0	0	465	510	0	78	3	2			
8	0	0	0	0	467	511	0	78	3	2			
9	0	0	0	0	476	508	0	79	3	2			
10	0	0	0	0	483	511	0	79	4	2			
11	0	0	0	0	496	511	0	79	3	2			
12	0	0	0	0	504	510	0	79	3	2			
13	0	0	0	0	496	508	0	79	3	2			
14	0	0	0	0	494	508	0	79	3	2			
15	0	0	0	0	487	508	0	79	3	2			
0	0	0	0	0	480	508	0	79	4	2			
1	0	0	0	0	463	508	0	79	4	2			
2	0	0	0	0	455	510	0	79	3	2			
3	0	0	0	0	460	508	0	79	3	2			
4	0	0	0	0	465	510	0	79	3	2			
5	0	0	0	0	467	511	0	79	3	2			
6	0	0	0	0	472	508	0	79	3	2			
7	0	0	0	0	472	508	0	79	3	2			
8	0	0	0	0	467	508	0	79	3	2			
9	0	0	0	0	467	508	0	79	3	2			
10	0	0	0	0	472	511	0	79	3	2			
11	0	0	0	0	472	512	0	79	3	2			
12	0	0	0	0	472	513	0	79	3	2			
13	0	0	0	0	476	511	0	79	3	2			
14	0	0	0	0	476	511	0	79	3	2			
15	0	0	0	0	476	511	0	79	3	2			
0	0	0	0	0	476	510	0	79	3	2			
1	0	0	0	0	472	510	0	79	3	2			
2	0	0	0	0	472	508	0	79	3	2			
3	0	0	0	0	472	504	0	79	3	2			
4	0	0	0	0	472	505	0	79	3	2			
5	0	0	0	0	480	508	0	79	3	2			
6	0	0	0	0	480	508	0	79	3	2			
7	0	0	0	0	480	508	0	79	3	2			
8	0	0	0	0	480	510	0	81	3	2			
9	0	0	0	0	472	511	0	81	3	2			
10	0	0	0	0	476	510	0	81	3	2			
11	0	0	0	0	480	508	0	81	3	2			
12	0	0	0	0	480	510	0	79	4	2			
13	0	0	0	0	476	511	0	79	3	2			
14	0	0	0	0	476	511	0	79	3	2			
15	0	0	0	0	476	512	0	79	3	2			
0	0	0	0	0	473	512	0	79	3	2			
1	0	0	0	0	478	511	0	79	3	2			
2	0	0	0	0	478	512	0	81	3	2			
3	0	0	0	0	476	511	0	81	3	2			
4	0	0	0	0	476	511	0	79	3	2			
5	0	0	0	0	476	511	0	79	3	2			
6	0	0	0	0	476	511	0	83	3	2			
7	0	0	0	0	472	510	0	83	3	2			
8	0	0	0	0	472	510	0	83	3	2			
9	0	0	0	0	467	508	0	83	3	2			
10	0	0	0	0	472	508	0	83	3	2			
11	0	0	0	0	480	504	0	83	3	2			
12	0	0	0	0	483	505	0	83	3	2			
13	0	0	0	0	481	505	0	83	3	2			
14	0	0	0	0	480	508	0	86	3	2			
15	0	0	0	0	478	508	0	86	3	2			
0	0	0	0	0	480	508	0	86	3	2			
1	0	0	0	0	480	510	0	88	3	2			
2	0	0	0	0	481	511	0	86	3	2			
3	0	0	0	0	481	512	0	83	3	2			
4	0	0	0	0	481	513	0	86	3	2			
5	0	0	0	0	480	512	0	83	4	2			
6	0	0	0	0	480	511	0	83	3	2			
7	0	0	0	0	480	510	0	83	3	2			
8	0	0	0	0	480	510	0	83	3	2			
9	0	0	0	0	480	511	0	83	3	2			
10	0	0	0	0	476	508	0	88	3	2			
11	0	0	0	0	472	508	0	83	3	2			
12	0	0	0	0	472	508	0	83	3	2			
13	0	0	0	0	472	510	0	83	3	2			
14	0	0	0	0	462	505	0	86	4	2			
15	0	0	0	0	455	505	0	86	4	2			
0	0	0	0	0	455	508	0	83	3	2			
1	0	0	0	0	463	508	0	83	3	2			
2	0	0	0	0	472	508	0	83	4	2			
3	0	0	0	0	480	508	0	83	3	2			
4	0	0	0	0	481	508	0	83	3	2			
5	0	0	0	0	481	511	0	83	3	2			
6	0	0	0	0	480	508	0	83	3	2			
7	0	0	0	0	480	510	0	81	3	2			
8	0	0	0	0	480	511	0	79	3	2			
9	0	0	0	0	480	511	0	83	3	2			
10	0	0	0	0	480	510	0	83	4	2			
11	0	0	0	0	480	511	0	81	3	2			
12	0	0	0	0	480	510	0	81	3	2			
13	0	0	0	0	480	510	0	79	3	2			
14	0	0	0	0	480	511	0	79	3	2			
15	0	0	0	0	476	510	0	81	3	2			
0	0	0	0	0	472	511	0	81	3	2			
1	0	0	0	0	478	508	0	81	3	2			
2	0	0	0	0	476	511	0	81	3	2			
3	0	0	0	0	472	508	0	79	3	2			
4	0	0	0	0	467	508	0	79	3	2			
5	0	0	0	0	467	510	0	79	3	2			
6	0	0	0	0	472	511	0	81	4	2			
7	0	0	0	0	480	510	0	81	3	2			
8	0	0	0	0	476	511	0	81	3	2			
9	0	0	0	0	472	508	0	83	3	2			
10	0	0	0	0	473	511	0	83	3	2			
11	0	0	0	0	480	511	0	81	3	2			
12	0	0	0	0	480	508	0	81	3	2			
13	0	0	0	0	478	510	0	83	3	2			
14	0	0	0	0	472	511	0	79	3	2			
15	0	0	0	0	472	511	0	81	3	2			
0	0	0	0	0	473	511	0	79	3	2			
1	0	0	0	0	480	510	0	79	3	2			
2	0	0	0	0	480	511	0	79	3	2			
3	0	0	0	0	476	508	0	79	3	2			
4	0	0	0	0	476	508	0	81	3	2			
5	0	0	0	0	476	508	0	81	3	2			
6	0	0	0	0	480	508	0	81	3	2			
7	0	0	0	0	480	510	0	79	3	2			
8	0	0	0	0	478	510	0	81	3	2			
9	0	0	0	0	472	510	0	79	3	2			
10	0	0	0	0	472	508	0	81	3	2			
11	0	0	0	0	472	510	0	78	3	2			
12	0	0	0	0	472	510	0	79	3	2			
13	0	0	0	0	470	511	0	79	3	2			
14	0	0	0	0	472	511	0	81	3	2			
15	0	0	0	0	472	511	0	79	3	2			
0	0	0	0	0	472	510	0	79	3	2			
1	0	0	0	0	473	508	0	76	3	2			
2	0	0	0	0	476	508	0	76	3	2			
3	0	0	0	0	472	511	0	76	3	2			
4	0	0	0	0	472	508	0	76	3	2			
5	0	0	0	0	472	508	0	71	3	2			
6	0	0	0	0	478	508	0	71	3	2			
7	0	0	0	0	480	510	0	71	3	2			
8	0	0	0	0	483	508	0	71	4	2			
9	0	0	0	0	487	504	0	71	3	2			
10	0	0	0	0	487	505	0	71	3	2			
11	0	0	0	0	487	508	0	71	3	2			
12	0	0	0	0	480	508	0	71	3	2			
13	0	0	0	0	480	508	0	70	3	2			
14	0	0	0	0	478	511	0	70	3	2			
15	0	0	0	0	472	508	0	71	3	2			
0	0	0	0	0	472	510	0	71	3	2			
1	0	0	0	0	472	510	0	71	4	2			
2	0	0	0	0	476	510	0	71	3	2			
3	0	0	0	0	480	511	0	71	3	2			
4	0	0	0	0	480	511	0	71	3	2			
5	0	0	0	0	483	512	0	70	3	2			
6	0	0	0	0	483	512	0	71	3	2			
7	0	0	0	0	480	511	0	71	3	2			
8	0	0	0	0	480	510	0	71	3	2			
9	0	0	0	0	480	511	0	71	3	2			
10	0	0	0	0	480	511	0	71	3	2			
11	0	0	0	0	472	508	0	71	3	2			
12	0	0	0	0	465	508	0	67	3	2			
13	0	0	0	0	463	508	0	67	3	2			
14	0	0	0	0	463	510	0	67	3	2			
15	0	0	0	0	467	510	0	67	3	2			
0	0	0	0	0	465	504	0	67	3	2			
1	0	0	0	0	462	504	0	67	3	2			
2	0	0	0	0	455	508	0	67	3	2			
3	0	0	0	0	460	508	0	67	3	2			
4	0	0	0	0	467	508	0	67	4	2			
5	0	0	0	0	483	511	0	67	3	2			
6	0	0	0	0	496	511	0	67	3	2			
7	0	0	0	0	494	511	0	65	4	2			
8	0	0	0	0	487	512	0	67	3	2			
9	0	0	0	0	483	510	0	67	3	2			
10	0	0	0	0	480	510	0	71	4	2			
11	0	0	0	0	478	511	0	70	3	2			
12	0	0	0	0	472	510	0	67	3	2			
13	0	0	0	0	472	510	0	67	3	2			
14	0	0	0	0	478	510	0	67	3	2			
15	0	0	0	0	480	512	0	67	3	2			
0	0	0	0	0	478	510	0	63	3	2			
1	0	0	0	0	480	508	0	63	4	2			
2	0	0	0	0	480	510	0	63	3	2			
3	0	0	0	0	476	510	0	63	4	2			
4	0	0	0	0	476	508	0	63	3	2			
5	0	0	0	0	473	508	0	63	3	2			
6	0	0	0	0	472	510	0	63	3	2			
7	0	0	0	0	476	511	0	63	3	2			
8	0	0	0	0	472	510	0	67	4	2			
9	0	0	0	0	467	511	0	63	3	2			
10	0	0	0	0	463	511	0	63	3	2			
11	0	0	0	0	463	512	0	60	3	2			
12	0	0	0	0	465	512	0	63	3	2			
13	0	0	0	0	467	511	0	63	3	2			
14	0	0	0	0	470	511	0	63	3	2			
15	0	0	0	0	472	511	0	63	3	2			
0	0	0	0	0	472	511	0	56	3	2			
1	0	0	0	0	476	511	0	54	3	2			
2	0	0	0	0	483	510	0	54	3	2			
3	0	0	0	0	487	508	0	56	3	2			
4	0	0	0	0	487	508	0	51	3	2			
5	0	0	0	0	492	508	0	56	3	2			
6	0	0	0	0	487	508	0	51	3	2			
7	0	0	0	0	486	505	0	51	3	2			
8	0	0	0	0	476	505	0	51	3	2			
9	0	0	0	0	472	508	0	51	3	2			
10	0	0	0	0	476	510	0	48	3	2			
11	0	0	0	0	476	510	0	48	3	2			
12	0	0	0	0	476	510	0	48	3	2			
13	0	0	0	0	476	508	0	48	3	2			
14	0	0	0	0	472	510	0	47	3	2			
15	0	0	0	0	476	511	0	48	3	2			
0	0	0	0	0	480	510	0	48	3	2			
1	0	0	0	0	480	511	0	48	3	2			
2	0	0	0	0	480	511	0	48	3	2			
3	0	0	0	0	478	511	0	46	3	2			
4	0	0	0	0	480	510	0	48	3	2			
5	0	0	0	0	480	511	0	46	3	2			
6	0	0	0	0	480	510	0	46	3	2			
7	0	0	0	0	476	508	0	44	3	2			
8	0	0	0	0	476	511	0	44	3	2			
9	0	0	0	0	478	508	0	46	3	2			
10	0	0	0	0	480	508	0	46	3	2			
11	0	0	0	0	478	508	0	46	3	2			
12	0	0	0	0	463	508	0	44	3	2			
13	0	0	0	0	465	508	0	47	3	2			
14	0	0	0	0	473	510	0	47	3	2			
15	0	0	0	0	480	510	0	48	3	2			
0	0	0	0	0	481	510	0	49	3	2			
1	0	0	0	0	480	511	0	51	3	2			
2	0	0	0	0	480	511	0	49	3	2			
3	0	0	0	0	476	512	0	48	3	2			
4	0	0	0	0	478	508	0	48	3	2			
5	0	0	0	0	480	511	0	49	4	2			
6	0	0	0	0	476	511	0	49	4	2			
7	0	0	0	0	476	510	0	49	3	2			
8	0	0	0	0	476	511	0	48	3	2			
9	0	0	0	0	478	511	0	49	3	2			
10	0	0	0	0	476	508	0	48	3	2			
11	0	0	0	0	472	508	0	49	3	2			
12	0	0	0	0	472	511	0	48	3	2			
13	0	0	0	0	472	510	0	48	3	2			
14	0	0	0	0	472	508	0	49	3	2			
15	0	0	0	0	472	504	0	49	3	2			
0	0	0	0	0	472	508	0	48	3	2			
1	0	0	0	0	472	508	0	48	3	2			
2	0	0	0	0	472	508	0	48	3	2			
3	0	0	0	0	472	508	0	48	3	2			
4	0	0	0	0	472	510	0	48	3	2			
5	0	0	0	0	472	510	0	48	3	2			
6	0	0	0	0	472	510	0	48	3	2			
7	0	0	0	0	476	512	0	46	3	2			
8	0	0	0	0	480	512	0	48	3	2			
9	0	0	0	0	483	512	0	48	3	2			
10	0	0	0	0	483	513	0	47	4	2			
11	0	0	0	0	481	511	0	44	3	2			
12	0	0	0	0	480	511	0	46	3	2			
13	0	0	0	0	480	511	0	44	4	2			
14	0	0	0	0	480	510	0	39	3	2			
15	0	0	0	0	476	510	0	48	3	2			
0	0	0	0	0	476	505	0	48	3	2			
1	0	0	0	0	480	508	0	39	3	2			
2	0	0	0	0	480	508	0	39	4	2			
3	0	0	0	0	478	508	0	39	3	2			
4	0	0	0	0	473	508	0	39	3	2			
5	0	0	0	0	476	505	0	39	3	2			
6	0	0	0	0	476	508	0	39	3	2			
7	0	0	0	0	476	510	0	39	3	2			
8	0	0	0	0	480	511	0	35	3	2			
9	0	0	0	0	480	511	0	33	3	2			
10	0	0	0	0	476	511	0	33	3	2			
11	0	0	0	0	472	511	0	33	3	2			
12	0	0	0	0	463	512	0	35	3	2			
13	0	0	0	0	465	511	0	35	3	2			
14	0	0	0	0	467	511	0	35	3	2			
15	0	0	0	0	462	511	0	35	3	2			
0	0	0	0	0	462	511	0	35	3	2			
1	0	0	0	0	470	511	0	35	3	2			
2	0	0	0	0	473	508	0	35	3	2			
3	0	0	0	0	478	508	0	35	3	2			
4	0	0	0	0	478	510	0	35	3	2			
5	0	0	0	0	476	508	0	35	3	2			
6	0	0	0	0	472	510	0	39	3	2			
7	0	0	0	0	467	508	0	39	4	2			
8	0	0	0	0	463	508	0	39	3	2			
9	0	0	0	0	463	510	0	38	3	2			
10	0	0	0	0	465	508	0	35	3	2			
11	0	0	0	0	467	511	0	35	4	2			
12	0	0	0	0	467	510	0	35	3	2			
13	0	0	0	0	472	508	0	35	3	2			
14	0	0	0	0	480	508	0	35	3	2			
15	0	0	0	0	487	511	0	38	4	2			
0	0	0	0	0	487	511	0	38	4	2			
1	0	0	0	0	487	508	0	35	3	2			
2	0	0	0	0	487	504	0	33	3	2			
3	0	0	0	0	483	508	0	33	3	2			
4	0	0	0	0	480	508	0	33	3	2			
5	0	0	0	0	481	510	0	33	3	2			
6	0	0	0	0	480	510	0	31	3	2			
7	0	0	0	0	480	510	0	33	3	2			
8	0	0	0	0	476	511	0	31	3	2			
9	0	0	0	0	476	508	0	33	3	2			
10	0	0	0	0	472	508	0	33	3	2			
11	0	0	0	0	463	510	0	33	3	2			
12	0	0	0	0	463	511	0	31	3	2			
13	0	0	0	0	463	508	0	38	3	2			
14	0	0	0	0	465	511	0	33	3	2			
15	0	0	0	0	472	510	0	31	3	2			
0	0	0	0	0	476	511	0	31	4	2			
1	0	0	0	0	472	511	0	30	3	2			
2	0	0	0	0	470	511	0	28	3	2			
3	0	0	0	0	472	510	0	28	3	2			
4	0	0	0	0	476	511	0	25	3	2			
5	0	0	0	0	480	508	0	24	3	2			
6	0	0	0	0	481	511	0	24	3	2			
7	0	0	0	0	487	511	0	28	3	2			
8	0	0	0	0	496	511	0	28	3	2			
9	0	0	0	0	496	511	0	19	3	2			
10	0	0	0	0	492	510	0	17	3	2			
11	0	0	0	0	480	510	0	15	4	2			
12	0	0	0	0	467	508	0	15	3	2			
13	0	0	0	0	467	504	0	12	3	2			
14	0	0	0	0	472	505	0	12	3	2			
15	0	0	0	0	473	504	0	30	3	2			
0	0	0	0	0	478	508	0	30	3	2			
1	0	0	0	0	476	508	0	24	4	2			
2	0	0	0	0	476	510	0	28	4	2			
3	0	0	0	0	480	508	0	24	3	2			
4	0	0	0	0	481	511	0	19	3	2			
5	0	0	0	0	483	511	0	15	3	2			
6	0	0	0	0	483	511	0	24	3	2			
7	0	0	0	0	480	512	0	19	3	2			
8	0	0	0	0	472	512	0	24	3	2			
9	0	0	0	0	465	512	0	24	3	2			
10	0	0	0	0	463	511	0	24	3	2			
11	0	0	0	0	463	511	0	24	3	2			
12	0	0	0	0	463	510	0	24	3	2			
13	0	0	0	0	467	510	0	25	3	2			
14	0	0	0	0	472	510	0	24	3	2			
15	0	0	0	0	480	510	0	24	3	2			
0	0	0	0	0	480	510	0	24	3	2			
1	0	0	0	0	476	505	0	24	3	2			
2	0	0	0	0	478	504	0	24	3	2			
3	0	0	0	0	476	504	0	24	3	2			
4	0	0	0	0	472	505	0	24	3	2			
5	0	0	0	0	467	508	0	24	3	2			
6	0	0	0	0	472	508	0	24	3	2			
7	0	0	0	0	472	508	0	24	3	2			
8	0	0	0	0	472	510	0	24	4	2			
9	0	0	0	0	472	512	0	24	3	2			
10	0	0	0	0	480	512	0	28	3	2			
11	0	0	0	0	480	513	0	28	3	2			
12	0	0	0	0	478	512	0	24	3	2			
13	0	0	0	0	472	512	0	28	3	2			
14	0	0	0	0	472	511	0	25	4	2			
15	0	0	0	0	473	512	0	24	3	2			
0	0	0	0	0	473	511	0	28	3	2			
1	0	0	0	0	472	511	0	28	3	2			
2	0	0	0	0	467	508	0	28	3	2			
3	0	0	0	0	467	508	0	28	3	2			
4	0	0	0	0	476	510	0	28	3	2			
5	0	0	0	0	487	508	0	31	3	2			
6	0	0	0	0	487	508	0	30	3	2			
7	0	0	0	0	483	510	0	31	3	2			
8	0	0	0	0	476	508	0	31	3	2			
9	0	0	0	0	465	508	0	30	3	2			
10	0	0	0	0	467	508	0	28	3	2			
11	0	0	0	0	472	510	0	28	3	2			
12	0	0	0	0	472	510	0	31	3	2			
13	0	0	0	0	467	510	0	30	3	2			
14	0	0	0	0	463	511	0	31	3	2			
15	0	0	0	0	467	511	0	31	3	2			
0	0	0	0	0	463	511	0	31	3	2			
1	0	0	0	0	462	511	0	31	3	2			
2	0	0	0	0	463	512	0	31	3	2			
3	0	0	0	0	467	511	0	30	3	2			
4	0	0	0	0	472	512	0	28	3	2			
5	0	0	0	0	476	511	0	28	3	2			
6	0	0	0	0	486	511	0	28	3	2			
7	0	0	0	0	496	508	0	25	3	2			
8	0	0	0	0	504	508	0	28	3	2			
9	0	0	0	0	504	508	0	24	3	2			
10	0	0	0	0	496	508	0	24	3	2			
11	0	0	0	0	487	504	0	28	4	2			
12	0	0	0	0	483	504	0	24	3	2			
13	0	0	0	0	480	508	0	28	3	2			
14	0	0	0	0	480	508	0	24	3	2			
15	0	0	0	0	472	508	0	28	3	2			
0	0	0	0	0	463	508	0	28	3	2			
1	0	0	0	0	463	510	0	24	3	2			
2	0	0	0	0	463	511	0	24	3	2			
3	0	0	0	0	463	511	0	28	3	2			
4	0	0	0	0	472	512	0	24	3	2			
5	0	0	0	0	472	511	0	24	3	2			
6	0	0	0	0	472	510	0	14	3	2			
7	0	0	0	0	472	515	0	0	4	2			
8	0	0	0	0	476	512	0	0	3	2			
9	0	0	0	0	480	511	0	0	3	2			
10	0	0	0	0	483	511	0	0	4	2			
11	0	0	0	0	480	508	0	0	3	2			
12	0	0	0	0	480	508	0	0	3	2			
13	0	0	0	0	486	504	0	0	3	2			
14	0	0	0	0	486	504	0	0	3	2			
15	0	0	0	0	480	504	0	0	3	2			
0	0	0	0	0	481	504	0	0	3	2			
1	0	0	0	0	480	508	0	0	3	2			
2	0	0	0	0	473	508	0	0	4	2			
3	0	0	0	0	472	508	0	0	3	2			
4	0	0	0	0	463	511	0	0	3	2			
5	0	0	0	0	460	510	0	0	3	2			
6	0	0	0	0	465	508	0	0	3	2			
7	0	0	0	0	472	511	0	0	4	2			
8	0	0	0	0	472	510	0	0	4	2			
9	0	0	0	0	476	511	0	0	3	2			
10	0	0	0	0	480	510	0	0	3	2			
11	0	0	0	0	480	510	0	0	3	2			
12	0	0	0	0	480	510	0	0	3	2			
13	0	0	0	0	480	511	0	0	4	2			
14	0	0	0	0	480	510	0	0	3	2			
15	0	0	0	0	480	508	0	0	3	2			
0	0	0	0	0	480	508	0	0	3	2			
1	0	0	0	0	476	504	0	0	3	2			
2	0	0	0	0	472	505	0	0	3	2			
3	0	0	0	0	472	505	0	0	3	2			
4	0	0	0	0	472	508	0	0	3	2			
5	0	0	0	0	472	504	0	0	3	2			
6	0	0	0	0	472	510	0	0	3	2			
7	0	0	0	0	476	510	0	0	3	2			
8	0	0	0	0	480	511	0	0	3	2			
9	0	0	0	0	476	511	0	0	3	2			
10	0	0	0	0	472	511	0	0	3	2			
11	0	0	0	0	476	512	0	0	3	2			
12	0	0	0	0	476	511	0	0	3	2			
13	0	0	0	0	476	511	0	0	3	2			
14	0	0	0	0	480	512	0	0	3	2			
15	0	0	0	0	483	510	0	0	3	2			
0	0	0	0	0	483	511	0	0	3	2			
1	0	0	0	0	486	508	0	0	4	2			
2	0	0	0	0	487	511	0	0	3	2			
3	0	0	0	0	487	508	0	0	3	2			
4	0	0	0	0	480	508	0	0	3	2			
5	0	0	0	0	472	508	0	0	3	2			
6	0	0	0	0	463	508	0	0	3	2			
7	0	0	0	0	463	508	0	0	3	2			
8	0	0	0	0	467	508	0	0	3	2			
9	0	0	0	0	472	510	0	0	3	2			
10	0	0	0	0	472	508	0	0	3	2			
11	0	0	0	0	476	508	0	0	3	2			
12	0	0	0	0	472	508	0	0	3	2			
13	0	0	0	0	472	511	0	0	3	2			
14	0	0	0	0	472	511	0	0	3	2			
15	0	0	0	0	472	511	0	0	3	2			
0	0	0	0	0	472	512	0	0	3	2			
1	0	0	0	0	470	512	0	0	3	2			
2	0	0	0	0	473	511	0	0	3	2			
3	0	0	0	0	478	511	0	0	3	2			
4	0	0	0	0	478	510	0	0	3	2			
5	0	0	0	0	476	511	0	0	3	2			
6	0	0	0	0	472	510	0	0	3	2			
7	0	0	0	0	472	511	0	0	3	2			
8	0	0	0	0	472	508	0	0	3	2			
9	0	0	0	0	472	510	0	0	3	2			
10	0	0	0	0	473	508	0	0	3	2			
11	0	0	0	0	478	511	0	0	3	2			
12	0	0	0	0	480	510	0	0	3	2			
13	0	0	0	0	478	510	0	0	3	2			
14	0	0	0	0	480	510	0	0	3	2			
15	0	0	0	0	480	511	0	0	3	2			
0	0	0	0	0	478	511	0	0	3	2			
1	0	0	0	0	480	511	0	0	4	2			
2	0	0	0	0	480	510	0	0	3	2			
3	0	0	0	0	480	511	0	0	3	2			
4	0	0	0	0	481	511	0	0	3	2			
5	0	0	0	0	480	512	0	0	3	2			
6	0	0	0	0	472	511	0	0	3	2			
7	0	0	0	0	472	511	0	0	3	2			
8	0	0	0	0	472	510	0	0	3	2			
9	0	0	0	0	476	510	0	0	3	2			
10	0	0	0	0	478	508	0	0	3	2			
11	0	0	0	0	476	508	0	0	4	2			
12	0	0	0	0	476	504	0	0	3	2			
13	0	0	0	0	476	508	0	0	3	2			
14	0	0	0	0	472	508	0	0	3	2			
15	0	0	0	0	472	504	0	0	4	2			
0	0	0	0	0	472	508	0	0	3	2			
1	0	0	0	0	472	505	0	0	3	2			
2	0	0	0	0	467	510	0	0	3	2			
3	0	0	0	0	467	510	0	0	3	2			
4	0	0	0	0	472	512	0	0	3	2			
5	0	0	0	0	472	511	0	0	3	2			
6	0	0	0	0	463	511	0	0	3	2			
7	0	0	0	0	455	512	0	0	3	2			
8	0	0	0	0	460	512	0	0	3	2			
9	0	0	0	0	463	510	0	0	3	2			
10	0	0	0	0	467	511	0	0	3	2			
11	0	0	0	0	476	510	0	0	4	2			
12	0	0	0	0	487	510	0	0	3	2			
13	0	0	0	0	496	510	0	0	3	2			
14	0	0	0	0	499	508	0	0	3	2			
15	0	0	0	0	497	504	0	0	3	2			
0	0	0	0	0	496	504	0	0	3	2			
1	0	0	0	0	487	504	0	0	4	2			
2	0	0	0	0	483	504	0	0	3	2			
3	0	0	0	0	483	508	0	0	3	2			
4	0	0	0	0	480	510	0	0	3	2			
5	0	0	0	0	480	510	0	0	3	2			
6	0	0	0	0	476	510	0	0	3	2			
7	0	0	0	0	476	508	0	0	3	2			
8	0	0	0	0	472	511	0	0	3	2			
9	0	0	0	0	472	510	0	0	3	2			
10	0	0	0	0	467	512	0	0	3	2			
11	0	0	0	0	472	513	0	0	3	2			
12	0	0	0	0	472	511	0	0	4	2			
13	0	0	0	0	476	510	0	0	3	2			
14	0	0	0	0	481	510	0	0	3	2			
15	0	0	0	0	483	508	0	0	3	2			
0	0	0	0	0	481	508	0	0	3	2			
1	0	0	0	0	480	508	0	0	3	2			
2	0	0	0	0	480	508	0	0	3	2			
3	0	0	0	0	476	508	0	0	3	2			
4	0	0	0	0	472	510	0	0	3	2			
5	0	0	0	0	463	508	0	0	3	2			
6	0	0	0	0	465	511	0	0	4	2			
7	0	0	0	0	472	508	0	0	3	2			
8	0	0	0	0	476	511	0	0	3	2			
9	0	0	0	0	476	511	0	0	3	2			
10	0	0	0	0	472	508	0	0	3	2			
11	0	0	0	0	472	508	0	0	3	2			
12	0	0	0	0	463	511	0	0	3	2			
13	0	0	0	0	463	512	0	0	3	2			
14	0	0	0	0	467	511	0	0	3	2			
15	0	0	0	0	472	511	0	0	3	2			
0	0	0	0	0	472	511	0	0	3	2			
1	0	0	0	0	476	511	0	0	3	2			
2	0	0	0	0	480	511	0	0	3	2			
3	0	0	0	0	480	510	0	0	3	2			
4	0	0	0	0	483	511	0	0	3	2			
5	0	0	0	0	480	511	0	0	3	2			
6	0	0	0	0	480	510	0	0	3	2			
7	0	0	0	0	478	508	0	0	3	2			
8	0	0	0	0	476	508	0	0	3	2			
9	0	0	0	0	476	505	0	0	3	2			
10	0	0	0	0	473	508	0	0	3	2			
11	0	0	0	0	472	508	0	0	3	2			
12	0	0	0	0	467	508	0	0	3	2			
13	0	0	0	0	467	508	0	0	3	2			
14	0	0	0	0	472	508	0	0	3	2			
15	0	0	0	0	472	510	0	0	3	2			
0	0	0	0	0	472	511	0	0	3	2			
1	0	0	0	0	467	508	0	0	3	2			
2	0	0	0	0	467	511	0	0	3	2			
3	0	0	0	0	472	511	0	0	3	2			
4	0	0	0	0	472	512	0	0	3	2			
5	0	0	0	0	476	513	0	0	3	2			
6	0	0	0	0	480	512	0	0	4	2			
7	0	0	0	0	480	511	0	0	3	2			
8	0	0	0	0	483	510	0	0	3	2			
9	0	0	0	0	481	510	0	0	3	2			
10	0	0	0	0	481	508	0	0	3	2			
11	0	0	0	0	487	505	0	0	3	2			
12	0	0	0	0	486	504	0	0	3	2			
13	0	0	0	0	483	508	0	0	3	2			
14	0	0	0	0	483	508	0	0	3	2			
15	0	0	0	0	481	508	0	0	3	2			
0	0	0	0	0	480	505	0	0	3	2			
1	0	0	0	0	480	505	0	0	3	2			
2	0	0	0	0	480	508	0	0	3	2			
3	0	0	0	0	480	508	0	0	3	2			
4	0	0	0	0	480	508	0	0	3	2			
5	0	0	0	0	478	511	0	0	3	2			
6	0	0	0	0	480	511	0	0	3	2			
7	0	0	0	0	480	511	0	0	3	2			
8	0	0	0	0	480	511	0	0	3	2			
9	0	0	0	0	480	512	0	0	3	2			
10	0	0	0	0	476	508	0	0	3	2			
11	0	0	0	0	472	510	0	0	3	2			
12	0	0	0	0	473	510	0	0	3	2			
13	0	0	0	0	472	510	0	0	3	2			
14	0	0	0	0	473	510	0	0	3	2			
15	0	0	0	0	480	510	0	0	3	2			
0	0	0	0	0	480	510	0	0	3	2			
1	0	0	0	0	476	508	0	0	3	2			
2	0	0	0	0	472	504	0	0	4	2			
3	0	0	0	0	460	505	0	0	4	2			
4	0	0	0	0	451	505	0	0	3	2			
5	0	0	0	0	449	508	0	0	3	2			
6	0	0	0	0	451	510	0	0	3	2			
7	0	0	0	0	455	510	0	0	3	2			
8	0	0	0	0	462	511	0	0	3	2			
9	0	0	0	0	467	510	0	0	3	2			
10	0	0	0	0	478	511	0	0	3	2			
11	0	0	0	0	492	512	0	0	3	2			
12	0	0	0	0	496	512	0	0	3	2			
13	0	0	0	0	494	512	0	0	3	2			
14	0	0	0	0	487	511	0	0	4	2			
15	0	0	0	0	483	510	0	0	3	2			
0	0	0	0	0	481	510	0	0	3	2			
1	0	0	0	0	483	510	0	0	3	2			
2	0	0	0	0	487	508	0	0	4	2			
3	0	0	0	0	483	508	0	0	3	2			
4	0	0	0	0	483	508	0	0	3	2			
5	0	0	0	0	480	510	0	0	3	2			
6	0	0	0	0	480	508	0	0	3	2			
7	0	0	0	0	476	510	0	0	3	2			
8	0	0	0	0	478	511	0	0	3	2			
9	0	0	0	0	476	508	0	0	3	2			
10	0	0	0	0	472	510	0	0	3	2			
11	0	0	0	0	473	510	0	0	3	2			
12	0	0	0	0	476	511	0	0	3	2			
13	0	0	0	0	480	511	0	0	3	2			
14	0	0	0	0	480	511	0	0	3	2			
15	0	0	0	0	476	510	0	0	3	2			
0	0	0	0	0	473	510	0	0	3	2			
1	0	0	0	0	472	511	0	0	3	2			
2	0	0	0	0	467	511	0	0	3	2			
3	0	0	0	0	467	508	0	0	3	2			
4	0	0	0	0	472	511	0	0	3	2			
5	0	0	0	0	470	508	0	0	3	2			
6	0	0	0	0	467	508	0	0	3	2			
7	0	0	0	0	472	508	0	0	3	2			
8	0	0	0	0	476	508	0	0	3	2			
9	0	0	0	0	480	504	0	0	3	2			
10	0	0	0	0	492	508	0	0	3	2			
11	0	0	0	0	497	508	0	0	3	2			
12	0	0	0	0	496	510	0	0	3	2			
13	0	0	0	0	487	510	0	0	3	2			
14	0	0	0	0	483	508	0	0	3	2			
15	0	0	0	0	480	511	0	0	3	2			
0	0	0	0	0	480	510	0	0	3	2			
1	0	0	0	0	480	511	0	0	3	2			
2	0	0	0	0	480	512	0	0	3	2			
3	0	0	0	0	476	512	0	0	3	2			
4	0	0	0	0	467	511	0	0	3	2			
5	0	0	0	0	463	508	0	0	3	2			
6	0	0	0	0	465	508	0	0	3	2			
7	0	0	0	0	463	510	0	0	3	2			
8	0	0	0	0	460	511	0	0	3	2			
9	0	0	0	0	463	511	0	0	3	2			
10	0	0	0	0	472	508	0	0	3	2			
11	0	0	0	0	472	508	0	0	4	2			
12	0	0	0	0	476	505	0	0	3	2			
13	0	0	0	0	476	508	0	0	3	2			
14	0	0	0	0	472	510	0	0	3	2			
15	0	0	0	0	472	511	0	0	3	2			
0	0	0	0	0	473	508	0	0	3	2			
1	0	0	0	0	472	511	0	0	3	2			
2	0	0	0	0	472	511	0	0	3	2			
3	0	0	0	0	476	508	0	0	3	2			
4	0	0	0	0	480	510	0	0	3	2			
5	0	0	0	0	480	510	0	0	3	2			
6	0	0	0	0	487	511	0	0	3	2			
7	0	0	0	0	487	510	0	0	3	2			
8	0	0	0	0	483	511	0	0	3	2			
9	0	0	0	0	483	511	0	0	3	2			
10	0	0	0	0	483	511	0	0	3	2			
11	0	0	0	0	480	512	0	0	3	2			
12	0	0	0	0	480	512	0	0	3	2			
13	0	0	0	0	476	513	0	0	3	2			
14	0	0	0	0	473	511	0	0	3	2			
15	0	0	0	0	472	510	0	0	3	2			
0	0	0	0	0	472	510	0	0	4	2			
1	0	0	0	0	467	508	0	0	4	2			
2	0	0	0	0	472	508	0	0	3	2			
3	0	0	0	0	472	504	0	0	3	2			
4	0	0	0	0	476	505	0	0	3	2			
5	0	0	0	0	480	508	0	0	3	2			
6	0	0	0	0	480	511	0	0	3	2			
7	0	0	0	0	487	508	0	0	3	2			
8	0	0	0	0	487	510	0	0	3	2			
9	0	0	0	0	486	510	0	0	3	2			
10	0	0	0	0	483	510	0	0	3	2			
11	0	0	0	0	467	510	0	0	4	2			
12	0	0	0	0	448	511	0	0	3	2			
13	0	0	0	0	451	511	0	0	3	2			
14	0	0	0	0	467	510	0	0	3	2			
15	0	0	0	0	472	508	0	0	3	2			
0	0	0	0	0	472	508	0	0	3	2			
1	0	0	0	0	472	508	0	0	3	2			
2	0	0	0	0	472	511	0	0	3	2			
3	0	0	0	0	476	508	0	0	3	2			
4	0	0	0	0	473	508	0	0	3	2			
5	0	0	0	0	476	504	0	0	3	2			
6	0	0	0	0	476	505	0	0	3	2			
7	0	0	0	0	476	508	0	0	4	2			
8	0	0	0	0	478	508	0	0	3	2			
9	0	0	0	0	476	508	0	0	3	2			
10	0	0	0	0	476	508	0	0	3	2			
11	0	0	0	0	476	510	0	0	3	2			
12	0	0	0	0	476	510	0	0	3	2			
13	0	0	0	0	478	511	0	0	3	2			
14	0	0	0	0	476	512	0	0	3	2			
15	0	0	0	0	476	512	0	0	3	2			
0	0	0	0	0	476	512	0	0	3	2			
1	0	0	0	0	472	511	0	0	3	2			
2	0	0	0	0	467	511	0	0	4	2			
3	0	0	0	0	472	510	0	0	3	2			
4	0	0	0	0	472	508	0	0	3	2			
5	0	0	0	0	478	510	0	0	3	2			
6	0	0	0	0	480	508	0	0	3	2			
7	0	0	0	0	480	510	0	0	3	2			
8	0	0	0	0	483	508	0	0	3	2			
9	0	0	0	0	496	508	0	0	3	2			
10	0	0	0	0	492	504	0	0	3	2			
11	0	0	0	0	483	508	0	0	3	2			
12	0	0	0	0	480	511	0	0	3	2			
13	0	0	0	0	476	510	0	0	3	2			
14	0	0	0	0	472	510	0	0	3	2			
15	0	0	0	0	472	510	0	0	4	2			
0	0	0	0	0	472	510	0	0	3	2			
1	0	0	0	0	465	508	0	0	3	2			
2	0	0	0	0	465	511	0	0	3	2			
3	0	0	0	0	472	512	0	0	3	2			
4	0	0	0	0	478	512	0	0	3	2			
5	0	0	0	0	480	511	0	0	3	2			
6	0	0	0	0	480	511	0	0	3	2			
7	0	0	0	0	480	511	0	0	3	2			
8	0	0	0	0	487	511	0	0	3	2			
9	0	0	0	0	492	508	0	0	3	2			
10	0	0	0	0	483	508	0	0	3	2			
11	0	0	0	0	480	508	0	0	3	2			
12	0	0	0	0	480	508	0	0	3	2			
13	0	0	0	0	480	508	0	0	4	2			
14	0	0	0	0	480	504	0	0	3	2			
15	0	0	0	0	480	510	0	0	3	2			
0	0	0	0	0	478	511	0	0	3	2			
1	0	0	0	0	467	510	0	0	3	2			
2	0	0	0	0	463	510	0	0	3	2			
3	0	0	0	0	457	510	0	0	3	2			
4	0	0	0	0	455	510	0	0	3	2			
5	0	0	0	0	465	510	0	0	3	2			
6	0	0	0	0	476	512	0	0	3	2			
7	0	0	0	0	472	511	0	0	3	2			
8	0	0	0	0	472	512	0	0	3	2			
9	0	0	0	0	472	511	0	0	3	2			
10	0	0	0	0	472	512	0	0	3	2			
11	0	0	0	0	472	512	0	0	3	2			
12	0	0	0	0	472	510	0	0	3	2			
13	0	0	0	0	476	510	0	0	3	2			
14	0	0	0	0	476	510	0	0	3	2			
15	0	0	0	0	476	505	0	0	3	2			
0	0	0	0	0	473	508	0	0	3	2			
1	0	0	0	0	472	508	0	0	3	2			
2	0	0	0	0	473	508	0	0	3	2			
3	0	0	0	0	476	504	0	0	3	2			
4	0	0	0	0	476	508	0	0	3	2			
5	0	0	0	0	480	510	0	0	3	2			
6	0	0	0	0	486	510	0	0	3	2			
7	0	0	0	0	481	508	0	0	3	2			
8	0	0	0	0	476	510	0	0	3	2			
9	0	0	0	0	476	510	0	0	3	2			
10	0	0	0	0	476	510	0	0	3	2			
11	0	0	0	0	478	510	0	0	3	2			
12	0	0	0	0	476	511	0	0	3	2			
13	0	0	0	0	480	511	0	0	3	2			
14	0	0	0	0	481	511	0	0	3	2			
15	0	0	0	0	480	512	0	0	3	2			
0	0	0	0	0	480	511	0	0	3	2			
1	0	0	0	0	480	510	0	0	3	2			
2	0	0	0	0	480	510	0	0	3	2			
3	0	0	0	0	480	511	0	0	3	2			
4	0	0	0	0	480	510	0	0	3	2			
5	0	0	0	0	480	508	0	0	3	2			
6	0	0	0	0	472	508	0	0	3	2			
7	0	0	0	0	472	504	0	0	3	2			
8	0	0	0	0	470	508	0	0	3	2			
9	0	0	0	0	463	510	0	0	3	2			
10	0	0	0	0	463	511	0	0	3	2			
11	0	0	0	0	472	510	0	0	3	2			
12	0	0	0	0	472	510	0	0	3	2			
13	0	0	0	0	472	511	0	0	3	2			
14	0	0	0	0	476	510	0	0	3	2			
15	0	0	0	0	480	512	0	0	3	2			
0	0	0	0	0	487	511	0	0	3	2			
1	0	0	0	0	487	510	0	0	3	2			
2	0	0	0	0	487	508	0	0	3	2			
3	0	0	0	0	472	511	0	0	3	2			
4	0	0	0	0	463	511	0	0	3	2			
5	0	0	0	0	465	512	0	0	3	2			
6	0	0	0	0	463	511	0	0	3	2			
7	0	0	0	0	467	508	0	0	3	2			
8	0	0	0	0	472	508	0	0	3	2			
9	0	0	0	0	467	504	0	0	3	2			
10	0	0	0	0	472	508	0	0	3	2			
11	0	0	0	0	476	508	0	0	4	2			
12	0	0	0	0	480	508	0	0	3	2			
13	0	0	0	0	480	508	0	0	3	2			
14	0	0	0	0	480	508	0	0	3	2			
15	0	0	0	0	476	510	0	0	3	2			
0	0	0	0	0	476	511	0	0	3	2			
1	0	0	0	0	473	510	0	0	3	2			
2	0	0	0	0	472	508	0	0	3	2			
3	0	0	0	0	472	510	0	0	3	2			
4	0	0	0	0	472	511	0	0	3	2			
5	0	0	0	0	467	510	0	0	3	2			
6	0	0	0	0	470	508	0	0	3	2			
7	0	0	0	0	472	510	0	0	3	2			
8	0	0	0	0	478	510	0	0	3	2			
9	0	0	0	0	483	510	0	0	4	2			
10	0	0	0	0	492	511	0	0	3	2			
11	0	0	0	0	492	510	0	0	3	2			
12	0	0	0	0	496	508	0	0	4	2			
13	0	0	0	0	496	508	0	0	3	2			
14	0	0	0	0	492	505	0	0	3	2			
15	0	0	0	0	492	510	0	0	3	2			
0	0	0	0	0	483	508	0	0	3	2			
1	0	0	0	0	465	510	0	0	3	2			
2	0	0	0	0	451	508	0	0	3	2			
3	0	0	0	0	451	508	0	0	3	2			
4	0	0	0	0	451	508	0	0	4	2			
5	0	0	0	0	455	508	0	0	4	2			
6	0	0	0	0	463	508	0	0	3	2			
7	0	0	0	0	472	511	0	0	3	2			
8	0	0	0	0	472	511	0	0	3	2			
9	0	0	0	0	465	511	0	0	3	2			
10	0	0	0	0	472	511	0	0	3	2			
11	0	0	0	0	480	511	0	0	3	2			
12	0	0	0	0	483	508	0	0	3	2			
13	0	0	0	0	480	510	0	0	3	2			
14	0	0	0	0	480	511	0	0	3	2			
15	0	0	0	0	481	508	0	0	3	2			
0	0	0	0	0	481	511	0	0	3	2			
1	0	0	0	0	483	508	0	0	3	2			
2	0	0	0	0	481	510	0	0	3	2			
3	0	0	0	0	476	510	0	0	3	2			
4	0	0	0	0	463	508	0	0	3	2			
5	0	0	0	0	472	510	0	0	3	2			
6	0	0	0	0	476	511	0	0	3	2			
7	0	0	0	0	476	510	0	0	3	2			
8	0	0	0	0	472	510	0	0	3	2			
9	0	0	0	0	467	508	0	0	4	2			
10	0	0	0	0	472	511	0	0	3	2			
11	0	0	0	0	472	511	0	0	3	2			
12	0	0	0	0	476	512	0	0	4	2			
13	0	0	0	0	478	511	0	0	3	2			
14	0	0	0	0	476	511	0	0	3	2			
15	0	0	0	0	476	511	0	0	4	2			
0	0	0	0	0	478	511	0	0	3	2			
1	0	0	0	0	480	508	0	0	3	2			
2	0	0	0	0	481	508	0	0	3	2			
3	0	0	0	0	481	508	0	0	3	2			
4	0	0	0	0	480	508	0	0	3	2			
5	0	0	0	0	480	505	0	0	3	2			
6	0	0	0	0	480	504	0	0	3	2			
7	0	0	0	0	480	508	0	0	3	2			
8	0	0	0	0	480	508	0	0	3	2			
9	0	0	0	0	476	510	0	0	3	2			
10	0	0	0	0	476	508	0	0	3	2			
11	0	0	0	0	473	511	0	0	3	2			
12	0	0	0	0	472	510	0	0	3	2			
13	0	0	0	0	472	511	0	0	3	2			
14	0	0	0	0	473	511	0	0	3	2			
15	0	0	0	0	480	513	0	0	3	2			
0	0	0	0	0	483	512	0	0	3	2			
1	0	0	0	0	483	511	0	0	3	2			
2	0	0	0	0	483	511	0	0	3	2			
3	0	0	0	0	487	511	0	0	3	2			
4	0	0	0	0	483	510	0	0	3	2			
5	0	0	0	0	480	510	0	0	3	2			
6	0	0	0	0	463	508	0	0	3	2			
7	0	0	0	0	448	510	0	0	3	2			
8	0	0	0	0	448	508	0	0	3	2			
9	0	0	0	0	457	504	0	0	3	2			
10	0	0	0	0	463	505	0	0	3	2			
11	0	0	0	0	467	504	0	0	3	2			
12	0	0	0	0	473	505	0	0	3	2			
13	0	0	0	0	476	510	0	0	3	2			
14	0	0	0	0	472	505	0	0	3	2			
15	0	0	0	0	476	508	0	0	3	2			
0	0	0	0	0	478	508	0	0	3	2			
1	0	0	0	0	480	512	0	0	3	2			
2	0	0	0	0	480	511	0	0	3	2			
3	0	0	0	0	480	513	0	0	3	2			
4	0	0	0	0	480	512	0	0	4	2			
5	0	0	0	0	492	511	0	0	3	2			
6	0	0	0	0	487	512	0	0	3	2			
7	0	0	0	0	480	510	0	0	3	2			
8	0	0	0	0	481	510	0	0	3	2			
9	0	0	0	0	480	511	0	0	4	2			
10	0	0	0	0	480	510	0	0	3	2			
11	0	0	0	0	481	508	0	0	3	2			
12	0	0	0	0	480	510	0	0	3	2			
13	0	0	0	0	480	504	0	0	3	2			
14	0	0	0	0	481	504	0	0	3	2			
15	0	0	0	0	481	504	0	0	4	2			
0	0	0	0	0	480	504	0	0	3	2			
1	0	0	0	0	472	508	0	0	3	2			
2	0	0	0	0	463	505	0	0	3	2			
3	0	0	0	0	460	504	0	0	3	2			
4	0	0	0	0	465	508	0	0	3	2			
5	0	0	0	0	476	512	0	0	3	2			
6	0	0	0	0	476	512	0	0	3	2			
7	0	0	0	0	480	512	0	0	3	2			
8	0	0	0	0	481	511	0	0	3	2			
9	0	0	0	0	486	511	0	0	3	2			
10	0	0	0	0	483	511	0	0	3	2			
11	0	0	0	0	486	511	0	0	3	2			
12	0	0	0	0	481	510	0	0	3	2			
13	0	0	0	0	480	508	0	0	3	2			
14	0	0	0	0	480	508	0	0	3	2			
15	0	0	0	0	476	510	0	0	3	2			
0	0	0	0	0	467	508	0	0	3	2			
1	0	0	0	0	455	510	0	0	3	2			
2	0	0	0	0	462	508	0	0	3	2			
3	0	0	0	0	463	508	0	0	3	2			
4	0	0	0	0	467	508	0	0	3	2			
5	0	0	0	0	472	511	0	0	3	2			
6	0	0	0	0	467	508	0	0	4	2			
7	0	0	0	0	472	511	0	0	3	2			
8	0	0	0	0	472	510	0	0	3	2			
9	0	0	0	0	473	511	0	0	3	2			
10	0	0	0	0	476	511	0	0	3	2			
11	0	0	0	0	480	512	0	0	3	2			
12	0	0	0	0	483	512	0	0	3	2			
13	0	0	0	0	483	511	0	0	3	2			
14	0	0	0	0	480	511	0	0	3	2			
15	0	0	0	0	480	512	0	0	3	2			
0	0	0	0	0	476	512	0	0	3	2			
1	0	0	0	0	480	512	0	0	3	2			
2	0	0	0	0	483	510	0	0	4	2			
3	0	0	0	0	487	508	0	0	3	2			
4	0	0	0	0	483	510	0	0	3	2			
5	0	0	0	0	483	508	0	0	3	2			
6	0	0	0	0	480	508	0	0	3	2			
7	0	0	0	0	472	508	0	0	3	2			
8	0	0	0	0	463	504	0	0	3	2			
9	0	0	0	0	455	510	0	0	3	2			
10	0	0	0	0	455	508	0	0	3	2			
11	0	0	0	0	463	510	0	0	3	2			
12	0	0	0	0	472	511	0	0	3	2			
13	0	0	0	0	480	511	0	0	3	2			
14	0	0	0	0	480	510	0	0	3	2			
15	0	0	0	0	481	510	0	0	3	2			
0	0	0	0	0	483	511	0	0	3	2			
1	0	0	0	0	480	510	0	0	3	2			
2	0	0	0	0	480	510	0	0	3	2			
3	0	0	0	0	480	508	0	0	3	2			
4	0	0	0	0	480	508	0	0	3	2			
5	0	0	0	0	480	508	0	0	4	2			
6	0	0	0	0	480	510	0	0	3	2			
7	0	0	0	0	480	508	0	0	3	2			
8	0	0	0	0	480	510	0	0	3	2			
9	0	0	0	0	478	510	0	0	3	2			
10	0	0	0	0	472	505	0	0	3	2			
11	0	0	0	0	472	505	0	0	3	2			
12	0	0	0	0	467	510	0	0	3	2			
13	0	0	0	0	463	504	0	0	3	2			
14	0	0	0	0	460	508	0	0	3	2			
15	0	0	0	0	463	510	0	0	3	2			
0	0	0	0	0	476	510	0	0	3	2			
1	0	0	0	0	483	511	0	0	3	2			
2	0	0	0	0	492	512	0	0	3	2			
3	0	0	0	0	497	512	0	0	3	2			
4	0	0	0	0	497	512	0	0	3	2			
5	0	0	0	0	494	511	0	0	3	2			
6	0	0	0	0	487	511	0	0	3	2			
7	0	0	0	0	472	511	0	0	3	2			
8	0	0	0	0	460	508	0	0	3	2			
9	0	0	0	0	463	508	0	0	3	2			
10	0	0	0	0	472	510	0	0	3	2			
11	0	0	0	0	480	504	0	0	3	2			
12	0	0	0	0	480	510	0	0	3	2			
13	0	0	0	0	480	510	0	0	3	2			
14	0	0	0	0	480	508	0	0	3	2			
15	0	0	0	0	476	508	0	0	3	2			
0	0	0	0	0	476	504	0	0	3	2			
1	0	0	0	0	476	505	0	0	3	2			
2	0	0	0	0	476	508	0	0	3	2			
3	0	0	0	0	476	510	0	0	3	2			
4	0	0	0	0	476	511	0	0	3	2			
5	0	0	0	0	476	511	0	0	3	2			
6	0	0	0	0	480	512	0	0	3	2			
7	0	0	0	0	480	512	0	0	3	2			
8	0	0	0	0	480	511	0	0	3	2			
9	0	0	0	0	476	510	0	0	3	2			
10	0	0	0	0	472	510	0	0	3	2			
11	0	0	0	0	476	510	0	0	3	2			
12	0	0	0	0	472	510	0	0	3	2			
13	0	0	0	0	465	510	0	0	3	2			
14	0	0	0	0	472	510	0	0	3	2			
15	0	0	0	0	476	510	0	0	3	2			
0	0	0	0	0	476	511	0	0	3	2			
1	0	0	0	0	480	508	0	0	3	2			
2	0	0	0	0	481	508	0	0	4	2			
3	0	0	0	0	481	505	0	0	4	2			
4	0	0	0	0	481	505	0	0	3	2			
5	0	0	0	0	480	508	0	0	3	2			
6	0	0	0	0	472	508	0	0	4	2			
7	0	0	0	0	467	508	0	0	4	2			
8	0	0	0	0	472	508	0	0	3	2			
9	0	0	0	0	472	510	0	0	3	2			
10	0	0	0	0	472	510	0	0	3	2			
11	0	0	0	0	472	511	0	0	3	2			
12	0	0	0	0	465	511	0	0	3	2			
13	0	0	0	0	465	511	0	0	3	2			
14	0	0	0	0	472	510	0	0	3	2			
15	0	0	0	0	470	512	0	0	3	2			
0	0	0	0	0	472	511	0	0	3	2			
1	0	0	0	0	472	508	0	0	3	2			
2	0	0	0	0	463	508	0	0	3	2			
3	0	0	0	0	463	508	0	0	3	2			
4	0	0	0	0	465	510	0	0	3	2			
5	0	0	0	0	467	508	0	0	3	2			
6	0	0	0	0	467	504	0	0	3	2			
7	0	0	0	0	472	508	0	0	3	2			
8	0	0	0	0	478	508	0	0	3	2			
9	0	0	0	0	487	511	0	0	3	2			
10	0	0	0	0	494	511	0	0	3	2			
11	0	0	0	0	487	512	0	0	3	2			
12	0	0	0	0	486	510	0	0	3	2			
13	0	0	0	0	480	511	0	0	3	2			
14	0	0	0	0	480	511	0	0	3	2			
15	0	0	0	0	481	512	0	0	3	2			
0	0	0	0	0	494	512	0	0	3	2			
1	0	0	0	0	496	511	0	0	3	2			
2	0	0	0	0	487	510	0	0	3	2			
3	0	0	0	0	481	511	0	0	4	2			
4	0	0	0	0	481	510	0	0	3	2			
5	0	0	0	0	480	508	0	0	3	2			
6	0	0	0	0	472	508	0	0	3	2			
7	0	0	0	0	472	508	0	0	3	2			
8	0	0	0	0	480	508	0	0	3	2			
9	0	0	0	0	480	508	0	0	3	2			
10	0	0	0	0	480	508	0	0	3	2			
11	0	0	0	0	476	508	0	0	3	2			
12	0	0	0	0	472	508	0	0	3	2			
13	0	0	0	0	472	508	0	0	3	2			
14	0	0	0	0	478	510	0	0	3	2			
15	0	0	0	0	472	511	0	0	3	2			
0	0	0	0	0	462	512	0	0	3	2			
1	0	0	0	0	455	511	0	0	3	2			
2	0	0	0	0	455	512	0	0	3	2			
3	0	0	0	0	455	512	0	0	3	2			
4	0	0	0	0	463	511	0	0	3	2			
5	0	0	0	0	480	512	0	0	3	2			
6	0	0	0	0	487	511	0	0	3	2			
7	0	0	0	0	492	511	0	0	3	2			
8	0	0	0	0	487	510	0	0	3	2			
9	0	0	0	0	481	510	0	0	3	2			
10	0	0	0	0	480	508	0	0	3	2			
11	0	0	0	0	476	505	0	0	3	2			
12	0	0	0	0	472	508	0	0	3	2			
13	0	0	0	0	463	504	0	0	3	2			
14	0	0	0	0	463	508	0	0	3	2			
15	0	0	0	0	472	510	0	0	3	2			
0	0	0	0	0	480	508	0	0	3	2			
1	0	0	0	0	480	508	0	0	3	2			
2	0	0	0	0	480	510	0	0	3	2			
3	0	0	0	0	483	510	0	0	3	2			
4	0	0	0	0	487	511	0	0	3	2			
5	0	0	0	0	483	512	0	0	3	2			
6	0	0	0	0	480	512	0	0	3	2			
7	0	0	0	0	478	512	0	0	3	2			
8	0	0	0	0	463	513	0	0	3	2			
9	0	0	0	0	455	511	0	0	3	2			
10	0	0	0	0	460	511	0	0	3	2			
11	0	0	0	0	472	510	0	0	3	2			
12	0	0	0	0	480	508	0	0	3	2			
13	0	0	0	0	483	508	0	0	3	2			
14	0	0	0	0	492	508	0	0	3	2			
15	0	0	0	0	487	505	0	0	3	2			
0	0	0	0	0	481	508	0	0	3	2			
1	0	0	0	0	478	504	0	0	3	2			
2	0	0	0	0	467	508	0	0	3	2			
3	0	0	0	0	463	508	0	0	3	2			
4	0	0	0	0	463	508	0	0	3	2			
5	0	0	0	0	463	508	0	0	3	2			
6	0	0	0	0	465	510	0	0	3	2			
7	0	0	0	0	472	508	0	0	3	2			
8	0	0	0	0	472	510	0	0	3	2			
9	0	0	0	0	472	512	0	0	3	2			
10	0	0	0	0	473	511	0	0	3	2			
11	0	0	0	0	476	512	0	0	3	2			
12	0	0	0	0	476	511	0	0	3	2			
13	0	0	0	0	478	510	0	0	3	2			
14	0	0	0	0	480	510	0	0	3	2			
15	0	0	0	0	476	508	0	0	3	2			
0	0	0	0	0	472	510	0	0	3	2			
1	0	0	0	0	472	510	0	0	3	2			
2	0	0	0	0	472	511	0	0	3	2			
3	0	0	0	0	473	510	0	0	3	2			
4	0	0	0	0	476	510	0	0	3	2			
5	0	0	0	0	476	511	0	0	3	2			
6	0	0	0	0	472	510	0	0	3	2			
7	0	0	0	0	472	508	0	0	4	2			
8	0	0	0	0	472	505	0	0	3	2			
9	0	0	0	0	467	505	0	0	3	2			
10	0	0	0	0	472	508	0	0	3	2			
11	0	0	0	0	472	504	0	0	3	2			
12	0	0	0	0	476	510	0	0	3	2			
13	0	0	0	0	480	510	0	0	3	2			
14	0	0	0	0	483	511	0	0	3	2			
15	0	0	0	0	486	511	0	0	3	2			
0	0	0	0	0	486	512	0	0	3	2			
1	0	0	0	0	481	513	0	1	3	2			
2	0	0	0	0	480	512	0	1	3	2			
3	0	0	0	0	480	508	0	0	3	2			
4	0	0	0	0	480	508	0	0	3	2			
5	0	0	0	0	480	510	0	1	3	2			
6	0	0	0	0	476	510	0	0	3	2			
7	0	0	0	0	480	510	0	0	3	2			
8	0	0	0	0	480	511	0	0	3	2			
9	0	0	0	0	481	508	0	0	3	2			
10	0	0	0	0	480	508	0	1	3	2			
11	0	0	0	0	480	508	0	1	3	2			
12	0	0	0	0	480	508	0	0	3	2			
13	0	0	0	0	478	508	0	0	3	2			
14	0	0	0	0	476	510	0	1	3	2			
15	0	0	0	0	460	511	0	1	3	2			
0	0	0	0	0	460	511	0	0	3	2			
1	0	0	0	0	463	510	0	0	3	2			
2	0	0	0	0	472	512	0	1	3	2			
3	0	0	0	0	476	512	0	0	3	2			
4	0	0	0	0	476	511	0	1	4	2			
5	0	0	0	0	480	510	0	1	3	2			
6	0	0	0	0	486	510	0	0	3	2			
7	0	0	0	0	487	511	0	0	3	2			
8	0	0	0	0	480	510	0	0	3	2			
9	0	0	0	0	480	508	0	1	3	2			
10	0	0	0	0	483	508	0	1	3	2			
11	0	0	0	0	481	508	0	0	3	2			
12	0	0	0	0	480	508	0	0	3	2			
13	0	0	0	0	476	511	0	0	3	2			
14	0	0	0	0	480	510	0	0	3	2			
15	0	0	0	0	480	508	0	0	3	2			
0	0	0	0	0	476	508	0	1	3	2			
1	0	0	0	0	476	508	0	0	3	2			
2	0	0	0	0	472	511	0	0	3	2			
3	0	0	0	0	472	511	0	1	3	2			
4	0	0	0	0	472	510	0	0	3	2			
5	0	0	0	0	472	511	0	0	3	2			
6	0	0	0	0	476	511	0	0	3	2			
7	0	0	0	0	480	512	0	0	3	2			
8	0	0	0	0	480	512	0	1	3	2			
9	0	0	0	0	480	512	0	0	3	2			
10	0	0	0	0	478	511	0	0	3	2			
11	0	0	0	0	480	511	0	0	3	2			
12	0	0	0	0	476	508	0	0	3	2			
13	0	0	0	0	476	510	0	0	3	2			
14	0	0	0	0	480	510	0	0	4	2			
15	0	0	0	0	476	504	0	0	3	2			
0	0	0	0	0	467	504	0	0	3	2			
1	0	0	0	0	467	510	0	0	3	2			
2	0	0	0	0	476	508	0	0	3	2			
3	0	0	0	0	472	508	0	0	3	2			
4	0	0	0	0	467	504	0	0	3	2			
5	0	0	0	0	467	508	0	0	3	2			
6	0	0	0	0	472	505	0	0	4	2			
7	0	0	0	0	478	508	0	0	3	2			
8	0	0	0	0	480	510	0	0	3	2			
9	0	0	0	0	480	508	0	0	3	2			
10	0	0	0	0	483	510	0	0	3	2			
11	0	0	0	0	480	511	0	0	3	2			
12	0	0	0	0	476	511	0	0	3	2			
13	0	0	0	0	472	511	0	0	3	2			
14	0	0	0	0	476	511	0	0	3	2			
15	0	0	0	0	478	511	0	0	4	2			
0	0	0	0	0	480	508	0	0	3	2			
1	0	0	0	0	476	510	0	0	3	2			
2	0	0	0	0	467	508	0	0	3	2			
3	0	0	0	0	463	510	0	0	3	2			
4	0	0	0	0	463	508	0	0	3	2			
5	0	0	0	0	463	508	0	0	3	2			
6	0	0	0	0	463	504	0	0	3	2			
7	0	0	0	0	472	505	0	0	3	2			
8	0	0	0	0	472	504	0	0	3	2			
9	0	0	0	0	476	508	0	0	3	2			
10	0	0	0	0	480	508	0	0	3	2			
11	0	0	0	0	483	508	0	0	3	2			
12	0	0	0	0	481	510	0	0	3	2			
13	0	0	0	0	480	510	0	0	3	2			
14	0	0	0	0	478	511	0	0	3	2			
15	0	0	0	0	476	512	0	0	3	2			
0	0	0	0	0	467	513	0	0	3	2			
1	0	0	0	0	460	512	0	0	4	2			
2	0	0	0	0	455	511	0	0	3	2			
3	0	0	0	0	463	511	0	0	3	2			
4	0	0	0	0	472	511	0	0	3	2			
5	0	0	0	0	478	511	0	0	3	2			
6	0	0	0	0	483	511	0	0	4	2			
7	0	0	0	0	483	511	0	0	3	2			
8	0	0	0	0	483	508	0	0	3	2			
9	0	0	0	0	487	508	0	0	3	2			
10	0	0	0	0	487	510	0	0	3	2			
11	0	0	0	0	487	508	0	0	4	2			
12	0	0	0	0	480	508	0	0	3	2			
13	0	0	0	0	472	512	0	0	3	2			
14	0	0	0	0	462	511	0	0	3	2			
15	0	0	0	0	460	511	0	0	3	2			
0	0	0	0	0	463	512	0	0	3	2			
1	0	0	0	0	467	512	0	0	3	2			
2	0	0	0	0	472	510	0	0	3	2			
3	0	0	0	0	476	511	0	0	3	2			
4	0	0	0	0	476	511	0	0	3	2			
5	0	0	0	0	486	511	0	0	3	2			
6	0	0	0	0	496	511	0	0	4	2			
7	0	0	0	0	494	511	0	0	4	2			
8	0	0	0	0	487	508	0	0	3	2			
9	0	0	0	0	483	508	0	0	3	2			
10	0	0	0	0	476	510	0	0	3	2			
11	0	0	0	0	472	510	0	0	3	2			
12	0	0	0	0	472	508	0	0	3	2			
13	0	0	0	0	473	508	0	0	3	2			
14	0	0	0	0	473	508	0	0	3	2			
15	0	0	0	0	476	505	0	0	3	2			
0	0	0	0	0	480	504	0	0	3	2			
1	0	0	0	0	478	508	0	0	3	2			
2	0	0	0	0	476	508	0	0	4	2			
3	0	0	0	0	476	510	0	0	3	2			
4	0	0	0	0	476	510	0	0	3	2			
5	0	0	0	0	473	510	0	0	3	2			
6	0	0	0	0	467	510	0	0	3	2			
7	0	0	0	0	472	511	0	0	3	2			
8	0	0	0	0	480	511	0	0	3	2			
9	0	0	0	0	480	513	0	0	3	2			
10	0	0	0	0	481	511	0	0	3	2			
11	0	0	0	0	481	510	0	0	3	2			
12	0	0	0	0	480	511	0	0	3	2			
13	0	0	0	0	480	511	0	0	3	2			
14	0	0	0	0	480	508	0	0	3	2			
15	0	0	0	0	480	510	0	0	3	2			
0	0	0	0	0	473	508	0	0	3	2			
1	0	0	0	0	462	508	0	0	3	2			
2	0	0	0	0	455	508	0	0	3	2			
3	0	0	0	0	462	508	0	0	3	2			
4	0	0	0	0	463	508	0	0	4	2			
5	0	0	0	0	465	508	0	0	3	2			
6	0	0	0	0	472	510	0	0	3	2			
7	0	0	0	0	473	511	0	0	3	2			
8	0	0	0	0	480	511	0	0	3	2			
9	0	0	0	0	480	510	0	0	3	2			
10	0	0	0	0	476	508	0	0	3	2			
11	0	0	0	0	472	510	0	0	3	2			
12	0	0	0	0	476	510	0	0	3	2			
13	0	0	0	0	480	511	0	0	3	2			
14	0	0	0	0	483	510	0	0	3	2			
15	0	0	0	0	487	510	0	0	3	2			
0	0	0	0	0	483	511	0	0	3	2			
1	0	0	0	0	480	511	0	0	4	2			
2	0	0	0	0	476	511	0	0	3	2			
3	0	0	0	0	472	510	0	0	3	2			
4	0	0	0	0	467	510	0	0	3	2			
5	0	0	0	0	472	508	0	0	3	2			
6	0	0	0	0	465	508	0	0	3	2			
7	0	0	0	0	463	508	0	0	3	2			
8	0	0	0	0	467	508	0	0	3	2			
9	0	0	0	0	472	508	0	0	3	2			
10	0	0	0	0	480	511	0	0	3	2			
11	0	0	0	0	483	512	0	0	3	2			
12	0	0	0	0	478	511	0	0	3	2			
13	0	0	0	0	472	511	0	0	3	2			
14	0	0	0	0	465	512	0	0	3	2			
15	0	0	0	0	472	512	0	0	3	2			
0	0	0	0	0	476	512	0	0	3	2			
1	0	0	0	0	472	510	0	0	3	2			
2	0	0	0	0	465	510	0	0	3	2			
3	0	0	0	0	463	510	0	0	3	2			
4	0	0	0	0	476	508	0	0	3	2			
5	0	0	0	0	483	508	0	0	3	2			
6	0	0	0	0	481	508	0	0	4	2			
7	0	0	0	0	472	505	0	0	3	2			
8	0	0	0	0	476	505	0	0	4	2			
9	0	0	0	0	476	508	0	0	3	2			
10	0	0	0	0	478	508	0	0	3	2			
11	0	0	0	0	476	508	0	0	3	2			
12	0	0	0	0	472	508	0	0	3	2			
13	0	0	0	0	467	511	0	0	3	2			
14	0	0	0	0	480	510	0	0	4	2			
15	0	0	0	0	483	508	0	0	3	2			
0	0	0	0	0	480	510	0	0	3	2			
1	0	0	0	0	480	512	0	0	3	2			
2	0	0	0	0	476	510	0	0	3	2			
3	0	0	0	0	472	510	0	0	3	2			
4	0	0	0	0	472	510	0	0	4	2			
5	0	0	0	0	472	511	0	0	3	2			
6	0	0	0	0	473	510	0	0	3	2			
7	0	0	0	0	473	511	0	0	3	2			
8	0	0	0	0	476	511	0	0	3	2			
9	0	0	0	0	480	508	0	0	3	2			
10	0	0	0	0	481	510	0	0	4	2			
11	0	0	0	0	483	508	0	0	3	2			
12	0	0	0	0	487	508	0	0	3	2			
13	0	0	0	0	483	508	0	0	3	2			
14	0	0	0	0	480	508	0	0	3	2			
15	0	0	0	0	481	508	0	0	4	2			
0	0	0	0	0	480	505	0	0	3	2			
1	0	0	0	0	472	508	0	0	3	2			
2	0	0	0	0	460	508	0	0	3	2			
3	0	0	0	0	455	508	0	0	3	2			
4	0	0	0	0	455	508	0	0	3	2			
5	0	0	0	0	462	512	0	0	3	2			
6	0	0	0	0	463	512	0	0	3	2			
7	0	0	0	0	463	511	0	0	3	2			
8	0	0	0	0	472	511	0	0	4	2			
9	0	0	0	0	476	511	0	0	3	2			
10	0	0	0	0	481	511	0	0	3	2			
11	0	0	0	0	487	511	0	0	3	2			
12	0	0	0	0	487	511	0	0	3	2			
13	0	0	0	0	487	510	0	0	3	2			
14	0	0	0	0	487	511	0	0	3	2			
15	0	0	0	0	487	510	0	0	3	2			
0	0	0	0	0	487	508	0	0	3	2			
1	0	0	0	0	478	508	0	0	3	2			
2	0	0	0	0	462	508	0	0	3	2			
3	0	0	0	0	451	508	0	0	3	2			
4	0	0	0	0	455	508	0	0	3	2			
5	0	0	0	0	463	512	0	0	3	2			
6	0	0	0	0	463	511	0	0	3	2			
7	0	0	0	0	463	510	0	0	3	2			
8	0	0	0	0	465	508	0	0	3	2			
9	0	0	0	0	472	511	0	0	3	2			
10	0	0	0	0	481	511	0	0	3	2			
11	0	0	0	0	483	511	0	0	3	2			
12	0	0	0	0	480	512	0	0	3	2			
13	0	0	0	0	472	511	0	0	3	2			
14	0	0	0	0	472	512	0	0	3	2			
15	0	0	0	0	472	512	0	0	3	2			
0	0	0	0	0	467	512	0	0	3	2			
1	0	0	0	0	463	511	0	0	3	2			
2	0	0	0	0	463	508	0	0	3	2			
3	0	0	0	0	465	510	0	0	3	2			
4	0	0	0	0	480	504	0	0	3	2			
5	0	0	0	0	487	508	0	0	3	2			
6	0	0	0	0	487	505	0	0	4	2			
7	0	0	0	0	481	508	0	0	3	2			
8	0	0	0	0	480	508	0	0	3	2			
9	0	0	0	0	480	508	0	0	3	2			
10	0	0	0	0	481	508	0	0	3	2			
11	0	0	0	0	483	510	0	0	3	2			
12	0	0	0	0	480	510	0	0	3	2			
13	0	0	0	0	472	511	0	0	3	2			
14	0	0	0	0	463	510	0	1	3	2			
15	0	0	0	0	467	510	0	0	3	2			
0	0	0	0	0	472	511	0	0	3	2			
1	0	0	0	0	480	510	0	0	3	2			
2	0	0	0	0	483	511	0	1	4	2			
3	0	0	0	0	486	510	0	0	3	2			
4	0	0	0	0	481	511	0	0	3	2			
5	0	0	0	0	478	510	0	0	3	2			
6	0	0	0	0	473	510	0	0	3	2			
7	0	0	0	0	480	508	0	0	3	2			
8	0	0	0	0	483	510	0	0	3	2			
9	0	0	0	0	483	510	0	0	3	2			
10	0	0	0	0	487	505	0	0	3	2			
11	0	0	0	0	494	508	0	0	3	2			
12	0	0	0	0	494	508	0	1	3	2			
13	0	0	0	0	487	508	0	0	3	2			
14	0	0	0	0	480	511	0	0	3	2			
15	0	0	0	0	463	510	0	0	3	2			
0	0	0	0	0	455	511	0	0	3	2			
1	0	0	0	0	455	510	0	0	3	2			
2	0	0	0	0	451	508	0	0	3	2			
3	0	0	0	0	455	510	0	0	3	2			
4	0	0	0	0	467	511	0	1	4	2			
5	0	0	0	0	476	511	0	1	3	2			
6	0	0	0	0	472	510	0	1	3	2			
7	0	0	0	0	472	512	0	1	3	2			
8	0	0	0	0	472	511	0	1	3	2			
9	0	0	0	0	472	508	0	1	3	2			
10	0	0	0	0	476	505	0	0	3	2			
11	0	0	0	0	478	504	0	0	3	2			
12	0	0	0	0	473	504	0	1	3	2			
13	0	0	0	0	472	508	0	0	3	2			
14	0	0	0	0	465	510	0	0	3	2			
15	0	0	0	0	463	508	0	1	3	2			
0	0	0	0	0	463	508	0	1	3	2			
1	0	0	0	0	467	508	0	1	3	2			
2	0	0	0	0	467	508	0	1	3	2			
3	0	0	0	0	467	510	0	1	3	2			
4	0	0	0	0	472	510	0	1	3	2			
5	0	0	0	0	487	511	0	0	3	2			
6	0	0	0	0	492	513	0	0	3	2			
7	0	0	0	0	486	511	0	0	3	2			
8	0	0	0	0	478	511	0	0	3	2			
9	0	0	0	0	476	510	0	1	3	2			
10	0	0	0	0	480	510	0	1	3	2			
11	0	0	0	0	487	511	0	1	3	2			
12	0	0	0	0	487	508	0	7	3	2			
13	0	0	0	0	487	508	0	6	3	2			
14	0	0	0	0	487	508	0	3	3	2			
15	0	0	0	0	487	508	0	3	3	2			
0	0	0	0	0	483	510	0	3	3	2			
1	0	0	0	0	480	508	0	6	3	2			
2	0	0	0	0	476	508	0	6	3	2			
3	0	0	0	0	480	511	0	3	4	2			
4	0	0	0	0	480	510	0	3	3	2			
5	0	0	0	0	481	508	0	3	3	2			
6	0	0	0	0	480	510	0	6	4	2			
7	0	0	0	0	472	510	0	3	3	2			
8	0	0	0	0	467	510	0	3	3	2			
9	0	0	0	0	472	511	0	3	3	2			
10	0	0	0	0	472	511	0	1	3	2			
11	0	0	0	0	467	510	0	3	3	2			
12	0	0	0	0	472	511	0	7	3	2			
13	0	0	0	0	472	512	0	6	3	2			
14	0	0	0	0	472	511	0	7	3	2			
15	0	0	0	0	472	511	0	6	3	2			
0	0	0	0	0	467	511	0	6	3	2			
1	0	0	0	0	472	510	0	3	3	2			
2	0	0	0	0	472	511	0	1	3	2			
3	0	0	0	0	476	510	0	1	3	2			
4	0	0	0	0	480	508	0	3	3	2			
5	0	0	0	0	472	504	0	3	3	2			
6	0	0	0	0	462	508	0	3	3	2			
7	0	0	0	0	463	508	0	3	3	2			
8	0	0	0	0	472	508	0	6	3	2			
9	0	0	0	0	480	505	0	6	3	2			
10	0	0	0	0	478	508	0	3	3	2			
11	0	0	0	0	476	511	0	7	3	2			
12	0	0	0	0	478	511	0	6	3	2			
13	0	0	0	0	476	510	0	6	3	2			
14	0	0	0	0	472	511	0	3	3	2			
15	0	0	0	0	472	511	0	3	3	2			
0	0	0	0	0	476	512	0	3	3	2			
1	0	0	0	0	480	511	0	3	3	2			
2	0	0	0	0	480	508	0	3	3	2			
3	0	0	0	0	480	510	0	3	3	2			
4	0	0	0	0	480	508	0	1	3	2			
5	0	0	0	0	478	510	0	6	3	2			
6	0	0	0	0	480	510	0	6	3	2			
7	0	0	0	0	480	508	0	6	3	2			
8	0	0	0	0	480	508	0	3	3	2			
9	0	0	0	0	481	504	0	6	3	2			
10	0	0	0	0	481	505	0	6	3	2			
11	0	0	0	0	480	508	0	3	3	2			
12	0	0	0	0	476	508	0	6	4	2			
13	0	0	0	0	472	508	0	3	3	2			
14	0	0	0	0	478	508	0	3	3	2			
15	0	0	0	0	480	508	0	6	3	2			
0	0	0	0	0	478	510	0	3	3	2			
1	0	0	0	0	480	511	0	3	3	2			
2	0	0	0	0	480	512	0	3	3	2			
3	0	0	0	0	472	512	0	3	3	2			
4	0	0	0	0	467	512	0	3	3	2			
5	0	0	0	0	472	512	0	3	3	2			
6	0	0	0	0	476	512	0	6	3	2			
7	0	0	0	0	476	510	0	6	3	2			
8	0	0	0	0	467	510	0	6	3	2			
9	0	0	0	0	472	508	0	6	3	2			
10	0	0	0	0	480	508	0	6	3	2			
11	0	0	0	0	492	508	0	3	3	2			
12	0	0	0	0	496	508	0	6	3	2			
13	0	0	0	0	487	508	0	6	3	2			
14	0	0	0	0	486	510	0	6	3	2			
15	0	0	0	0	481	508	0	7	3	2			
0	0	0	0	0	478	510	0	7	3	2			
1	0	0	0	0	463	510	0	7	3	2			
2	0	0	0	0	455	508	0	7	3	2			
3	0	0	0	0	455	508	0	7	3	2			
4	0	0	0	0	463	508	0	7	3	2			
5	0	0	0	0	467	511	0	7	3	2			
6	0	0	0	0	467	510	0	7	3	2			
7	0	0	0	0	473	511	0	7	3	2			
8	0	0	0	0	480	510	0	7	3	2			
9	0	0	0	0	481	508	0	7	3	2			
10	0	0	0	0	480	510	0	7	4	2			
11	0	0	0	0	473	511	0	6	3	2			
12	0	0	0	0	473	511	0	7	3	2			
13	0	0	0	0	476	511	0	7	3	2			
14	0	0	0	0	476	511	0	6	3	2			
15	0	0	0	0	480	511	0	7	3	2			
0	0	0	0	0	480	508	0	6	3	2			
1	0	0	0	0	480	510	0	6	4	2			
2	0	0	0	0	476	508	0	7	3	2			
3	0	0	0	0	472	508	0	7	3	2			
4	0	0	0	0	472	508	0	7	3	2			
5	0	0	0	0	476	508	0	7	3	2			
6	0	0	0	0	476	504	0	7	3	2			
7	0	0	0	0	472	508	0	7	3	2			
8	0	0	0	0	472	512	0	3	3	2			
9	0	0	0	0	476	510	0	7	3	2			
10	0	0	0	0	481	511	0	7	3	2			
11	0	0	0	0	487	511	0	7	3	2			
12	0	0	0	0	487	511	0	7	3	2			
13	0	0	0	0	487	510	0	7	3	2			
14	0	0	0	0	480	511	0	7	3	2			
15	0	0	0	0	476	508	0	7	3	2			
0	0	0	0	0	472	511	0	7	3	2			
1	0	0	0	0	472	508	0	7	3	2			
2	0	0	0	0	472	510	0	3	3	2			
3	0	0	0	0	472	510	0	6	3	2			
4	0	0	0	0	472	508	0	6	3	2			
5	0	0	0	0	476	510	0	6	3	2			
6	0	0	0	0	476	510	0	7	4	2			
7	0	0	0	0	480	510	0	6	4	2			
8	0	0	0	0	483	508	0	3	3	2			
9	0	0	0	0	480	510	0	6	3	2			
10	0	0	0	0	472	508	0	3	3	2			
11	0	0	0	0	472	511	0	3	3	2			
12	0	0	0	0	467	510	0	3	3	2			
13	0	0	0	0	465	508	0	3	3	2			
14	0	0	0	0	465	510	0	3	3	2			
15	0	0	0	0	465	510	0	3	3	2			
0	0	0	0	0	463	508	0	3	3	2			
1	0	0	0	0	463	508	0	6	3	2			
2	0	0	0	0	465	510	0	3	3	2			
3	0	0	0	0	476	512	0	3	3	2			
4	0	0	0	0	483	510	0	3	3	2			
5	0	0	0	0	486	510	0	6	3	2			
6	0	0	0	0	483	511	0	6	3	2			
7	0	0	0	0	483	510	0	6	3	2			
8	0	0	0	0	483	511	0	6	3	2			
9	0	0	0	0	476	511	0	6	3	2			
10	0	0	0	0	463	510	0	6	3	2			
11	0	0	0	0	455	508	0	6	3	2			
12	0	0	0	0	476	508	0	6	3	2			
13	0	0	0	0	487	510	0	6	3	2			
14	0	0	0	0	487	511	0	6	3	2			
15	0	0	0	0	483	511	0	3	3	2			
0	0	0	0	0	480	511	0	3	3	2			
1	0	0	0	0	480	511	0	6	3	2			
2	0	0	0	0	476	511	0	6	3	2			
3	0	0	0	0	476	511	0	6	3	2			
4	0	0	0	0	480	511	0	6	3	2			
5	0	0	0	0	480	512	0	3	3	2			
6	0	0	0	0	480	511	0	3	3	2			
7	0	0	0	0	481	508	0	7	3	2			
8	0	0	0	0	486	508	0	7	3	2			
9	0	0	0	0	483	508	0	12	3	2			
10	0	0	0	0	480	510	0	12	3	2			
11	0	0	0	0	472	508	0	15	3	2			
12	0	0	0	0	472	508	0	15	3	2			
13	0	0	0	0	472	508	0	16	3	2			
14	0	0	0	0	472	508	0	17	3	2			
15	0	0	0	0	478	508	0	17	3	2			
0	0	0	0	0	478	508	0	19	3	2			
1	0	0	0	0	478	508	0	19	3	2			
2	0	0	0	0	476	508	0	19	3	2			
3	0	0	0	0	472	508	0	17	3	2			
4	0	0	0	0	463	510	0	15	3	2			
5	0	0	0	0	467	508	0	15	3	2			
6	0	0	0	0	472	508	0	24	3	2			
7	0	0	0	0	465	511	0	24	3	2			
8	0	0	0	0	465	512	0	31	3	2			
9	0	0	0	0	472	512	0	28	3	2			
10	0	0	0	0	472	510	0	31	3	2			
11	0	0	0	0	476	510	0	31	4	2			
12	0	0	0	0	483	508	0	33	3	2			
13	0	0	0	0	492	510	0	33	3	2			
14	0	0	0	0	483	508	0	35	4	2			
15	0	0	0	0	473	510	0	35	3	2			
0	0	0	0	0	472	508	0	38	3	2			
1	0	0	0	0	473	508	0	39	3	2			
2	0	0	0	0	472	508	0	39	3	2			
3	0	0	0	0	472	508	0	39	3	2			
4	0	0	0	0	473	508	0	39	3	2			
5	0	0	0	0	480	508	0	39	3	2			
6	0	0	0	0	481	508	0	44	3	2			
7	0	0	0	0	480	510	0	44	3	2			
8	0	0	0	0	480	508	0	44	3	2			
9	0	0	0	0	481	508	0	46	4	2			
10	0	0	0	0	481	511	0	46	3	2			
11	0	0	0	0	480	511	0	44	3	2			
12	0	0	0	0	480	511	0	46	3	2			
13	0	0	0	0	478	510	0	47	3	2			
14	0	0	0	0	480	512	0	47	3	2			
15	0	0	0	0	481	511	0	48	3	2			
0	0	0	0	0	481	511	0	48	3	2			
1	0	0	0	0	480	511	0	48	3	2			
2	0	0	0	0	480	510	0	48	3	2			
3	0	0	0	0	470	508	0	48	3	2			
4	0	0	0	0	463	508	0	49	3	2			
5	0	0	0	0	467	510	0	48	3	2			
6	0	0	0	0	472	508	0	49	3	2			
7	0	0	0	0	472	508	0	51	3	2			
8	0	0	0	0	472	508	0	51	3	2			
9	0	0	0	0	472	510	0	51	3	2			
10	0	0	0	0	476	511	0	49	3	2			
11	0	0	0	0	480	511	0	51	3	2			
12	0	0	0	0	480	510	0	51	3	2			
13	0	0	0	0	480	508	0	51	3	2			
14	0	0	0	0	480	508	0	51	3	2			
15	0	0	0	0	480	510	0	51	3	2			
0	0	0	0	0	478	511	0	51	3	2			
1	0	0	0	0	480	512	0	51	3	2			
2	0	0	0	0	480	512	0	51	3	2			
3	0	0	0	0	480	511	0	56	3	2			
4	0	0	0	0	476	511	0	56	3	2			
5	0	0	0	0	472	510	0	56	3	2			
6	0	0	0	0	472	510	0	56	3	2			
7	0	0	0	0	480	508	0	56	3	2			
8	0	0	0	0	480	508	0	60	3	2			
9	0	0	0	0	483	508	0	60	3	2			
10	0	0	0	0	480	510	0	56	3	2			
11	0	0	0	0	472	508	0	56	4	2			
12	0	0	0	0	470	510	0	57	3	2			
13	0	0	0	0	463	508	0	57	3	2			
14	0	0	0	0	455	508	0	57	3	2			
15	0	0	0	0	460	508	0	60	3	2			
0	0	0	0	0	463	508	0	57	3	2			
1	0	0	0	0	463	510	0	60	3	2			
2	0	0	0	0	463	511	0	60	4	2			
3	0	0	0	0	463	512	0	56	3	2			
4	0	0	0	0	472	513	0	57	3	2			
5	0	0	0	0	486	510	0	60	3	2			
6	0	0	0	0	487	510	0	60	3	2			
7	0	0	0	0	494	512	0	60	3	2			
8	0	0	0	0	492	511	0	60	3	2			
9	0	0	0	0	483	511	0	60	3	2			
10	0	0	0	0	483	508	0	63	4	2			
11	0	0	0	0	483	508	0	62	3	2			
12	0	0	0	0	481	505	0	62	3	2			
13	0	0	0	0	480	508	0	62	3	2			
14	0	0	0	0	480	508	0	63	3	2			
15	0	0	0	0	480	505	0	63	3	2			
0	0	0	0	0	480	510	0	63	3	2			
1	0	0	0	0	480	508	0	63	3	2			
2	0	0	0	0	480	508	0	63	3	2			
3	0	0	0	0	476	508	0	63	4	2			
4	0	0	0	0	472	505	0	63	3	2			
5	0	0	0	0	467	510	0	63	3	2			
6	0	0	0	0	467	511	0	63	3	2			
7	0	0	0	0	472	512	0	63	3	2			
8	0	0	0	0	476	510	0	63	3	2			
9	0	0	0	0	472	511	0	63	3	2			
10	0	0	0	0	476	510	0	63	3	2			
11	0	0	0	0	480	511	0	63	3	2			
12	0	0	0	0	487	511	0	63	3	2			
13	0	0	0	0	487	511	0	63	3	2			
14	0	0	0	0	487	510	0	63	3	2			
15	0	0	0	0	487	508	0	63	3	2			
0	0	0	0	0	481	505	0	63	3	2			
1	0	0	0	0	478	508	0	63	4	2			
2	0	0	0	0	467	511	0	63	3	2			
3	0	0	0	0	455	510	0	63	3	2			
4	0	0	0	0	455	508	0	63	3	2			
5	0	0	0	0	451	508	0	63	3	2			
6	0	0	0	0	455	508	0	63	3	2			
7	0	0	0	0	460	508	0	62	3	2			
8	0	0	0	0	462	508	0	63	3	2			
9	0	0	0	0	463	510	0	63	3	2			
10	0	0	0	0	463	512	0	63	3	2			
11	0	0	0	0	472	512	0	63	4	2			
12	0	0	0	0	480	512	0	63	3	2			
13	0	0	0	0	481	511	0	63	3	2			
14	0	0	0	0	480	511	0	63	3	2			
15	0	0	0	0	478	512	0	63	3	2			
0	0	0	0	0	472	511	0	62	3	2			
1	0	0	0	0	472	508	0	62	3	2			
2	0	0	0	0	472	508	0	62	3	2			
3	0	0	0	0	472	510	0	62	3	2			
4	0	0	0	0	478	508	0	63	4	2			
5	0	0	0	0	480	505	0	62	3	2			
6	0	0	0	0	478	504	0	62	3	2			
7	0	0	0	0	476	505	0	62	3	2			
8	0	0	0	0	480	508	0	62	3	2			
9	0	0	0	0	483	508	0	62	3	2			
10	0	0	0	0	483	508	0	60	3	2			
11	0	0	0	0	480	510	0	60	4	2			
12	0	0	0	0	480	508	0	60	3	2			
13	0	0	0	0	480	511	0	60	3	2			
14	0	0	0	0	480	510	0	60	3	2			
15	0	0	0	0	480	511	0	60	3	2			
0	0	0	0	0	480	511	0	63	3	2			
1	0	0	0	0	476	508	0	63	3	2			
2	0	0	0	0	472	511	0	63	3	2			
3	0	0	0	0	480	512	0	63	3	2			
4	0	0	0	0	480	511	0	56	3	2			
5	0	0	0	0	480	512	0	62	3	2			
6	0	0	0	0	480	511	0	63	3	2			
7	0	0	0	0	480	512	0	63	3	2			
8	0	0	0	0	480	510	0	62	3	2			
9	0	0	0	0	476	508	0	63	3	2			
10	0	0	0	0	472	508	0	63	3	2			
11	0	0	0	0	472	508	0	63	3	2			
12	0	0	0	0	472	510	0	63	3	2			
13	0	0	0	0	480	508	0	63	3	2			
14	0	0	0	0	480	511	0	63	3	2			
15	0	0	0	0	480	511	0	63	3	2			
0	0	0	0	0	476	510	0	63	3	2			
1	0	0	0	0	476	511	0	63	3	2			
2	0	0	0	0	476	513	0	63	3	2			
3	0	0	0	0	480	511	0	63	3	2			
4	0	0	0	0	478	511	0	63	3	2			
5	0	0	0	0	476	511	0	63	3	2			
6	0	0	0	0	476	511	0	63	3	2			
7	0	0	0	0	480	511	0	62	3	2			
8	0	0	0	0	480	510	0	60	3	2			
9	0	0	0	0	472	511	0	60	3	2			
10	0	0	0	0	463	510	0	57	3	2			
11	0	0	0	0	455	510	0	57	3	2			
12	0	0	0	0	455	510	0	60	3	2			
13	0	0	0	0	462	508	0	57	3	2			
14	0	0	0	0	472	504	0	57	3	2			
15	0	0	0	0	480	508	0	57	4	2			
0	0	0	0	0	486	510	0	56	3	2			
1	0	0	0	0	487	508	0	57	3	2			
2	0	0	0	0	483	508	0	56	3	2			
3	0	0	0	0	476	508	0	56	3	2			
4	0	0	0	0	472	508	0	56	3	2			
5	0	0	0	0	476	508	0	56	3	2			
6	0	0	0	0	472	508	0	56	3	2			
7	0	0	0	0	472	511	0	56	3	2			
8	0	0	0	0	480	511	0	56	4	2			
9	0	0	0	0	480	510	0	51	3	2			
10	0	0	0	0	476	510	0	54	3	2			
11	0	0	0	0	472	511	0	56	3	2			
12	0	0	0	0	472	508	0	56	3	2			
13	0	0	0	0	473	511	0	56	3	2			
14	0	0	0	0	476	510	0	56	3	2			
15	0	0	0	0	476	510	0	56	3	2			
0	0	0	0	0	476	508	0	51	3	2			
1	0	0	0	0	472	508	0	56	3	2			
2	0	0	0	0	472	508	0	56	3	2			
3	0	0	0	0	480	508	0	56	3	2			
4	0	0	0	0	476	508	0	56	3	2			
5	0	0	0	0	472	508	0	56	3	2			
6	0	0	0	0	472	508	0	56	3	2			
7	0	0	0	0	472	510	0	56	3	2			
8	0	0	0	0	478	510	0	56	3	2			
9	0	0	0	0	483	511	0	56	3	2			
10	0	0	0	0	483	512	0	56	3	2			
11	0	0	0	0	480	511	0	56	3	2			
12	0	0	0	0	476	511	0	56	3	2			
13	0	0	0	0	472	512	0	56	3	2			
14	0	0	0	0	467	511	0	54	3	2			
15	0	0	0	0	472	510	0	51	3	2			
0	0	0	0	0	476	511	0	51	3	2			
1	0	0	0	0	480	511	0	51	3	2			
2	0	0	0	0	486	510	0	51	3	2			
3	0	0	0	0	487	510	0	51	3	2			
4	0	0	0	0	487	508	0	51	3	2			
5	0	0	0	0	486	508	0	49	3	2			
6	0	0	0	0	486	508	0	49	3	2			
7	0	0	0	0	483	508	0	49	3	2			
8	0	0	0	0	481	504	0	49	3	2			
9	0	0	0	0	480	505	0	48	3	2			
10	0	0	0	0	480	510	0	48	3	2			
11	0	0	0	0	476	510	0	51	4	2			
12	0	0	0	0	476	512	0	48	3	2			
13	0	0	0	0	467	511	0	49	3	2			
14	0	0	0	0	460	512	0	48	3	2			
15	0	0	0	0	460	512	0	48	3	2			
0	0	0	0	0	470	511	0	48	3	2			
1	0	0	0	0	476	512	0	48	3	2			
2	0	0	0	0	476	511	0	48	3	2			
3	0	0	0	0	467	508	0	48	3	2			
4	0	0	0	0	465	511	0	48	3	2			
5	0	0	0	0	472	511	0	48	3	2			
6	0	0	0	0	478	508	0	48	3	2			
7	0	0	0	0	480	508	0	48	3	2			
8	0	0	0	0	480	508	0	49	3	2			
9	0	0	0	0	480	505	0	48	4	2			
10	0	0	0	0	476	510	0	48	3	2			
11	0	0	0	0	478	510	0	48	3	2			
12	0	0	0	0	476	510	0	48	3	2			
13	0	0	0	0	467	511	0	48	3	2			
14	0	0	0	0	467	510	0	49	3	2			
15	0	0	0	0	467	511	0	48	3	2			
0	0	0	0	0	472	508	0	48	3	2			
1	0	0	0	0	476	512	0	49	4	2			
2	0	0	0	0	476	510	0	49	3	2			
3	0	0	0	0	472	508	0	48	3	2			
4	0	0	0	0	472	508	0	51	3	2			
5	0	0	0	0	476	508	0	51	3	2			
6	0	0	0	0	480	511	0	48	3	2			
7	0	0	0	0	480	511	0	48	3	2			
8	0	0	0	0	480	510	0	48	3	2			
9	0	0	0	0	478	510	0	48	3	2			
10	0	0	0	0	480	508	0	49	3	2			
11	0	0	0	0	480	508	0	48	3	2			
12	0	0	0	0	480	508	0	49	3	2			
13	0	0	0	0	480	508	0	49	3	2			
14	0	0	0	0	478	508	0	44	3	2			
15	0	0	0	0	476	511	0	44	3	2			
0	0	0	0	0	476	511	0	39	3	2			
1	0	0	0	0	476	508	0	39	3	2			
2	0	0	0	0	478	510	0	39	3	2			
3	0	0	0	0	476	510	0	39	3	2			
4	0	0	0	0	476	511	0	39	3	2			
5	0	0	0	0	480	510	0	39	3	2			
6	0	0	0	0	476	512	0	39	3	2			
7	0	0	0	0	476	511	0	39	3	2			
8	0	0	0	0	481	512	0	39	3	2			
9	0	0	0	0	487	512	0	39	3	2			
10	0	0	0	0	483	512	0	39	3	2			
11	0	0	0	0	472	512	0	39	3	2			
12	0	0	0	0	462	511	0	39	3	2			
13	0	0	0	0	455	510	0	39	3	2			
14	0	0	0	0	467	510	0	39	3	2			
15	0	0	0	0	472	504	0	39	3	2			
0	0	0	0	0	472	510	0	39	3	2			
1	0	0	0	0	463	508	0	39	3	2			
2	0	0	0	0	460	508	0	39	3	2			
3	0	0	0	0	462	508	0	39	4	2			
4	0	0	0	0	467	505	0	39	3	2			
5	0	0	0	0	472	505	0	39	3	2			
6	0	0	0	0	472	510	0	39	3	2			
7	0	0	0	0	472	511	0	39	3	2			
8	0	0	0	0	472	505	0	39	3	2			
9	0	0	0	0	472	511	0	39	3	2			
10	0	0	0	0	476	511	0	44	4	2			
11	0	0	0	0	480	512	0	39	3	2			
12	0	0	0	0	472	512	0	39	3	2			
13	0	0	0	0	472	511	0	39	3	2			
14	0	0	0	0	473	508	0	39	3	2			
15	0	0	0	0	478	510	0	39	3	2			
0	0	0	0	0	480	511	0	39	3	2			
1	0	0	0	0	481	511	0	39	3	2			
2	0	0	0	0	483	508	0	39	3	2			
3	0	0	0	0	487	508	0	39	3	2			
4	0	0	0	0	499	510	0	39	3	2			
5	0	0	0	0	497	508	0	38	3	2			
6	0	0	0	0	492	508	0	39	4	2			
7	0	0	0	0	483	508	0	39	3	2			
8	0	0	0	0	478	508	0	39	3	2			
9	0	0	0	0	472	508	0	39	3	2			
10	0	0	0	0	463	508	0	39	3	2			
11	0	0	0	0	472	508	0	39	3	2			
12	0	0	0	0	473	508	0	39	3	2			
13	0	0	0	0	472	512	0	39	3	2			
14	0	0	0	0	472	511	0	39	3	2			
15	0	0	0	0	472	511	0	39	3	2			
0	0	0	0	0	476	512	0	39	3	2			
1	0	0	0	0	476	510	0	39	3	2			
2	0	0	0	0	476	511	0	39	3	2			
3	0	0	0	0	478	511	0	39	3	2			
4	0	0	0	0	480	508	0	39	4	2			
5	0	0	0	0	483	508	0	39	3	2			
6	0	0	0	0	481	508	0	39	3	2			
7	0	0	0	0	480	508	0	39	3	2			
8	0	0	0	0	480	508	0	38	3	2			
9	0	0	0	0	480	505	0	39	3	2			
10	0	0	0	0	480	508	0	35	3	2			
11	0	0	0	0	481	510	0	38	3	2			
12	0	0	0	0	480	508	0	35	3	2			
13	0	0	0	0	478	508	0	35	3	2			
14	0	0	0	0	480	508	0	35	3	2			
15	0	0	0	0	480	512	0	35	3	2			
0	0	0	0	0	480	510	0	35	3	2			
1	0	0	0	0	478	510	0	35	3	2			
2	0	0	0	0	472	510	0	35	3	2			
3	0	0	0	0	463	510	0	33	3	2			
4	0	0	0	0	460	508	0	35	3	2			
5	0	0	0	0	460	508	0	35	3	2			
6	0	0	0	0	463	508	0	38	3	2			
7	0	0	0	0	467	511	0	35	3	2			
8	0	0	0	0	476	510	0	38	3	2			
9	0	0	0	0	480	510	0	39	3	2			
10	0	0	0	0	476	511	0	39	3	2			
11	0	0	0	0	472	508	0	39	3	2			
12	0	0	0	0	467	508	0	39	3	2			
13	0	0	0	0	467	508	0	39	3	2			
14	0	0	0	0	465	508	0	39	3	2			
15	0	0	0	0	463	508	0	39	3	2			
0	0	0	0	0	467	508	0	39	3	2			
1	0	0	0	0	472	508	0	38	3	2			
2	0	0	0	0	478	510	0	38	3	2			
3	0	0	0	0	480	508	0	38	3	2			
4	0	0	0	0	483	508	0	38	3	2			
5	0	0	0	0	487	510	0	38	3	2			
6	0	0	0	0	483	512	0	39	3	2			
7	0	0	0	0	480	512	0	38	3	2			
8	0	0	0	0	476	511	0	39	3	2			
9	0	0	0	0	480	511	0	39	4	2			
10	0	0	0	0	480	512	0	38	3	2			
11	0	0	0	0	480	512	0	35	3	2			
12	0	0	0	0	476	512	0	33	3	2			
13	0	0	0	0	476	511	0	33	3	2			
14	0	0	0	0	480	508	0	35	3	2			
15	0	0	0	0	480	508	0	35	3	2			
0	0	0	0	0	478	508	0	35	3	2			
1	0	0	0	0	472	508	0	33	3	2			
2	0	0	0	0	472	511	0	33	3	2			
3	0	0	0	0	472	511	0	35	4	2			
4	0	0	0	0	478	510	0	35	3	2			
5	0	0	0	0	478	510	0	33	3	2			
6	0	0	0	0	472	510	0	38	4	2			
7	0	0	0	0	472	510	0	35	3	2			
8	0	0	0	0	472	511	0	35	3	2			
9	0	0	0	0	465	511	0	35	3	2			
10	0	0	0	0	463	510	0	35	3	2			
11	0	0	0	0	465	511	0	35	3	2			
12	0	0	0	0	476	512	0	35	3	2			
13	0	0	0	0	480	511	0	31	3	2			
14	0	0	0	0	476	510	0	33	3	2			
15	0	0	0	0	476	508	0	31	3	2			
0	0	0	0	0	480	510	0	31	3	2			
1	0	0	0	0	481	511	0	31	3	2			
2	0	0	0	0	483	510	0	31	3	2			
3	0	0	0	0	481	510	0	31	3	2			
4	0	0	0	0	480	510	0	31	3	2			
5	0	0	0	0	480	505	0	31	3	2			
6	0	0	0	0	476	510	0	31	3	2			
7	0	0	0	0	463	510	0	31	4	2			
8	0	0	0	0	451	508	0	31	3	2			
9	0	0	0	0	460	508	0	31	3	2			
10	0	0	0	0	472	510	0	31	3	2			
11	0	0	0	0	473	510	0	31	3	2			
12	0	0	0	0	472	510	0	31	3	2			
13	0	0	0	0	473	510	0	33	3	2			
14	0	0	0	0	476	511	0	33	3	2			
15	0	0	0	0	478	511	0	31	3	2			
0	0	0	0	0	483	511	0	31	3	2			
1	0	0	0	0	487	511	0	31	3	2			
2	0	0	0	0	483	511	0	31	3	2			
3	0	0	0	0	480	510	0	31	3	2			
4	0	0	0	0	470	511	0	33	3	2			
5	0	0	0	0	463	508	0	31	3	2			
6	0	0	0	0	463	510	0	31	3	2			
7	0	0	0	0	467	510	0	31	4	2			
8	0	0	0	0	472	508	0	31	3	2			
9	0	0	0	0	476	508	0	31	3	2			
10	0	0	0	0	480	505	0	31	4	2			
11	0	0	0	0	492	508	0	31	3	2			
12	0	0	0	0	504	508	0	31	3	2			
13	0	0	0	0	504	504	0	31	3	2			
14	0	0	0	0	487	508	0	33	3	2			
15	0	0	0	0	472	505	0	33	3	2			
0	0	0	0	0	462	508	0	35	3	2			
1	0	0	0	0	460	508	0	33	3	2			
2	0	0	0	0	472	511	0	33	3	2			
3	0	0	0	0	476	513	0	33	3	2			
4	0	0	0	0	480	512	0	35	3	2			
5	0	0	0	0	480	512	0	33	3	2			
6	0	0	0	0	480	510	0	33	3	2			
7	0	0	0	0	480	511	0	33	3	2			
8	0	0	0	0	476	510	0	35	3	2			
9	0	0	0	0	472	510	0	35	3	2			
10	0	0	0	0	463	510	0	35	3	2			
11	0	0	0	0	465	508	0	35	4	2			
12	0	0	0	0	467	510	0	35	4	2			
13	0	0	0	0	467	508	0	35	3	2			
14	0	0	0	0	472	510	0	35	3	2			
15	0	0	0	0	472	510	0	35	3	2			
0	0	0	0	0	472	510	0	35	3	2			
1	0	0	0	0	472	511	0	33	3	2			
2	0	0	0	0	472	510	0	33	3	2			
3	0	0	0	0	472	510	0	35	3	2			
4	0	0	0	0	476	511	0	33	3	2			
5	0	0	0	0	480	510	0	33	3	2			
6	0	0	0	0	481	510	0	33	3	2			
7	0	0	0	0	483	510	0	33	3	2			
8	0	0	0	0	487	512	0	35	3	2			
9	0	0	0	0	489	512	0	35	3	2			
10	0	0	0	0	486	511	0	35	3	2			
11	0	0	0	0	476	508	0	35	3	2			
12	0	0	0	0	467	510	0	35	3	2			
13	0	0	0	0	463	505	0	35	3	2			
14	0	0	0	0	472	510	0	35	3	2			
15	0	0	0	0	478	511	0	35	3	2			
0	0	0	0	0	480	510	0	33	3	2			
1	0	0	0	0	480	505	0	35	3	2			
2	0	0	0	0	480	508	0	33	3	2			
3	0	0	0	0	478	508	0	35	3	2			
4	0	0	0	0	472	508	0	35	3	2			
5	0	0	0	0	472	504	0	33	3	2			
6	0	0	0	0	472	511	0	33	3	2			
7	0	0	0	0	472	511	0	31	3	2			
8	0	0	0	0	472	511	0	31	3	2			
9	0	0	0	0	470	511	0	33	3	2			
10	0	0	0	0	470	511	0	33	3	2			
11	0	0	0	0	472	511	0	31	3	2			
12	0	0	0	0	465	512	0	31	3	2			
13	0	0	0	0	462	511	0	31	3	2			
14	0	0	0	0	462	508	0	31	3	2			
15	0	0	0	0	467	508	0	31	3	2			
0	0	0	0	0	476	508	0	31	3	2			
1	0	0	0	0	480	510	0	31	3	2			
2	0	0	0	0	480	510	0	31	3	2			
3	0	0	0	0	480	510	0	31	3	2			
4	0	0	0	0	478	508	0	28	3	2			
5	0	0	0	0	478	508	0	28	3	2			
6	0	0	0	0	476	510	0	28	3	2			
7	0	0	0	0	480	508	0	28	3	2			
8	0	0	0	0	480	510	0	28	3	2			
9	0	0	0	0	481	508	0	28	3	2			
10	0	0	0	0	483	510	0	28	3	2			
11	0	0	0	0	487	510	0	28	3	2			
12	0	0	0	0	481	511	0	28	3	2			
13	0	0	0	0	480	511	0	25	3	2			
14	0	0	0	0	478	511	0	28	3	2			
15	0	0	0	0	476	512	0	28	3	2			
0	0	0	0	0	476	511	0	28	3	2			
1	0	0	0	0	476	512	0	28	3	2			
2	0	0	0	0	473	510	0	28	3	2			
3	0	0	0	0	467	511	0	28	3	2			
4	0	0	0	0	467	510	0	28	3	2			
5	0	0	0	0	476	510	0	28	3	2			
6	0	0	0	0	476	508	0	28	3	2			
7	0	0	0	0	480	508	0	28	3	2			
8	0	0	0	0	480	508	0	28	3	2			
9	0	0	0	0	480	508	0	28	3	2			
10	0	0	0	0	480	508	0	28	3	2			
11	0	0	0	0	478	505	0	28	4	2			
12	0	0	0	0	473	508	0	28	3	2			
13	0	0	0	0	472	508	0	30	3	2			
14	0	0	0	0	472	508	0	30	3	2			
15	0	0	0	0	472	508	0	30	3	2			
0	0	0	0	0	472	511	0	28	3	2			
1	0	0	0	0	472	511	0	28	3	2			
2	0	0	0	0	472	512	0	28	3	2			
3	0	0	0	0	476	510	0	28	3	2			
4	0	0	0	0	476	512	0	28	3	2			
5	0	0	0	0	476	512	0	28	3	2			
6	0	0	0	0	476	511	0	28	3	2			
7	0	0	0	0	476	512	0	28	4	2			
8	0	0	0	0	476	511	0	30	3	2			
9	0	0	0	0	476	508	0	30	3	2			
10	0	0	0	0	473	508	0	30	3	2			
11	0	0	0	0	476	510	0	31	3	2			
12	0	0	0	0	476	508	0	31	3	2			
13	0	0	0	0	478	508	0	31	3	2			
14	0	0	0	0	476	508	0	31	4	2			
15	0	0	0	0	476	504	0	31	3	2			
0	0	0	0	0	480	508	0	31	3	2			
1	0	0	0	0	480	508	0	31	3	2			
2	0	0	0	0	480	508	0	31	3	2			
3	0	0	0	0	483	508	0	31	3	2			
4	0	0	0	0	480	508	0	31	3	2			
5	0	0	0	0	486	511	0	33	3	2			
6	0	0	0	0	487	512	0	31	3	2			
7	0	0	0	0	473	512	0	31	3	2			
8	0	0	0	0	463	511	0	31	3	2			
9	0	0	0	0	462	511	0	33	3	2			
10	0	0	0	0	472	511	0	31	3	2			
11	0	0	0	0	472	511	0	33	3	2			
12	0	0	0	0	476	508	0	33	3	2			
13	0	0	0	0	480	510	0	31	3	2			
14	0	0	0	0	480	508	0	31	3	2			
15	0	0	0	0	483	505	0	31	3	2			
0	0	0	0	0	483	508	0	35	3	2			
1	0	0	0	0	480	508	0	35	3	2			
2	0	0	0	0	480	505	0	33	3	2			
3	0	0	0	0	480	508	0	31	3	2			
4	0	0	0	0	480	508	0	31	3	2			
5	0	0	0	0	480	510	0	33	3	2			
6	0	0	0	0	480	510	0	35	3	2			
7	0	0	0	0	473	511	0	33	3	2			
8	0	0	0	0	472	510	0	31	3	2			
9	0	0	0	0	467	508	0	31	3	2			
10	0	0	0	0	465	508	0	31	3	2			
11	0	0	0	0	463	511	0	28	3	2			
12	0	0	0	0	460	511	0	35	3	2			
13	0	0	0	0	467	511	0	35	3	2			
14	0	0	0	0	472	511	0	39	3	2			
15	0	0	0	0	476	512	0	31	3	2			
0	0	0	0	0	476	511	0	31	4	2			
1	0	0	0	0	480	511	0	31	3	2			
2	0	0	0	0	483	511	0	28	3	2			
3	0	0	0	0	486	508	0	38	3	2			
4	0	0	0	0	487	510	0	35	3	2			
5	0	0	0	0	487	508	0	35	3	2			
6	0	0	0	0	481	511	0	28	3	2			
7	0	0	0	0	472	511	0	0	3	2			
8	0	0	0	0	455	512	0	0	3	2			
9	0	0	0	0	455	510	0	0	3	2			
10	0	0	0	0	463	510	0	0	3	2			
11	0	0	0	0	467	505	0	0	3	2			
12	0	0	0	0	467	508	0	0	3	2			
13	0	0	0	0	467	508	0	0	3	2			
14	0	0	0	0	467	508	0	0	3	2			
15	0	0	0	0	467	510	0	0	3	2			
0	0	0	0	0	478	511	0	0	3	2			
1	0	0	0	0	481	512	0	0	3	2			
2	0	0	0	0	481	511	0	0	3	2			
3	0	0	0	0	481	511	0	0	3	2			
4	0	0	0	0	480	510	0	0	3	2			
5	0	0	0	0	480	508	0	0	3	2			
6	0	0	0	0	472	510	0	0	3	2			
7	0	0	0	0	465	508	0	0	3	2			
8	0	0	0	0	455	510	0	0	3	2			
9	0	0	0	0	455	508	0	0	3	2			
10	0	0	0	0	463	508	0	0	3	2			
11	0	0	0	0	476	508	0	0	3	2			
12	0	0	0	0	487	508	0	0	4	2			
13	0	0	0	0	489	510	0	0	3	2			
14	0	0	0	0	483	508	0	0	3	2			
15	0	0	0	0	483	511	0	0	3	2			
0	0	0	0	0	480	512	0	0	3	2			
1	0	0	0	0	480	508	0	0	3	2			
2	0	0	0	0	480	508	0	0	3	2			
3	0	0	0	0	480	508	0	0	3	2			
4	0	0	0	0	483	510	0	0	3	2			
5	0	0	0	0	487	511	0	0	3	2			
6	0	0	0	0	487	511	0	0	3	2			
7	0	0	0	0	481	508	0	0	3	2			
8	0	0	0	0	476	510	0	0	4	2			
9	0	0	0	0	476	510	0	0	3	2			
10	0	0	0	0	476	511	0	0	3	2			
11	0	0	0	0	478	508	0	0	3	2			
12	0	0	0	0	480	508	0	0	3	2			
13	0	0	0	0	481	508	0	0	3	2			
14	0	0	0	0	481	508	0	0	3	2			
15	0	0	0	0	481	508	0	0	4	2			
0	0	0	0	0	481	508	0	0	3	2			
1	0	0	0	0	481	510	0	0	3	2			
2	0	0	0	0	480	510	0	0	3	2			
