# OpenSignals Text File Format. Version 1
# {"98:D3:31:B2:12:BA": {"position": 0, "device": "bitalino", "device name": "98:D3:31:B2:12:BA", "device connection": "BTH98:D3:31:B2:12:BA", "sampling rate": 1000, "resolution": [4, 1, 1, 1, 1, 10, 10, 10, 10], "firmware version": 771, "comments": "", "keywords": "", "mode": 0, "sync interval": 2, "date": "2022-7-28", "time": "13:8:48.464", "channels": [1, 2, 3, 4], "sensor": ["EMGBIT", "EMGBIT", "RAW", "RAW"], "label": ["A1", "A2", "A3", "A4"], "column": ["nSeq", "I1", "I2", "I3", "I4", "A1", "A2", "A3", "A4"], "special": [{}, {}, {}, {}], "digital IO": [0, 0, 0, 0, 1, 1, 1, 1]}}
# EndOfHeader
0	0	0	0	0	487	511	0	0	
1	0	0	0	0	496	512	0	0	
2	0	0	0	0	492	511	0	0	
3	0	0	0	0	494	508	0	0	
4	0	0	0	0	496	508	0	0	
5	0	0	0	0	483	505	0	0	
6	0	0	0	0	480	508	0	0	
7	0	0	0	0	480	508	0	0	
8	0	0	0	0	472	508	0	0	
9	0	0	0	0	463	508	0	0	
10	0	0	0	0	467	508	0	0	
11	0	0	0	0	463	510	0	0	
12	0	0	0	0	463	508	0	0	
13	0	0	0	0	472	510	0	0	
14	0	0	0	0	472	510	0	0	
15	0	0	0	0	472	511	0	0	
0	0	0	0	0	476	510	0	0	
1	0	0	0	0	473	512	0	0	
2	0	0	0	0	472	511	0	0	
3	0	0	0	0	480	513	0	0	
4	0	0	0	0	483	512	0	0	
5	0	0	0	0	481	512	0	0	
6	0	0	0	0	483	511	0	0	
7	0	0	0	0	492	508	0	0	
8	0	0	0	0	487	508	0	0	
9	0	0	0	0	483	505	0	0	
10	0	0	0	0	483	510	0	0	
11	0	0	0	0	480	504	0	0	
12	0	0	0	0	467	505	0	0	
13	0	0	0	0	467	510	0	0	
14	0	0	0	0	460	511	0	0	
15	0	0	0	0	451	512	0	0	
0	0	0	0	0	448	511	0	0	
1	0	0	0	0	440	508	0	0	
2	0	0	0	0	448	508	0	0	
3	0	0	0	0	463	508	0	0	
4	0	0	0	0	480	508	0	0	
5	0	0	0	0	486	511	0	0	
6	0	0	0	0	497	510	0	0	
7	0	0	0	0	499	515	0	0	
8	0	0	0	0	487	511	0	0	
9	0	0	0	0	487	515	0	0	
10	0	0	0	0	492	511	0	0	
11	0	0	0	0	496	510	0	0	
12	0	0	0	0	480	519	0	0	
13	0	0	0	0	462	511	0	0	
14	0	0	0	0	460	511	0	0	
15	0	0	0	0	472	511	0	0	
0	0	0	0	0	487	505	0	0	
1	0	0	0	0	480	508	0	0	
2	0	0	0	0	463	504	0	0	
3	0	0	0	0	455	504	0	0	
4	0	0	0	0	463	515	0	0	
5	0	0	0	0	476	512	0	0	
6	0	0	0	0	472	510	0	0	
7	0	0	0	0	472	513	0	0	
8	0	0	0	0	472	510	0	0	
9	0	0	0	0	472	508	0	0	
10	0	0	0	0	470	512	0	0	
11	0	0	0	0	465	512	0	0	
12	0	0	0	0	472	512	0	0	
13	0	0	0	0	476	511	0	0	
14	0	0	0	0	480	513	0	0	
15	0	0	0	0	487	512	0	0	
0	0	0	0	0	496	508	0	0	
1	0	0	0	0	496	508	0	0	
2	0	0	0	0	496	502	0	0	
3	0	0	0	0	492	504	0	0	
4	0	0	0	0	480	508	0	0	
5	0	0	0	0	476	508	0	0	
6	0	0	0	0	467	508	0	0	
7	0	0	0	0	463	508	0	0	
8	0	0	0	0	460	510	0	0	
9	0	0	0	0	463	512	0	0	
10	0	0	0	0	463	508	0	0	
11	0	0	0	0	467	510	0	0	
12	0	0	0	0	472	512	0	0	
13	0	0	0	0	476	512	0	0	
14	0	0	0	0	476	513	0	0	
15	0	0	0	0	480	512	0	0	
0	0	0	0	0	480	512	0	0	
1	0	0	0	0	483	508	0	0	
2	0	0	0	0	476	508	0	0	
3	0	0	0	0	473	508	0	0	
4	0	0	0	0	483	515	0	0	
5	0	0	0	0	487	511	0	0	
6	0	0	0	0	487	508	0	0	
7	0	0	0	0	483	510	0	0	
8	0	0	0	0	481	508	0	0	
9	0	0	0	0	473	508	0	0	
10	0	0	0	0	465	508	0	0	
11	0	0	0	0	463	508	0	0	
12	0	0	0	0	463	504	0	0	
13	0	0	0	0	467	504	0	0	
14	0	0	0	0	472	508	0	0	
15	0	0	0	0	476	510	0	0	
0	0	0	0	0	480	512	0	0	
1	0	0	0	0	480	512	0	0	
2	0	0	0	0	481	512	0	0	
3	0	0	0	0	487	511	0	0	
4	0	0	0	0	487	510	0	0	
5	0	0	0	0	487	510	0	0	
6	0	0	0	0	487	510	0	0	
7	0	0	0	0	487	515	0	0	
8	0	0	0	0	486	515	0	0	
9	0	0	0	0	480	510	0	0	
10	0	0	0	0	476	504	0	0	
11	0	0	0	0	467	502	0	0	
12	0	0	0	0	467	504	0	0	
13	0	0	0	0	472	504	0	0	
14	0	0	0	0	463	508	0	0	
15	0	0	0	0	462	508	0	0	
0	0	0	0	0	462	508	0	0	
1	0	0	0	0	460	511	0	0	
2	0	0	0	0	455	513	0	0	
3	0	0	0	0	463	512	0	0	
4	0	0	0	0	463	508	0	0	
5	0	0	0	0	473	513	0	0	
6	0	0	0	0	492	513	0	0	
7	0	0	0	0	496	508	0	0	
8	0	0	0	0	492	510	0	0	
9	0	0	0	0	483	515	0	0	
10	0	0	0	0	480	512	0	0	
11	0	0	0	0	463	512	0	0	
12	0	0	0	0	449	511	0	0	
13	0	0	0	0	463	511	0	0	
14	0	0	0	0	480	508	0	0	
15	0	0	0	0	487	508	0	0	
0	0	0	0	0	481	508	0	0	
1	0	0	0	0	480	499	0	0	
2	0	0	0	0	472	499	0	0	
3	0	0	0	0	463	504	0	0	
4	0	0	0	0	455	505	0	0	
5	0	0	0	0	448	511	0	0	
6	0	0	0	0	465	512	0	0	
7	0	0	0	0	480	512	0	0	
8	0	0	0	0	480	512	0	0	
9	0	0	0	0	481	512	0	0	
10	0	0	0	0	481	508	0	0	
11	0	0	0	0	476	513	0	0	
12	0	0	0	0	472	515	0	0	
13	0	0	0	0	476	504	0	0	
14	0	0	0	0	472	515	0	0	
15	0	0	0	0	463	519	0	0	
0	0	0	0	0	463	512	0	0	
1	0	0	0	0	465	511	0	0	
2	0	0	0	0	472	511	0	0	
3	0	0	0	0	476	508	0	0	
4	0	0	0	0	480	508	0	0	
5	0	0	0	0	472	505	0	0	
6	0	0	0	0	472	504	0	0	
7	0	0	0	0	487	504	0	0	
8	0	0	0	0	499	504	0	0	
9	0	0	0	0	487	508	0	0	
10	0	0	0	0	480	512	0	0	
11	0	0	0	0	480	511	0	0	
12	0	0	0	0	478	515	0	0	
13	0	0	0	0	472	513	0	0	
14	0	0	0	0	478	510	0	0	
15	0	0	0	0	480	515	0	0	
0	0	0	0	0	480	512	0	0	
1	0	0	0	0	487	512	0	0	
2	0	0	0	0	486	512	0	0	
3	0	0	0	0	497	511	0	0	
4	0	0	0	0	496	513	0	0	
5	0	0	0	0	470	508	0	0	
6	0	0	0	0	451	504	0	0	
7	0	0	0	0	460	508	0	0	
8	0	0	0	0	465	510	0	0	
9	0	0	0	0	472	511	0	0	
10	0	0	0	0	463	511	0	0	
11	0	0	0	0	460	505	0	0	
12	0	0	0	0	455	508	0	0	
13	0	0	0	0	462	505	0	0	
14	0	0	0	0	463	511	0	0	
15	0	0	0	0	467	511	0	0	
0	0	0	0	0	486	511	0	0	
1	0	0	0	0	487	511	0	0	
2	0	0	0	0	483	511	0	0	
3	0	0	0	0	480	511	0	0	
4	0	0	0	0	473	508	0	0	
5	0	0	0	0	465	508	0	0	
6	0	0	0	0	472	510	0	0	
7	0	0	0	0	478	504	0	0	
8	0	0	0	0	480	513	0	0	
9	0	0	0	0	481	512	0	0	
10	0	0	0	0	480	511	0	0	
11	0	0	0	0	476	508	0	0	
12	0	0	0	0	472	504	0	0	
13	0	0	0	0	480	504	0	0	
14	0	0	0	0	476	505	0	0	
15	0	0	0	0	467	508	0	0	
0	0	0	0	0	472	508	0	0	
1	0	0	0	0	455	505	0	0	
2	0	0	0	0	460	511	0	0	
3	0	0	0	0	467	510	0	0	
4	0	0	0	0	478	512	0	0	
5	0	0	0	0	480	508	0	0	
6	0	0	0	0	480	510	0	0	
7	0	0	0	0	478	512	0	0	
8	0	0	0	0	480	515	0	0	
9	0	0	0	0	473	511	0	0	
10	0	0	0	0	467	510	0	0	
11	0	0	0	0	483	510	0	0	
12	0	0	0	0	487	511	0	0	
13	0	0	0	0	483	508	0	0	
14	0	0	0	0	480	504	0	0	
15	0	0	0	0	478	508	0	0	
0	0	0	0	0	467	512	0	0	
1	0	0	0	0	463	508	0	0	
2	0	0	0	0	465	504	0	0	
3	0	0	0	0	462	504	0	0	
4	0	0	0	0	460	504	0	0	
5	0	0	0	0	472	508	0	0	
6	0	0	0	0	472	508	0	0	
7	0	0	0	0	465	508	0	0	
8	0	0	0	0	465	515	0	0	
9	0	0	0	0	472	524	0	0	
10	0	0	0	0	480	512	0	0	
11	0	0	0	0	487	511	0	0	
12	0	0	0	0	487	510	0	0	
13	0	0	0	0	487	511	0	0	
14	0	0	0	0	487	512	0	0	
15	0	0	0	0	492	512	0	0	
0	0	0	0	0	487	511	0	0	
1	0	0	0	0	486	508	0	0	
2	0	0	0	0	483	512	0	0	
3	0	0	0	0	480	512	0	0	
4	0	0	0	0	478	510	0	0	
5	0	0	0	0	476	504	0	0	
6	0	0	0	0	467	499	0	0	
7	0	0	0	0	467	502	0	0	
8	0	0	0	0	465	499	0	0	
9	0	0	0	0	463	505	0	0	
10	0	0	0	0	451	508	0	0	
11	0	0	0	0	455	508	0	0	
12	0	0	0	0	467	510	0	0	
13	0	0	0	0	467	511	0	0	
14	0	0	0	0	472	513	0	0	
15	0	0	0	0	476	513	0	0	
0	0	0	0	0	480	512	0	0	
1	0	0	0	0	472	511	0	0	
2	0	0	0	0	472	513	0	0	
3	0	0	0	0	487	515	0	0	
4	0	0	0	0	518	512	0	0	
5	0	0	0	0	519	508	0	0	
6	0	0	0	0	512	508	0	0	
7	0	0	0	0	512	510	0	0	
8	0	0	0	0	486	512	0	0	
9	0	0	0	0	463	505	0	0	
10	0	0	0	0	460	505	0	0	
11	0	0	0	0	455	504	0	0	
12	0	0	0	0	451	508	0	0	
13	0	0	0	0	444	512	0	0	
14	0	0	0	0	448	511	0	0	
15	0	0	0	0	460	511	0	0	
0	0	0	0	0	463	512	0	0	
1	0	0	0	0	472	510	0	0	
2	0	0	0	0	476	510	0	0	
3	0	0	0	0	480	508	0	0	
4	0	0	0	0	481	510	0	0	
5	0	0	0	0	487	510	0	0	
6	0	0	0	0	487	511	0	0	
7	0	0	0	0	486	510	0	0	
8	0	0	0	0	480	510	0	0	
9	0	0	0	0	467	511	0	0	
10	0	0	0	0	462	510	0	0	
11	0	0	0	0	467	508	0	0	
12	0	0	0	0	467	504	0	0	
13	0	0	0	0	467	508	0	0	
14	0	0	0	0	463	508	0	0	
15	0	0	0	0	467	508	0	0	
0	0	0	0	0	470	508	0	0	
1	0	0	0	0	467	508	0	0	
2	0	0	0	0	472	510	0	0	
3	0	0	0	0	480	513	0	0	
4	0	0	0	0	481	511	0	0	
5	0	0	0	0	486	510	0	0	
6	0	0	0	0	480	512	0	0	
7	0	0	0	0	472	513	0	0	
8	0	0	0	0	480	513	0	0	
9	0	0	0	0	476	511	0	0	
10	0	0	0	0	476	513	0	0	
11	0	0	0	0	472	512	0	0	
12	0	0	0	0	476	510	0	0	
13	0	0	0	0	480	511	0	0	
14	0	0	0	0	473	504	0	0	
15	0	0	0	0	472	504	0	0	
0	0	0	0	0	463	508	0	0	
1	0	0	0	0	460	504	0	0	
2	0	0	0	0	462	504	0	0	
3	0	0	0	0	472	504	0	0	
4	0	0	0	0	473	505	0	0	
5	0	0	0	0	467	511	0	0	
6	0	0	0	0	463	513	0	0	
7	0	0	0	0	467	515	0	0	
8	0	0	0	0	476	512	0	0	
9	0	0	0	0	480	508	0	0	
10	0	0	0	0	480	512	0	0	
11	0	0	0	0	480	511	0	0	
12	0	0	0	0	481	512	0	0	
13	0	0	0	0	480	511	0	0	
14	0	0	0	0	487	511	0	0	
15	0	0	0	0	480	510	0	0	
0	0	0	0	0	472	504	0	0	
1	0	0	0	0	472	511	0	0	
2	0	0	0	0	467	508	0	0	
3	0	0	0	0	463	510	0	0	
4	0	0	0	0	463	505	0	0	
5	0	0	0	0	462	515	0	0	
6	0	0	0	0	476	511	0	0	
7	0	0	0	0	487	502	0	0	
8	0	0	0	0	496	504	0	0	
9	0	0	0	0	483	499	0	0	
10	0	0	0	0	467	504	0	0	
11	0	0	0	0	467	510	0	0	
12	0	0	0	0	480	505	0	0	
13	0	0	0	0	487	512	0	0	
14	0	0	0	0	487	512	0	0	
15	0	0	0	0	483	515	0	0	
0	0	0	0	0	480	511	0	0	
1	0	0	0	0	483	515	0	0	
2	0	0	0	0	492	518	0	0	
3	0	0	0	0	487	510	0	0	
4	0	0	0	0	476	519	0	0	
5	0	0	0	0	480	510	0	0	
6	0	0	0	0	480	505	0	0	
7	0	0	0	0	472	504	0	0	
8	0	0	0	0	476	504	0	0	
9	0	0	0	0	476	504	0	0	
10	0	0	0	0	472	508	0	0	
11	0	0	0	0	467	510	0	0	
12	0	0	0	0	467	510	0	0	
13	0	0	0	0	465	510	0	0	
14	0	0	0	0	467	505	0	0	
15	0	0	0	0	463	508	0	0	
0	0	0	0	0	463	508	0	0	
1	0	0	0	0	476	510	0	0	
2	0	0	0	0	487	511	0	0	
3	0	0	0	0	487	512	0	0	
4	0	0	0	0	487	512	0	0	
5	0	0	0	0	481	515	0	0	
6	0	0	0	0	472	513	0	0	
7	0	0	0	0	481	512	0	0	
8	0	0	0	0	481	518	0	0	
9	0	0	0	0	472	508	0	0	
10	0	0	0	0	463	508	0	0	
11	0	0	0	0	467	504	0	0	
12	0	0	0	0	467	504	0	0	
13	0	0	0	0	463	510	0	0	
14	0	0	0	0	465	510	0	0	
15	0	0	0	0	463	504	0	0	
0	0	0	0	0	463	508	0	0	
1	0	0	0	0	460	510	0	0	
2	0	0	0	0	463	508	0	0	
3	0	0	0	0	463	505	0	0	
4	0	0	0	0	472	508	0	0	
5	0	0	0	0	476	511	0	0	
6	0	0	0	0	480	511	0	0	
7	0	0	0	0	483	519	0	0	
8	0	0	0	0	486	511	0	0	
9	0	0	0	0	483	515	0	0	
10	0	0	0	0	483	515	0	0	
11	0	0	0	0	483	512	0	0	
12	0	0	0	0	487	511	0	0	
13	0	0	0	0	480	510	0	0	
14	0	0	0	0	483	505	0	0	
15	0	0	0	0	478	508	0	0	
0	0	0	0	0	465	508	0	0	
1	0	0	0	0	463	504	0	0	
2	0	0	0	0	462	505	0	0	
3	0	0	0	0	463	508	0	0	
4	0	0	0	0	455	510	0	0	
5	0	0	0	0	465	510	0	0	
6	0	0	0	0	487	510	0	0	
7	0	0	0	0	480	508	0	0	
8	0	0	0	0	481	508	0	0	
9	0	0	0	0	481	511	0	0	
10	0	0	0	0	480	511	0	0	
11	0	0	0	0	483	511	0	0	
12	0	0	0	0	483	511	0	0	
13	0	0	0	0	483	513	0	0	
14	0	0	0	0	480	519	0	0	
15	0	0	0	0	483	510	0	0	
0	0	0	0	0	487	511	0	0	
1	0	0	0	0	486	508	0	0	
2	0	0	0	0	486	505	0	0	
3	0	0	0	0	481	508	0	0	
4	0	0	0	0	476	505	0	0	
5	0	0	0	0	472	508	0	0	
6	0	0	0	0	455	505	0	0	
7	0	0	0	0	460	510	0	0	
8	0	0	0	0	460	504	0	0	
9	0	0	0	0	455	508	0	0	
10	0	0	0	0	460	510	0	0	
11	0	0	0	0	465	510	0	0	
12	0	0	0	0	472	510	0	0	
13	0	0	0	0	472	512	0	0	
14	0	0	0	0	480	518	0	0	
15	0	0	0	0	487	511	0	0	
0	0	0	0	0	480	512	0	0	
1	0	0	0	0	463	512	0	0	
2	0	0	0	0	463	510	0	0	
3	0	0	0	0	476	512	0	0	
4	0	0	0	0	480	511	0	0	
5	0	0	0	0	480	508	0	0	
6	0	0	0	0	480	504	0	0	
7	0	0	0	0	476	508	0	0	
8	0	0	0	0	465	508	0	0	
9	0	0	0	0	465	499	0	0	
10	0	0	0	0	463	504	0	0	
11	0	0	0	0	463	513	0	0	
12	0	0	0	0	463	515	0	0	
13	0	0	0	0	463	511	0	0	
14	0	0	0	0	463	508	0	0	
15	0	0	0	0	467	513	0	0	
0	0	0	0	0	472	513	0	0	
1	0	0	0	0	480	511	0	0	
2	0	0	0	0	480	513	0	0	
3	0	0	0	0	483	510	0	0	
4	0	0	0	0	481	513	0	0	
5	0	0	0	0	487	512	0	0	
6	0	0	0	0	487	515	0	0	
7	0	0	0	0	496	512	0	0	
8	0	0	0	0	504	512	0	0	
9	0	0	0	0	496	508	0	0	
10	0	0	0	0	480	511	0	0	
11	0	0	0	0	480	511	0	0	
12	0	0	0	0	472	508	0	0	
13	0	0	0	0	463	502	0	0	
14	0	0	0	0	463	496	0	0	
15	0	0	0	0	463	504	0	0	
0	0	0	0	0	463	499	0	0	
1	0	0	0	0	460	504	0	0	
2	0	0	0	0	463	511	0	0	
3	0	0	0	0	467	511	0	0	
4	0	0	0	0	476	510	0	0	
5	0	0	0	0	480	511	0	0	
6	0	0	0	0	473	515	0	0	
7	0	0	0	0	476	511	0	0	
8	0	0	0	0	481	513	0	0	
9	0	0	0	0	487	511	0	0	
10	0	0	0	0	496	511	0	0	
11	0	0	0	0	487	513	0	0	
12	0	0	0	0	473	511	0	0	
13	0	0	0	0	472	508	0	0	
14	0	0	0	0	480	508	0	0	
15	0	0	0	0	480	504	0	0	
0	0	0	0	0	476	511	0	0	
1	0	0	0	0	472	511	0	0	
2	0	0	0	0	463	510	0	0	
3	0	0	0	0	467	508	0	0	
4	0	0	0	0	467	508	0	0	
5	0	0	0	0	463	510	0	0	
6	0	0	0	0	463	510	0	0	
7	0	0	0	0	467	511	0	0	
8	0	0	0	0	476	508	0	0	
9	0	0	0	0	483	508	0	0	
10	0	0	0	0	487	508	0	0	
11	0	0	0	0	487	515	0	0	
12	0	0	0	0	492	512	0	0	
13	0	0	0	0	487	508	0	0	
14	0	0	0	0	508	511	0	0	
15	0	0	0	0	512	508	0	0	
0	0	0	0	0	504	510	0	0	
1	0	0	0	0	496	510	0	0	
2	0	0	0	0	480	511	0	0	
3	0	0	0	0	455	511	0	0	
4	0	0	0	0	448	508	0	0	
5	0	0	0	0	448	508	0	0	
6	0	0	0	0	448	510	0	0	
7	0	0	0	0	448	511	0	0	
8	0	0	0	0	451	510	0	0	
9	0	0	0	0	448	508	0	0	
10	0	0	0	0	440	511	0	0	
11	0	0	0	0	440	511	0	0	
12	0	0	0	0	463	508	0	0	
13	0	0	0	0	494	511	0	0	
14	0	0	0	0	496	510	0	0	
15	0	0	0	0	487	508	0	0	
0	0	0	0	0	496	510	0	0	
1	0	0	0	0	494	508	0	0	
2	0	0	0	0	487	511	0	0	
3	0	0	0	0	487	510	0	0	
4	0	0	0	0	480	512	0	0	
5	0	0	0	0	472	510	0	0	
6	0	0	0	0	472	510	0	0	
7	0	0	0	0	473	508	0	0	
8	0	0	0	0	472	504	0	0	
9	0	0	0	0	472	510	0	0	
10	0	0	0	0	472	508	0	0	
11	0	0	0	0	473	504	0	0	
12	0	0	0	0	476	505	0	0	
13	0	0	0	0	472	510	0	0	
14	0	0	0	0	472	508	0	0	
15	0	0	0	0	480	515	0	0	
0	0	0	0	0	476	513	0	0	
1	0	0	0	0	472	512	0	0	
2	0	0	0	0	467	511	0	0	
3	0	0	0	0	478	510	0	0	
4	0	0	0	0	480	511	0	0	
5	0	0	0	0	478	511	0	0	
6	0	0	0	0	472	511	0	0	
7	0	0	0	0	472	512	0	0	
8	0	0	0	0	480	513	0	0	
9	0	0	0	0	480	513	0	0	
10	0	0	0	0	472	510	0	0	
11	0	0	0	0	472	511	0	0	
12	0	0	0	0	472	512	0	0	
13	0	0	0	0	467	508	0	0	
14	0	0	0	0	467	508	0	0	
15	0	0	0	0	472	511	0	0	
0	0	0	0	0	467	508	0	0	
1	0	0	0	0	467	504	0	0	
2	0	0	0	0	463	504	0	0	
3	0	0	0	0	462	504	0	0	
4	0	0	0	0	465	504	0	0	
5	0	0	0	0	472	515	0	0	
6	0	0	0	0	483	515	0	0	
7	0	0	0	0	494	508	0	0	
8	0	0	0	0	492	513	0	0	
9	0	0	0	0	496	521	0	0	
10	0	0	0	0	496	515	0	0	
11	0	0	0	0	492	511	0	0	
12	0	0	0	0	497	511	0	0	
13	0	0	0	0	487	510	0	0	
14	0	0	0	0	467	508	0	0	
15	0	0	0	0	455	504	0	0	
0	0	0	0	0	455	504	0	0	
1	0	0	0	0	463	504	0	0	
2	0	0	0	0	467	504	0	0	
3	0	0	0	0	473	508	0	0	
4	0	0	0	0	463	505	0	0	
5	0	0	0	0	462	504	0	0	
6	0	0	0	0	472	508	0	0	
7	0	0	0	0	480	510	0	0	
8	0	0	0	0	480	511	0	0	
9	0	0	0	0	472	512	0	0	
10	0	0	0	0	472	512	0	0	
11	0	0	0	0	476	512	0	0	
12	0	0	0	0	487	511	0	0	
13	0	0	0	0	487	513	0	0	
14	0	0	0	0	483	513	0	0	
15	0	0	0	0	481	515	0	0	
0	0	0	0	0	486	511	0	0	
1	0	0	0	0	483	508	0	0	
2	0	0	0	0	483	508	0	0	
3	0	0	0	0	487	508	0	0	
4	0	0	0	0	494	508	0	0	
5	0	0	0	0	480	504	0	0	
6	0	0	0	0	472	504	0	0	
7	0	0	0	0	465	504	0	0	
8	0	0	0	0	467	504	0	0	
9	0	0	0	0	470	505	0	0	
10	0	0	0	0	467	508	0	0	
11	0	0	0	0	472	511	0	0	
12	0	0	0	0	473	513	0	0	
13	0	0	0	0	476	513	0	0	
14	0	0	0	0	480	511	0	0	
15	0	0	0	0	486	519	0	0	
0	0	0	0	0	494	511	0	0	
1	0	0	0	0	504	511	0	0	
2	0	0	0	0	504	511	0	0	
3	0	0	0	0	499	513	0	0	
4	0	0	0	0	497	511	0	0	
5	0	0	0	0	487	511	0	0	
6	0	0	0	0	476	508	0	0	
7	0	0	0	0	462	508	0	0	
8	0	0	0	0	449	508	0	0	
9	0	0	0	0	448	504	0	0	
10	0	0	0	0	451	508	0	0	
11	0	0	0	0	448	508	0	0	
12	0	0	0	0	449	504	0	0	
13	0	0	0	0	449	511	0	0	
14	0	0	0	0	467	512	0	0	
15	0	0	0	0	480	512	0	0	
0	0	0	0	0	480	510	0	0	
1	0	0	0	0	487	512	0	0	
2	0	0	0	0	476	510	0	0	
3	0	0	0	0	460	508	0	0	
4	0	0	0	0	460	513	0	0	
5	0	0	0	0	467	511	0	0	
6	0	0	0	0	472	508	0	0	
7	0	0	0	0	478	511	0	0	
8	0	0	0	0	476	508	0	0	
9	0	0	0	0	476	508	0	0	
10	0	0	0	0	476	504	0	0	
11	0	0	0	0	480	508	0	0	
12	0	0	0	0	472	504	0	0	
13	0	0	0	0	472	504	0	0	
14	0	0	0	0	472	508	0	0	
15	0	0	0	0	463	508	0	0	
0	0	0	0	0	465	508	0	0	
1	0	0	0	0	470	510	0	0	
2	0	0	0	0	467	510	0	0	
3	0	0	0	0	463	511	0	0	
4	0	0	0	0	472	510	0	0	
5	0	0	0	0	476	511	0	0	
6	0	0	0	0	481	510	0	0	
7	0	0	0	0	487	510	0	0	
8	0	0	0	0	492	511	0	0	
9	0	0	0	0	492	510	0	0	
10	0	0	0	0	487	513	0	0	
11	0	0	0	0	492	511	0	0	
12	0	0	0	0	487	513	0	0	
13	0	0	0	0	483	510	0	0	
14	0	0	0	0	481	508	0	0	
15	0	0	0	0	476	510	0	0	
0	0	0	0	0	472	508	0	0	
1	0	0	0	0	472	508	0	0	
2	0	0	0	0	472	508	0	0	
3	0	0	0	0	472	508	0	0	
4	0	0	0	0	465	508	0	0	
5	0	0	0	0	472	508	0	0	
6	0	0	0	0	463	515	0	0	
7	0	0	0	0	467	511	0	0	
8	0	0	0	0	472	508	0	0	
9	0	0	0	0	476	511	0	0	
10	0	0	0	0	476	511	0	0	
11	0	0	0	0	480	510	0	0	
12	0	0	0	0	481	512	0	0	
13	0	0	0	0	483	513	0	0	
14	0	0	0	0	486	515	0	0	
15	0	0	0	0	487	515	0	0	
0	0	0	0	0	483	508	0	0	
1	0	0	0	0	480	504	0	0	
2	0	0	0	0	480	499	0	0	
3	0	0	0	0	476	504	0	0	
4	0	0	0	0	467	508	0	0	
5	0	0	0	0	463	510	0	0	
6	0	0	0	0	463	511	0	0	
7	0	0	0	0	463	508	0	0	
8	0	0	0	0	462	508	0	0	
9	0	0	0	0	462	515	0	0	
10	0	0	0	0	462	513	0	0	
11	0	0	0	0	455	511	0	0	
12	0	0	0	0	462	508	0	0	
13	0	0	0	0	467	508	0	0	
14	0	0	0	0	472	508	0	0	
15	0	0	0	0	480	508	0	0	
0	0	0	0	0	492	513	0	0	
1	0	0	0	0	499	518	0	0	
2	0	0	0	0	504	519	0	0	
3	0	0	0	0	499	512	0	0	
4	0	0	0	0	492	504	0	0	
5	0	0	0	0	481	504	0	0	
6	0	0	0	0	463	504	0	0	
7	0	0	0	0	448	504	0	0	
8	0	0	0	0	462	508	0	0	
9	0	0	0	0	476	504	0	0	
10	0	0	0	0	476	504	0	0	
11	0	0	0	0	476	508	0	0	
12	0	0	0	0	467	512	0	0	
13	0	0	0	0	465	508	0	0	
14	0	0	0	0	460	508	0	0	
15	0	0	0	0	454	505	0	0	
0	0	0	0	0	448	519	0	0	
1	0	0	0	0	465	519	0	0	
2	0	0	0	0	472	511	0	0	
3	0	0	0	0	481	508	0	0	
4	0	0	0	0	487	511	0	0	
5	0	0	0	0	487	511	0	0	
6	0	0	0	0	487	511	0	0	
7	0	0	0	0	481	508	0	0	
8	0	0	0	0	492	510	0	0	
9	0	0	0	0	499	508	0	0	
10	0	0	0	0	496	505	0	0	
11	0	0	0	0	494	508	0	0	
12	0	0	0	0	483	511	0	0	
13	0	0	0	0	467	512	0	0	
14	0	0	0	0	454	511	0	0	
15	0	0	0	0	455	510	0	0	
0	0	0	0	0	460	508	0	0	
1	0	0	0	0	462	508	0	0	
2	0	0	0	0	455	508	0	0	
3	0	0	0	0	462	508	0	0	
4	0	0	0	0	473	512	0	0	
5	0	0	0	0	480	512	0	0	
6	0	0	0	0	487	512	0	0	
7	0	0	0	0	483	511	0	0	
8	0	0	0	0	480	512	0	0	
9	0	0	0	0	480	513	0	0	
10	0	0	0	0	480	511	0	0	
11	0	0	0	0	480	511	0	0	
12	0	0	0	0	480	508	0	0	
13	0	0	0	0	481	508	0	0	
14	0	0	0	0	480	508	0	0	
15	0	0	0	0	472	511	0	0	
0	0	0	0	0	472	511	0	0	
1	0	0	0	0	467	508	0	0	
2	0	0	0	0	462	508	0	0	
3	0	0	0	0	462	510	0	0	
4	0	0	0	0	462	510	0	0	
5	0	0	0	0	460	504	0	0	
6	0	0	0	0	457	511	0	0	
7	0	0	0	0	463	512	0	0	
8	0	0	0	0	472	512	0	0	
9	0	0	0	0	473	513	0	0	
10	0	0	0	0	480	510	0	0	
11	0	0	0	0	483	510	0	0	
12	0	0	0	0	487	508	0	0	
13	0	0	0	0	487	508	0	0	
14	0	0	0	0	487	508	0	0	
15	0	0	0	0	497	508	0	0	
0	0	0	0	0	497	511	0	0	
1	0	0	0	0	487	510	0	0	
2	0	0	0	0	480	505	0	0	
3	0	0	0	0	465	510	0	0	
4	0	0	0	0	472	508	0	0	
5	0	0	0	0	476	511	0	0	
6	0	0	0	0	476	519	0	0	
7	0	0	0	0	465	510	0	0	
8	0	0	0	0	462	508	0	0	
9	0	0	0	0	463	504	0	0	
10	0	0	0	0	467	504	0	0	
11	0	0	0	0	460	515	0	0	
12	0	0	0	0	455	515	0	0	
13	0	0	0	0	465	511	0	0	
14	0	0	0	0	476	511	0	0	
15	0	0	0	0	476	508	0	0	
0	0	0	0	0	476	510	0	0	
1	0	0	0	0	467	512	0	0	
2	0	0	0	0	472	511	0	0	
3	0	0	0	0	487	511	0	0	
4	0	0	0	0	492	510	0	0	
5	0	0	0	0	494	510	0	0	
6	0	0	0	0	496	508	0	0	
7	0	0	0	0	492	504	0	0	
8	0	0	0	0	480	504	0	0	
9	0	0	0	0	480	508	0	0	
10	0	0	0	0	463	510	0	0	
11	0	0	0	0	448	508	0	0	
12	0	0	0	0	454	508	0	0	
13	0	0	0	0	460	510	0	0	
14	0	0	0	0	455	510	0	0	
15	0	0	0	0	460	511	0	0	
0	0	0	0	0	463	512	0	0	
1	0	0	0	0	463	513	0	0	
2	0	0	0	0	478	508	0	0	
3	0	0	0	0	489	511	0	0	
4	0	0	0	0	496	510	0	0	
5	0	0	0	0	494	510	0	0	
6	0	0	0	0	492	510	0	0	
7	0	0	0	0	496	510	0	0	
8	0	0	0	0	496	510	0	0	
9	0	0	0	0	487	504	0	0	
10	0	0	0	0	486	508	0	0	
11	0	0	0	0	480	508	0	0	
12	0	0	0	0	470	508	0	0	
13	0	0	0	0	462	504	0	0	
14	0	0	0	0	460	508	0	0	
15	0	0	0	0	460	508	0	0	
0	0	0	0	0	455	508	0	0	
1	0	0	0	0	451	510	0	0	
2	0	0	0	0	451	508	0	0	
3	0	0	0	0	455	508	0	0	
4	0	0	0	0	463	510	0	0	
5	0	0	0	0	467	512	0	0	
6	0	0	0	0	472	505	0	0	
7	0	0	0	0	476	515	0	0	
8	0	0	0	0	483	526	0	0	
9	0	0	0	0	487	515	0	0	
10	0	0	0	0	480	510	0	0	
11	0	0	0	0	487	511	0	0	
12	0	0	0	0	494	511	0	0	
13	0	0	0	0	487	508	0	0	
14	0	0	0	0	487	499	0	0	
15	0	0	0	0	483	499	0	0	
0	0	0	0	0	480	504	0	0	
1	0	0	0	0	480	504	0	0	
2	0	0	0	0	480	511	0	0	
3	0	0	0	0	478	510	0	0	
4	0	0	0	0	476	512	0	0	
5	0	0	0	0	462	511	0	0	
6	0	0	0	0	455	508	0	0	
7	0	0	0	0	455	508	0	0	
8	0	0	0	0	463	512	0	0	
9	0	0	0	0	476	513	0	0	
10	0	0	0	0	480	511	0	0	
11	0	0	0	0	480	511	0	0	
12	0	0	0	0	481	512	0	0	
13	0	0	0	0	483	512	0	0	
14	0	0	0	0	483	512	0	0	
15	0	0	0	0	483	512	0	0	
0	0	0	0	0	483	511	0	0	
1	0	0	0	0	481	510	0	0	
2	0	0	0	0	487	505	0	0	
3	0	0	0	0	496	508	0	0	
4	0	0	0	0	492	511	0	0	
5	0	0	0	0	480	511	0	0	
6	0	0	0	0	472	512	0	0	
7	0	0	0	0	463	508	0	0	
8	0	0	0	0	448	508	0	0	
9	0	0	0	0	448	510	0	0	
10	0	0	0	0	451	510	0	0	
11	0	0	0	0	448	508	0	0	
12	0	0	0	0	451	511	0	0	
13	0	0	0	0	457	511	0	0	
14	0	0	0	0	467	511	0	0	
15	0	0	0	0	480	510	0	0	
0	0	0	0	0	480	512	0	0	
1	0	0	0	0	481	511	0	0	
2	0	0	0	0	496	512	0	0	
3	0	0	0	0	504	513	0	0	
4	0	0	0	0	496	511	0	0	
5	0	0	0	0	492	510	0	0	
6	0	0	0	0	476	508	0	0	
7	0	0	0	0	467	508	0	0	
8	0	0	0	0	462	515	0	0	
9	0	0	0	0	463	515	0	0	
10	0	0	0	0	463	510	0	0	
11	0	0	0	0	463	504	0	0	
12	0	0	0	0	463	504	0	0	
13	0	0	0	0	463	511	0	0	
14	0	0	0	0	472	512	0	0	
15	0	0	0	0	476	513	0	0	
0	0	0	0	0	476	508	0	0	
1	0	0	0	0	480	508	0	0	
2	0	0	0	0	480	513	0	0	
3	0	0	0	0	487	513	0	0	
4	0	0	0	0	496	513	0	0	
5	0	0	0	0	496	508	0	0	
6	0	0	0	0	499	511	0	0	
7	0	0	0	0	492	512	0	0	
8	0	0	0	0	492	510	0	0	
9	0	0	0	0	487	511	0	0	
10	0	0	0	0	483	508	0	0	
11	0	0	0	0	478	508	0	0	
12	0	0	0	0	449	505	0	0	
13	0	0	0	0	451	505	0	0	
14	0	0	0	0	451	508	0	0	
15	0	0	0	0	448	508	0	0	
0	0	0	0	0	449	510	0	0	
1	0	0	0	0	457	504	0	0	
2	0	0	0	0	460	518	0	0	
3	0	0	0	0	460	510	0	0	
4	0	0	0	0	463	504	0	0	
5	0	0	0	0	472	510	0	0	
6	0	0	0	0	472	511	0	0	
7	0	0	0	0	472	508	0	0	
8	0	0	0	0	476	512	0	0	
9	0	0	0	0	483	512	0	0	
10	0	0	0	0	480	511	0	0	
11	0	0	0	0	483	510	0	0	
12	0	0	0	0	504	512	0	0	
13	0	0	0	0	504	511	0	0	
14	0	0	0	0	496	505	0	0	
15	0	0	0	0	487	504	0	0	
0	0	0	0	0	480	504	0	0	
1	0	0	0	0	476	504	0	0	
2	0	0	0	0	472	508	0	0	
3	0	0	0	0	473	504	0	0	
4	0	0	0	0	473	504	0	0	
5	0	0	0	0	472	508	0	0	
6	0	0	0	0	465	508	0	0	
7	0	0	0	0	467	512	0	0	
8	0	0	0	0	467	511	0	0	
9	0	0	0	0	478	513	0	0	
10	0	0	0	0	480	519	0	0	
11	0	0	0	0	481	511	0	0	
12	0	0	0	0	480	511	0	0	
13	0	0	0	0	480	510	0	0	
14	0	0	0	0	480	510	0	0	
15	0	0	0	0	483	511	0	0	
0	0	0	0	0	481	504	0	0	
1	0	0	0	0	483	508	0	0	
2	0	0	0	0	486	504	0	0	
3	0	0	0	0	480	504	0	0	
4	0	0	0	0	476	510	0	0	
5	0	0	0	0	467	510	0	0	
6	0	0	0	0	463	508	0	0	
7	0	0	0	0	460	504	0	0	
8	0	0	0	0	455	508	0	0	
9	0	0	0	0	463	508	0	0	
10	0	0	0	0	463	515	0	0	
11	0	0	0	0	467	511	0	0	
12	0	0	0	0	476	518	0	0	
13	0	0	0	0	478	512	0	0	
14	0	0	0	0	481	512	0	0	
15	0	0	0	0	487	512	0	0	
0	0	0	0	0	487	511	0	0	
1	0	0	0	0	480	508	0	0	
2	0	0	0	0	486	508	0	0	
3	0	0	0	0	496	508	0	0	
4	0	0	0	0	494	511	0	0	
5	0	0	0	0	487	511	0	0	
6	0	0	0	0	483	510	0	0	
7	0	0	0	0	480	512	0	0	
8	0	0	0	0	476	515	0	0	
9	0	0	0	0	455	510	0	0	
10	0	0	0	0	444	508	0	0	
11	0	0	0	0	454	508	0	0	
12	0	0	0	0	467	504	0	0	
13	0	0	0	0	460	504	0	0	
14	0	0	0	0	460	508	0	0	
15	0	0	0	0	467	511	0	0	
0	0	0	0	0	472	511	0	0	
1	0	0	0	0	480	512	0	0	
2	0	0	0	0	487	519	0	0	
3	0	0	0	0	496	511	0	0	
4	0	0	0	0	496	504	0	0	
5	0	0	0	0	492	504	0	0	
6	0	0	0	0	486	512	0	0	
7	0	0	0	0	483	513	0	0	
8	0	0	0	0	483	513	0	0	
9	0	0	0	0	472	504	0	0	
10	0	0	0	0	472	497	0	0	
11	0	0	0	0	473	496	0	0	
12	0	0	0	0	465	504	0	0	
13	0	0	0	0	470	505	0	0	
14	0	0	0	0	472	508	0	0	
15	0	0	0	0	467	519	0	0	
0	0	0	0	0	463	519	0	0	
1	0	0	0	0	467	512	0	0	
2	0	0	0	0	460	513	0	0	
3	0	0	0	0	455	512	0	0	
4	0	0	0	0	463	511	0	0	
5	0	0	0	0	463	513	0	0	
6	0	0	0	0	472	513	0	0	
7	0	0	0	0	476	512	0	0	
8	0	0	0	0	480	510	0	0	
9	0	0	0	0	487	508	0	0	
10	0	0	0	0	487	508	0	0	
11	0	0	0	0	487	504	0	0	
12	0	0	0	0	487	512	0	0	
13	0	0	0	0	480	504	0	0	
14	0	0	0	0	480	512	0	0	
15	0	0	0	0	481	515	0	0	
0	0	0	0	0	480	510	0	0	
1	0	0	0	0	476	508	0	0	
2	0	0	0	0	472	504	0	0	
3	0	0	0	0	465	504	0	0	
4	0	0	0	0	463	508	0	0	
5	0	0	0	0	463	508	0	0	
6	0	0	0	0	463	508	0	0	
7	0	0	0	0	463	512	0	0	
8	0	0	0	0	463	510	0	0	
9	0	0	0	0	472	510	0	0	
10	0	0	0	0	480	510	0	0	
11	0	0	0	0	480	518	0	0	
12	0	0	0	0	483	512	0	0	
13	0	0	0	0	487	510	0	0	
14	0	0	0	0	487	510	0	0	
15	0	0	0	0	487	510	0	0	
0	0	0	0	0	492	508	0	0	
1	0	0	0	0	481	510	0	0	
2	0	0	0	0	480	508	0	0	
3	0	0	0	0	472	504	0	0	
4	0	0	0	0	467	504	0	0	
5	0	0	0	0	463	508	0	0	
6	0	0	0	0	463	508	0	0	
7	0	0	0	0	472	504	0	0	
8	0	0	0	0	472	508	0	0	
9	0	0	0	0	470	508	0	0	
10	0	0	0	0	472	515	0	0	
11	0	0	0	0	472	512	0	0	
12	0	0	0	0	476	513	0	0	
13	0	0	0	0	476	511	0	0	
14	0	0	0	0	483	512	0	0	
15	0	0	0	0	487	508	0	0	
0	0	0	0	0	483	512	0	0	
1	0	0	0	0	487	510	0	0	
2	0	0	0	0	487	510	0	0	
3	0	0	0	0	487	510	0	0	
4	0	0	0	0	483	510	0	0	
5	0	0	0	0	481	510	0	0	
6	0	0	0	0	480	504	0	0	
7	0	0	0	0	476	510	0	0	
8	0	0	0	0	476	508	0	0	
9	0	0	0	0	472	510	0	0	
10	0	0	0	0	472	511	0	0	
11	0	0	0	0	455	508	0	0	
12	0	0	0	0	448	508	0	0	
13	0	0	0	0	448	510	0	0	
14	0	0	0	0	463	508	0	0	
15	0	0	0	0	472	512	0	0	
0	0	0	0	0	472	511	0	0	
1	0	0	0	0	480	512	0	0	
2	0	0	0	0	480	515	0	0	
3	0	0	0	0	480	510	0	0	
4	0	0	0	0	483	512	0	0	
5	0	0	0	0	487	511	0	0	
6	0	0	0	0	492	511	0	0	
7	0	0	0	0	492	510	0	0	
8	0	0	0	0	487	508	0	0	
9	0	0	0	0	486	508	0	0	
10	0	0	0	0	480	508	0	0	
11	0	0	0	0	472	508	0	0	
12	0	0	0	0	460	508	0	0	
13	0	0	0	0	463	508	0	0	
14	0	0	0	0	463	508	0	0	
15	0	0	0	0	465	505	0	0	
0	0	0	0	0	467	512	0	0	
1	0	0	0	0	472	513	0	0	
2	0	0	0	0	470	512	0	0	
3	0	0	0	0	473	510	0	0	
4	0	0	0	0	480	510	0	0	
5	0	0	0	0	486	510	0	0	
6	0	0	0	0	483	511	0	0	
7	0	0	0	0	483	510	0	0	
8	0	0	0	0	483	511	0	0	
9	0	0	0	0	480	511	0	0	
10	0	0	0	0	487	510	0	0	
11	0	0	0	0	519	510	0	0	
12	0	0	0	0	519	513	0	0	
13	0	0	0	0	512	508	0	0	
14	0	0	0	0	504	504	0	0	
15	0	0	0	0	480	504	0	0	
0	0	0	0	0	451	508	0	0	
1	0	0	0	0	433	512	0	0	
2	0	0	0	0	412	512	0	0	
3	0	0	0	0	408	510	0	0	
4	0	0	0	0	428	511	0	0	
5	0	0	0	0	448	512	0	0	
6	0	0	0	0	462	511	0	0	
7	0	0	0	0	455	505	0	0	
8	0	0	0	0	465	508	0	0	
9	0	0	0	0	483	508	0	0	
10	0	0	0	0	496	511	0	0	
11	0	0	0	0	496	524	0	0	
12	0	0	0	0	496	512	0	0	
13	0	0	0	0	496	510	0	0	
14	0	0	0	0	496	515	0	0	
15	0	0	0	0	497	511	0	0	
0	0	0	0	0	492	508	0	0	
1	0	0	0	0	481	508	0	0	
2	0	0	0	0	472	504	0	0	
3	0	0	0	0	473	504	0	0	
4	0	0	0	0	472	505	0	0	
5	0	0	0	0	472	504	0	0	
6	0	0	0	0	467	505	0	0	
7	0	0	0	0	472	505	0	0	
8	0	0	0	0	472	505	0	0	
9	0	0	0	0	463	508	0	0	
10	0	0	0	0	462	508	0	0	
11	0	0	0	0	455	512	0	0	
12	0	0	0	0	462	519	0	0	
13	0	0	0	0	476	515	0	0	
14	0	0	0	0	473	512	0	0	
15	0	0	0	0	467	519	0	0	
0	0	0	0	0	472	512	0	0	
1	0	0	0	0	472	510	0	0	
2	0	0	0	0	480	511	0	0	
3	0	0	0	0	480	511	0	0	
4	0	0	0	0	481	508	0	0	
5	0	0	0	0	481	510	0	0	
6	0	0	0	0	480	504	0	0	
7	0	0	0	0	476	504	0	0	
8	0	0	0	0	472	504	0	0	
9	0	0	0	0	476	504	0	0	
10	0	0	0	0	480	504	0	0	
11	0	0	0	0	480	508	0	0	
12	0	0	0	0	476	510	0	0	
13	0	0	0	0	472	508	0	0	
14	0	0	0	0	472	508	0	0	
15	0	0	0	0	472	513	0	0	
0	0	0	0	0	472	511	0	0	
1	0	0	0	0	480	511	0	0	
2	0	0	0	0	476	512	0	0	
3	0	0	0	0	480	515	0	0	
4	0	0	0	0	481	513	0	0	
5	0	0	0	0	480	504	0	0	
6	0	0	0	0	483	499	0	0	
7	0	0	0	0	492	504	0	0	
8	0	0	0	0	487	511	0	0	
9	0	0	0	0	487	508	0	0	
10	0	0	0	0	481	504	0	0	
11	0	0	0	0	476	504	0	0	
12	0	0	0	0	467	504	0	0	
13	0	0	0	0	465	505	0	0	
14	0	0	0	0	463	512	0	0	
15	0	0	0	0	463	511	0	0	
0	0	0	0	0	463	504	0	0	
1	0	0	0	0	463	504	0	0	
2	0	0	0	0	463	508	0	0	
3	0	0	0	0	467	511	0	0	
4	0	0	0	0	472	519	0	0	
5	0	0	0	0	483	526	0	0	
6	0	0	0	0	483	519	0	0	
7	0	0	0	0	487	510	0	0	
8	0	0	0	0	492	512	0	0	
9	0	0	0	0	487	504	0	0	
10	0	0	0	0	487	508	0	0	
11	0	0	0	0	487	508	0	0	
12	0	0	0	0	492	508	0	0	
13	0	0	0	0	487	508	0	0	
14	0	0	0	0	476	510	0	0	
15	0	0	0	0	465	508	0	0	
0	0	0	0	0	467	504	0	0	
1	0	0	0	0	467	508	0	0	
2	0	0	0	0	462	511	0	0	
3	0	0	0	0	455	510	0	0	
4	0	0	0	0	449	505	0	0	
5	0	0	0	0	455	505	0	0	
6	0	0	0	0	455	513	0	0	
7	0	0	0	0	472	518	0	0	
8	0	0	0	0	476	515	0	0	
9	0	0	0	0	476	510	0	0	
10	0	0	0	0	480	508	0	0	
11	0	0	0	0	483	508	0	0	
12	0	0	0	0	483	508	0	0	
13	0	0	0	0	483	510	0	0	
14	0	0	0	0	486	513	0	0	
15	0	0	0	0	481	510	0	0	
0	0	0	0	0	472	508	0	0	
1	0	0	0	0	472	508	0	0	
2	0	0	0	0	472	504	0	0	
3	0	0	0	0	476	504	0	0	
4	0	0	0	0	476	512	0	0	
5	0	0	0	0	472	510	0	0	
6	0	0	0	0	465	508	0	0	
7	0	0	0	0	463	508	0	0	
8	0	0	0	0	463	508	0	0	
9	0	0	0	0	463	511	0	0	
10	0	0	0	0	463	510	0	0	
11	0	0	0	0	460	510	0	0	
12	0	0	0	0	455	508	0	0	
13	0	0	0	0	472	508	0	0	
14	0	0	0	0	483	510	0	0	
15	0	0	0	0	487	511	0	0	
0	0	0	0	0	487	510	0	0	
1	0	0	0	0	492	512	0	0	
2	0	0	0	0	492	511	0	0	
3	0	0	0	0	492	510	0	0	
4	0	0	0	0	499	508	0	0	
5	0	0	0	0	497	504	0	0	
6	0	0	0	0	483	505	0	0	
7	0	0	0	0	480	508	0	0	
8	0	0	0	0	467	510	0	0	
9	0	0	0	0	463	508	0	0	
10	0	0	0	0	462	508	0	0	
11	0	0	0	0	455	508	0	0	
12	0	0	0	0	451	508	0	0	
13	0	0	0	0	460	510	0	0	
14	0	0	0	0	467	511	0	0	
15	0	0	0	0	463	511	0	0	
0	0	0	0	0	462	511	0	0	
1	0	0	0	0	462	511	0	0	
2	0	0	0	0	467	515	0	0	
3	0	0	0	0	483	515	0	0	
4	0	0	0	0	504	512	0	0	
5	0	0	0	0	497	510	0	0	
6	0	0	0	0	496	508	0	0	
7	0	0	0	0	492	511	0	0	
8	0	0	0	0	480	512	0	0	
9	0	0	0	0	463	511	0	0	
10	0	0	0	0	463	508	0	0	
11	0	0	0	0	472	508	0	0	
12	0	0	0	0	472	510	0	0	
13	0	0	0	0	472	499	0	0	
14	0	0	0	0	467	512	0	0	
15	0	0	0	0	467	512	0	0	
0	0	0	0	0	472	511	0	0	
1	0	0	0	0	460	512	0	0	
2	0	0	0	0	463	511	0	0	
3	0	0	0	0	465	508	0	0	
4	0	0	0	0	472	508	0	0	
5	0	0	0	0	472	512	0	0	
6	0	0	0	0	480	512	0	0	
7	0	0	0	0	476	510	0	0	
8	0	0	0	0	480	518	0	0	
9	0	0	0	0	487	519	0	0	
10	0	0	0	0	487	515	0	0	
11	0	0	0	0	489	512	0	0	
12	0	0	0	0	487	511	0	0	
13	0	0	0	0	480	504	0	0	
14	0	0	0	0	476	504	0	0	
15	0	0	0	0	480	508	0	0	
0	0	0	0	0	472	511	0	0	
1	0	0	0	0	467	504	0	0	
2	0	0	0	0	472	497	0	0	
3	0	0	0	0	472	497	0	0	
4	0	0	0	0	467	508	0	0	
5	0	0	0	0	463	508	0	0	
6	0	0	0	0	463	511	0	0	
7	0	0	0	0	472	512	0	0	
8	0	0	0	0	472	510	0	0	
9	0	0	0	0	472	510	0	0	
10	0	0	0	0	472	512	0	0	
11	0	0	0	0	480	510	0	0	
12	0	0	0	0	483	513	0	0	
13	0	0	0	0	487	513	0	0	
14	0	0	0	0	487	510	0	0	
15	0	0	0	0	481	510	0	0	
0	0	0	0	0	487	510	0	0	
1	0	0	0	0	487	505	0	0	
2	0	0	0	0	486	508	0	0	
3	0	0	0	0	480	511	0	0	
4	0	0	0	0	472	510	0	0	
5	0	0	0	0	467	513	0	0	
6	0	0	0	0	463	511	0	0	
7	0	0	0	0	460	510	0	0	
8	0	0	0	0	455	508	0	0	
9	0	0	0	0	460	508	0	0	
10	0	0	0	0	467	510	0	0	
11	0	0	0	0	472	511	0	0	
12	0	0	0	0	472	512	0	0	
13	0	0	0	0	462	513	0	0	
14	0	0	0	0	472	511	0	0	
15	0	0	0	0	480	513	0	0	
0	0	0	0	0	487	511	0	0	
1	0	0	0	0	487	510	0	0	
2	0	0	0	0	492	510	0	0	
3	0	0	0	0	487	510	0	0	
4	0	0	0	0	483	508	0	0	
5	0	0	0	0	483	510	0	0	
6	0	0	0	0	480	504	0	0	
7	0	0	0	0	476	504	0	0	
8	0	0	0	0	463	505	0	0	
9	0	0	0	0	455	510	0	0	
10	0	0	0	0	463	511	0	0	
11	0	0	0	0	480	511	0	0	
12	0	0	0	0	480	510	0	0	
13	0	0	0	0	476	511	0	0	
14	0	0	0	0	476	511	0	0	
15	0	0	0	0	472	511	0	0	
0	0	0	0	0	467	508	0	0	
1	0	0	0	0	467	511	0	0	
2	0	0	0	0	476	511	0	0	
3	0	0	0	0	476	510	0	0	
4	0	0	0	0	480	511	0	0	
5	0	0	0	0	483	510	0	0	
6	0	0	0	0	483	510	0	0	
7	0	0	0	0	483	510	0	0	
8	0	0	0	0	487	510	0	0	
9	0	0	0	0	494	510	0	0	
10	0	0	0	0	492	508	0	0	
11	0	0	0	0	480	508	0	0	
12	0	0	0	0	483	508	0	0	
13	0	0	0	0	480	510	0	0	
14	0	0	0	0	455	510	0	0	
15	0	0	0	0	440	504	0	0	
0	0	0	0	0	448	505	0	0	
1	0	0	0	0	448	508	0	0	
2	0	0	0	0	460	511	0	0	
3	0	0	0	0	463	511	0	0	
4	0	0	0	0	467	511	0	0	
5	0	0	0	0	480	512	0	0	
6	0	0	0	0	480	511	0	0	
7	0	0	0	0	480	510	0	0	
8	0	0	0	0	487	511	0	0	
9	0	0	0	0	487	519	0	0	
10	0	0	0	0	492	512	0	0	
11	0	0	0	0	487	508	0	0	
12	0	0	0	0	492	511	0	0	
13	0	0	0	0	487	511	0	0	
14	0	0	0	0	483	508	0	0	
15	0	0	0	0	486	504	0	0	
0	0	0	0	0	476	504	0	0	
1	0	0	0	0	472	504	0	0	
2	0	0	0	0	472	508	0	0	
3	0	0	0	0	463	505	0	0	
4	0	0	0	0	463	508	0	0	
5	0	0	0	0	460	511	0	0	
6	0	0	0	0	455	511	0	0	
7	0	0	0	0	460	512	0	0	
8	0	0	0	0	460	511	0	0	
9	0	0	0	0	472	511	0	0	
10	0	0	0	0	487	511	0	0	
11	0	0	0	0	499	512	0	0	
12	0	0	0	0	496	508	0	0	
13	0	0	0	0	492	510	0	0	
14	0	0	0	0	483	510	0	0	
15	0	0	0	0	480	508	0	0	
0	0	0	0	0	480	508	0	0	
1	0	0	0	0	480	508	0	0	
2	0	0	0	0	481	511	0	0	
3	0	0	0	0	480	512	0	0	
4	0	0	0	0	487	511	0	0	
5	0	0	0	0	480	512	0	0	
6	0	0	0	0	472	505	0	0	
7	0	0	0	0	472	508	0	0	
8	0	0	0	0	467	505	0	0	
9	0	0	0	0	463	504	0	0	
10	0	0	0	0	470	508	0	0	
11	0	0	0	0	472	511	0	0	
12	0	0	0	0	473	511	0	0	
13	0	0	0	0	483	510	0	0	
14	0	0	0	0	487	510	0	0	
15	0	0	0	0	487	510	0	0	
0	0	0	0	0	492	512	0	0	
1	0	0	0	0	499	519	0	0	
2	0	0	0	0	496	515	0	0	
3	0	0	0	0	487	510	0	0	
4	0	0	0	0	467	504	0	0	
5	0	0	0	0	448	504	0	0	
6	0	0	0	0	457	508	0	0	
7	0	0	0	0	463	510	0	0	
8	0	0	0	0	467	512	0	0	
9	0	0	0	0	472	508	0	0	
10	0	0	0	0	472	508	0	0	
11	0	0	0	0	478	508	0	0	
12	0	0	0	0	472	508	0	0	
13	0	0	0	0	472	508	0	0	
14	0	0	0	0	463	511	0	0	
15	0	0	0	0	463	512	0	0	
0	0	0	0	0	462	511	0	0	
1	0	0	0	0	467	504	0	0	
2	0	0	0	0	472	504	0	0	
3	0	0	0	0	480	515	0	0	
4	0	0	0	0	483	515	0	0	
5	0	0	0	0	480	512	0	0	
6	0	0	0	0	483	511	0	0	
7	0	0	0	0	487	504	0	0	
8	0	0	0	0	487	504	0	0	
9	0	0	0	0	480	504	0	0	
10	0	0	0	0	472	504	0	0	
11	0	0	0	0	470	508	0	0	
12	0	0	0	0	463	510	0	0	
13	0	0	0	0	455	515	0	0	
14	0	0	0	0	455	508	0	0	
15	0	0	0	0	455	508	0	0	
0	0	0	0	0	463	512	0	0	
1	0	0	0	0	472	512	0	0	
2	0	0	0	0	483	511	0	0	
3	0	0	0	0	487	515	0	0	
4	0	0	0	0	483	512	0	0	
5	0	0	0	0	480	511	0	0	
6	0	0	0	0	472	512	0	0	
7	0	0	0	0	460	510	0	0	
8	0	0	0	0	462	511	0	0	
9	0	0	0	0	480	515	0	0	
10	0	0	0	0	496	512	0	0	
11	0	0	0	0	492	508	0	0	
12	0	0	0	0	487	505	0	0	
13	0	0	0	0	481	510	0	0	
14	0	0	0	0	480	508	0	0	
15	0	0	0	0	473	508	0	0	
0	0	0	0	0	467	508	0	0	
1	0	0	0	0	465	511	0	0	
2	0	0	0	0	472	510	0	0	
3	0	0	0	0	472	508	0	0	
4	0	0	0	0	463	508	0	0	
5	0	0	0	0	462	511	0	0	
6	0	0	0	0	451	511	0	0	
7	0	0	0	0	449	508	0	0	
8	0	0	0	0	463	512	0	0	
9	0	0	0	0	472	512	0	0	
10	0	0	0	0	486	510	0	0	
11	0	0	0	0	487	508	0	0	
12	0	0	0	0	487	511	0	0	
13	0	0	0	0	492	510	0	0	
14	0	0	0	0	504	511	0	0	
15	0	0	0	0	504	510	0	0	
0	0	0	0	0	505	511	0	0	
1	0	0	0	0	487	510	0	0	
2	0	0	0	0	480	505	0	0	
3	0	0	0	0	480	504	0	0	
4	0	0	0	0	472	508	0	0	
5	0	0	0	0	463	510	0	0	
6	0	0	0	0	444	508	0	0	
7	0	0	0	0	440	508	0	0	
8	0	0	0	0	448	510	0	0	
9	0	0	0	0	449	511	0	0	
10	0	0	0	0	455	510	0	0	
11	0	0	0	0	455	508	0	0	
12	0	0	0	0	462	510	0	0	
13	0	0	0	0	467	513	0	0	
14	0	0	0	0	472	511	0	0	
15	0	0	0	0	476	508	0	0	
0	0	0	0	0	476	511	0	0	
1	0	0	0	0	480	512	0	0	
2	0	0	0	0	496	513	0	0	
3	0	0	0	0	504	515	0	0	
4	0	0	0	0	499	510	0	0	
5	0	0	0	0	492	510	0	0	
6	0	0	0	0	487	508	0	0	
7	0	0	0	0	480	508	0	0	
8	0	0	0	0	460	508	0	0	
9	0	0	0	0	455	508	0	0	
10	0	0	0	0	455	508	0	0	
11	0	0	0	0	462	508	0	0	
12	0	0	0	0	480	505	0	0	
13	0	0	0	0	473	511	0	0	
14	0	0	0	0	472	508	0	0	
15	0	0	0	0	472	515	0	0	
0	0	0	0	0	480	513	0	0	
1	0	0	0	0	481	511	0	0	
2	0	0	0	0	476	508	0	0	
3	0	0	0	0	472	510	0	0	
4	0	0	0	0	472	512	0	0	
5	0	0	0	0	476	511	0	0	
6	0	0	0	0	481	508	0	0	
7	0	0	0	0	480	504	0	0	
8	0	0	0	0	476	504	0	0	
9	0	0	0	0	473	508	0	0	
10	0	0	0	0	480	512	0	0	
11	0	0	0	0	480	511	0	0	
12	0	0	0	0	480	508	0	0	
13	0	0	0	0	472	512	0	0	
14	0	0	0	0	476	510	0	0	
15	0	0	0	0	480	508	0	0	
0	0	0	0	0	472	508	0	0	
1	0	0	0	0	472	508	0	0	
2	0	0	0	0	472	511	0	0	
3	0	0	0	0	480	512	0	0	
4	0	0	0	0	483	513	0	0	
5	0	0	0	0	472	511	0	0	
6	0	0	0	0	480	512	0	0	
7	0	0	0	0	487	511	0	0	
8	0	0	0	0	487	508	0	0	
9	0	0	0	0	492	504	0	0	
10	0	0	0	0	496	504	0	0	
11	0	0	0	0	483	504	0	0	
12	0	0	0	0	480	508	0	0	
13	0	0	0	0	473	508	0	0	
14	0	0	0	0	472	510	0	0	
15	0	0	0	0	472	508	0	0	
0	0	0	0	0	463	508	0	0	
1	0	0	0	0	455	508	0	0	
2	0	0	0	0	444	504	0	0	
3	0	0	0	0	444	505	0	0	
4	0	0	0	0	455	513	0	0	
5	0	0	0	0	463	512	0	0	
6	0	0	0	0	463	513	0	0	
7	0	0	0	0	463	512	0	0	
8	0	0	0	0	472	512	0	0	
9	0	0	0	0	480	515	0	0	
10	0	0	0	0	487	513	0	0	
11	0	0	0	0	494	511	0	0	
12	0	0	0	0	496	511	0	0	
13	0	0	0	0	492	508	0	0	
14	0	0	0	0	489	508	0	0	
15	0	0	0	0	496	510	0	0	
0	0	0	0	0	499	508	0	0	
1	0	0	0	0	497	504	0	0	
2	0	0	0	0	487	508	0	0	
3	0	0	0	0	487	511	0	0	
4	0	0	0	0	487	519	0	0	
5	0	0	0	0	480	512	0	0	
6	0	0	0	0	448	511	0	0	
7	0	0	0	0	440	508	0	0	
8	0	0	0	0	451	511	0	0	
9	0	0	0	0	460	513	0	0	
10	0	0	0	0	467	508	0	0	
11	0	0	0	0	463	513	0	0	
12	0	0	0	0	472	508	0	0	
13	0	0	0	0	476	511	0	0	
14	0	0	0	0	483	519	0	0	
15	0	0	0	0	487	511	0	0	
0	0	0	0	0	483	513	0	0	
1	0	0	0	0	487	512	0	0	
2	0	0	0	0	487	508	0	0	
3	0	0	0	0	487	504	0	0	
4	0	0	0	0	494	515	0	0	
5	0	0	0	0	492	512	0	0	
6	0	0	0	0	480	510	0	0	
7	0	0	0	0	472	504	0	0	
8	0	0	0	0	463	505	0	0	
9	0	0	0	0	455	504	0	0	
10	0	0	0	0	463	508	0	0	
11	0	0	0	0	462	510	0	0	
12	0	0	0	0	462	508	0	0	
13	0	0	0	0	463	510	0	0	
14	0	0	0	0	465	515	0	0	
15	0	0	0	0	472	512	0	0	
0	0	0	0	0	472	511	0	0	
1	0	0	0	0	480	511	0	0	
2	0	0	0	0	483	510	0	0	
3	0	0	0	0	487	511	0	0	
4	0	0	0	0	483	510	0	0	
5	0	0	0	0	483	508	0	0	
6	0	0	0	0	496	508	0	0	
7	0	0	0	0	494	508	0	0	
8	0	0	0	0	480	512	0	0	
9	0	0	0	0	472	504	0	0	
10	0	0	0	0	467	504	0	0	
11	0	0	0	0	462	504	0	0	
12	0	0	0	0	462	505	0	0	
13	0	0	0	0	462	508	0	0	
14	0	0	0	0	472	508	0	0	
15	0	0	0	0	472	512	0	0	
0	0	0	0	0	467	511	0	0	
1	0	0	0	0	463	510	0	0	
2	0	0	0	0	463	510	0	0	
3	0	0	0	0	463	511	0	0	
4	0	0	0	0	472	508	0	0	
5	0	0	0	0	476	508	0	0	
6	0	0	0	0	480	510	0	0	
7	0	0	0	0	481	512	0	0	
8	0	0	0	0	483	513	0	0	
9	0	0	0	0	487	511	0	0	
10	0	0	0	0	487	511	0	0	
11	0	0	0	0	487	512	0	0	
12	0	0	0	0	481	511	0	0	
13	0	0	0	0	476	508	0	0	
14	0	0	0	0	472	504	0	0	
15	0	0	0	0	465	508	0	0	
0	0	0	0	0	462	508	0	0	
1	0	0	0	0	463	510	0	0	
2	0	0	0	0	463	504	0	0	
3	0	0	0	0	462	504	0	0	
4	0	0	0	0	460	512	0	0	
5	0	0	0	0	455	512	0	0	
6	0	0	0	0	460	511	0	0	
7	0	0	0	0	472	508	0	0	
8	0	0	0	0	472	510	0	0	
9	0	0	0	0	476	508	0	0	
10	0	0	0	0	483	512	0	0	
11	0	0	0	0	481	511	0	0	
12	0	0	0	0	480	510	0	0	
13	0	0	0	0	476	511	0	0	
14	0	0	0	0	476	512	0	0	
15	0	0	0	0	467	513	0	0	
0	0	0	0	0	472	512	0	0	
1	0	0	0	0	487	511	0	0	
2	0	0	0	0	487	497	0	0	
3	0	0	0	0	472	504	0	0	
4	0	0	0	0	463	511	0	0	
5	0	0	0	0	455	508	0	0	
6	0	0	0	0	460	508	0	0	
7	0	0	0	0	462	504	0	0	
8	0	0	0	0	460	508	0	0	
9	0	0	0	0	451	511	0	0	
10	0	0	0	0	460	511	0	0	
11	0	0	0	0	472	511	0	0	
12	0	0	0	0	480	513	0	0	
13	0	0	0	0	487	515	0	0	
14	0	0	0	0	487	512	0	0	
15	0	0	0	0	487	510	0	0	
0	0	0	0	0	483	512	0	0	
1	0	0	0	0	486	511	0	0	
2	0	0	0	0	487	511	0	0	
3	0	0	0	0	487	513	0	0	
4	0	0	0	0	492	511	0	0	
5	0	0	0	0	483	510	0	0	
6	0	0	0	0	481	504	0	0	
7	0	0	0	0	480	508	0	0	
8	0	0	0	0	467	511	0	0	
9	0	0	0	0	467	508	0	0	
10	0	0	0	0	472	513	0	0	
11	0	0	0	0	465	508	0	0	
12	0	0	0	0	463	508	0	0	
13	0	0	0	0	460	510	0	0	
14	0	0	0	0	463	508	0	0	
15	0	0	0	0	467	513	0	0	
0	0	0	0	0	467	515	0	0	
1	0	0	0	0	476	513	0	0	
2	0	0	0	0	480	513	0	0	
3	0	0	0	0	494	510	0	0	
4	0	0	0	0	496	510	0	0	
5	0	0	0	0	489	508	0	0	
6	0	0	0	0	496	510	0	0	
7	0	0	0	0	496	510	0	0	
8	0	0	0	0	492	508	0	0	
9	0	0	0	0	483	511	0	0	
10	0	0	0	0	478	508	0	0	
11	0	0	0	0	472	504	0	0	
12	0	0	0	0	463	508	0	0	
13	0	0	0	0	462	508	0	0	
14	0	0	0	0	460	508	0	0	
15	0	0	0	0	465	504	0	0	
0	0	0	0	0	465	505	0	0	
1	0	0	0	0	463	508	0	0	
2	0	0	0	0	463	508	0	0	
3	0	0	0	0	472	510	0	0	
4	0	0	0	0	476	515	0	0	
5	0	0	0	0	467	512	0	0	
6	0	0	0	0	463	512	0	0	
7	0	0	0	0	472	512	0	0	
8	0	0	0	0	473	512	0	0	
9	0	0	0	0	472	511	0	0	
10	0	0	0	0	472	512	0	0	
11	0	0	0	0	472	512	0	0	
12	0	0	0	0	486	510	0	0	
13	0	0	0	0	480	508	0	0	
14	0	0	0	0	476	504	0	0	
15	0	0	0	0	476	508	0	0	
0	0	0	0	0	476	505	0	0	
1	0	0	0	0	476	508	0	0	
2	0	0	0	0	472	504	0	0	
3	0	0	0	0	467	504	0	0	
4	0	0	0	0	470	508	0	0	
5	0	0	0	0	463	511	0	0	
6	0	0	0	0	467	512	0	0	
7	0	0	0	0	472	511	0	0	
8	0	0	0	0	480	508	0	0	
9	0	0	0	0	486	511	0	0	
10	0	0	0	0	487	515	0	0	
11	0	0	0	0	492	518	0	0	
12	0	0	0	0	487	511	0	0	
13	0	0	0	0	483	508	0	0	
14	0	0	0	0	481	512	0	0	
15	0	0	0	0	480	512	0	0	
0	0	0	0	0	472	508	0	0	
1	0	0	0	0	478	510	0	0	
2	0	0	0	0	476	510	0	0	
3	0	0	0	0	476	504	0	0	
4	0	0	0	0	476	504	0	0	
5	0	0	0	0	472	512	0	0	
6	0	0	0	0	463	504	0	0	
7	0	0	0	0	455	508	0	0	
8	0	0	0	0	463	508	0	0	
9	0	0	0	0	463	511	0	0	
10	0	0	0	0	463	512	0	0	
11	0	0	0	0	472	508	0	0	
12	0	0	0	0	467	508	0	0	
13	0	0	0	0	472	504	0	0	
14	0	0	0	0	480	515	0	0	
15	0	0	0	0	480	512	0	0	
0	0	0	0	0	473	504	0	0	
1	0	0	0	0	481	524	0	0	
2	0	0	0	0	480	519	0	0	
3	0	0	0	0	472	513	0	0	
4	0	0	0	0	476	512	0	0	
5	0	0	0	0	483	504	0	0	
6	0	0	0	0	483	497	0	0	
7	0	0	0	0	480	504	0	0	
8	0	0	0	0	476	511	0	0	
9	0	0	0	0	467	504	0	0	
10	0	0	0	0	463	508	0	0	
11	0	0	0	0	472	504	0	0	
12	0	0	0	0	463	504	0	0	
13	0	0	0	0	455	508	0	0	
14	0	0	0	0	449	511	0	0	
15	0	0	0	0	455	513	0	0	
0	0	0	0	0	455	511	0	0	
1	0	0	0	0	467	511	0	0	
2	0	0	0	0	476	512	0	0	
3	0	0	0	0	483	511	0	0	
4	0	0	0	0	487	510	0	0	
5	0	0	0	0	492	511	0	0	
6	0	0	0	0	504	511	0	0	
7	0	0	0	0	496	510	0	0	
8	0	0	0	0	492	508	0	0	
9	0	0	0	0	483	510	0	0	
10	0	0	0	0	480	510	0	0	
11	0	0	0	0	476	508	0	0	
12	0	0	0	0	472	505	0	0	
13	0	0	0	0	467	512	0	0	
14	0	0	0	0	472	510	0	0	
15	0	0	0	0	472	508	0	0	
0	0	0	0	0	472	508	0	0	
1	0	0	0	0	467	508	0	0	
2	0	0	0	0	467	510	0	0	
3	0	0	0	0	465	511	0	0	
4	0	0	0	0	472	512	0	0	
5	0	0	0	0	476	512	0	0	
6	0	0	0	0	481	511	0	0	
7	0	0	0	0	487	512	0	0	
8	0	0	0	0	496	513	0	0	
9	0	0	0	0	487	512	0	0	
10	0	0	0	0	486	510	0	0	
11	0	0	0	0	487	510	0	0	
12	0	0	0	0	483	508	0	0	
13	0	0	0	0	480	508	0	0	
14	0	0	0	0	476	508	0	0	
15	0	0	0	0	470	508	0	0	
0	0	0	0	0	467	510	0	0	
1	0	0	0	0	472	510	0	0	
2	0	0	0	0	470	512	0	0	
3	0	0	0	0	467	508	0	0	
4	0	0	0	0	467	508	0	0	
5	0	0	0	0	472	504	0	0	
6	0	0	0	0	472	512	0	0	
7	0	0	0	0	472	511	0	0	
8	0	0	0	0	472	512	0	0	
9	0	0	0	0	483	512	0	0	
10	0	0	0	0	496	508	0	0	
11	0	0	0	0	492	505	0	0	
12	0	0	0	0	492	513	0	0	
13	0	0	0	0	487	512	0	0	
14	0	0	0	0	483	508	0	0	
15	0	0	0	0	480	511	0	0	
0	0	0	0	0	463	505	0	0	
1	0	0	0	0	440	510	0	0	
2	0	0	0	0	454	510	0	0	
3	0	0	0	0	476	508	0	0	
4	0	0	0	0	476	511	0	0	
5	0	0	0	0	473	505	0	0	
6	0	0	0	0	472	505	0	0	
7	0	0	0	0	472	504	0	0	
8	0	0	0	0	472	508	0	0	
9	0	0	0	0	467	508	0	0	
10	0	0	0	0	462	508	0	0	
11	0	0	0	0	455	519	0	0	
12	0	0	0	0	463	512	0	0	
13	0	0	0	0	483	511	0	0	
14	0	0	0	0	487	508	0	0	
15	0	0	0	0	480	511	0	0	
0	0	0	0	0	480	510	0	0	
1	0	0	0	0	483	512	0	0	
2	0	0	0	0	492	513	0	0	
3	0	0	0	0	489	515	0	0	
4	0	0	0	0	492	510	0	0	
5	0	0	0	0	483	504	0	0	
6	0	0	0	0	480	504	0	0	
7	0	0	0	0	478	504	0	0	
8	0	0	0	0	480	510	0	0	
9	0	0	0	0	478	512	0	0	
10	0	0	0	0	472	505	0	0	
11	0	0	0	0	460	508	0	0	
12	0	0	0	0	460	508	0	0	
13	0	0	0	0	462	508	0	0	
14	0	0	0	0	463	508	0	0	
15	0	0	0	0	472	508	0	0	
0	0	0	0	0	476	511	0	0	
1	0	0	0	0	478	515	0	0	
2	0	0	0	0	480	512	0	0	
3	0	0	0	0	480	513	0	0	
4	0	0	0	0	480	511	0	0	
5	0	0	0	0	487	512	0	0	
6	0	0	0	0	483	512	0	0	
7	0	0	0	0	487	512	0	0	
8	0	0	0	0	487	511	0	0	
9	0	0	0	0	486	510	0	0	
10	0	0	0	0	480	508	0	0	
11	0	0	0	0	473	508	0	0	
12	0	0	0	0	476	508	0	0	
13	0	0	0	0	472	511	0	0	
14	0	0	0	0	460	504	0	0	
15	0	0	0	0	462	504	0	0	
0	0	0	0	0	463	508	0	0	
1	0	0	0	0	472	511	0	0	
2	0	0	0	0	473	510	0	0	
3	0	0	0	0	476	510	0	0	
4	0	0	0	0	481	510	0	0	
5	0	0	0	0	480	512	0	0	
6	0	0	0	0	480	513	0	0	
7	0	0	0	0	472	513	0	0	
8	0	0	0	0	472	511	0	0	
9	0	0	0	0	467	510	0	0	
10	0	0	0	0	476	510	0	0	
11	0	0	0	0	487	512	0	0	
12	0	0	0	0	494	511	0	0	
13	0	0	0	0	494	508	0	0	
14	0	0	0	0	494	508	0	0	
15	0	0	0	0	481	508	0	0	
0	0	0	0	0	481	504	0	0	
1	0	0	0	0	480	511	0	0	
2	0	0	0	0	480	508	0	0	
3	0	0	0	0	483	508	0	0	
4	0	0	0	0	480	510	0	0	
5	0	0	0	0	467	508	0	0	
6	0	0	0	0	451	508	0	0	
7	0	0	0	0	455	512	0	0	
8	0	0	0	0	463	512	0	0	
9	0	0	0	0	480	512	0	0	
10	0	0	0	0	480	515	0	0	
11	0	0	0	0	480	512	0	0	
12	0	0	0	0	483	510	0	0	
13	0	0	0	0	472	511	0	0	
14	0	0	0	0	463	510	0	0	
15	0	0	0	0	463	510	0	0	
0	0	0	0	0	467	508	0	0	
1	0	0	0	0	472	505	0	0	
2	0	0	0	0	480	504	0	0	
3	0	0	0	0	472	504	0	0	
4	0	0	0	0	460	511	0	0	
5	0	0	0	0	455	510	0	0	
6	0	0	0	0	460	511	0	0	
7	0	0	0	0	455	511	0	0	
8	0	0	0	0	460	510	0	0	
9	0	0	0	0	467	508	0	0	
10	0	0	0	0	476	511	0	0	
11	0	0	0	0	483	511	0	0	
12	0	0	0	0	483	511	0	0	
13	0	0	0	0	487	512	0	0	
14	0	0	0	0	483	515	0	0	
15	0	0	0	0	487	513	0	0	
0	0	0	0	0	492	512	0	0	
1	0	0	0	0	492	510	0	0	
2	0	0	0	0	487	511	0	0	
3	0	0	0	0	487	511	0	0	
4	0	0	0	0	487	510	0	0	
5	0	0	0	0	481	510	0	0	
6	0	0	0	0	476	508	0	0	
7	0	0	0	0	465	504	0	0	
8	0	0	0	0	463	499	0	0	
9	0	0	0	0	463	510	0	0	
10	0	0	0	0	462	504	0	0	
11	0	0	0	0	463	508	0	0	
12	0	0	0	0	462	512	0	0	
13	0	0	0	0	472	512	0	0	
14	0	0	0	0	463	505	0	0	
15	0	0	0	0	460	511	0	0	
0	0	0	0	0	467	513	0	0	
1	0	0	0	0	472	515	0	0	
2	0	0	0	0	465	511	0	0	
3	0	0	0	0	476	508	0	0	
4	0	0	0	0	494	499	0	0	
5	0	0	0	0	499	511	0	0	
6	0	0	0	0	496	518	0	0	
7	0	0	0	0	496	512	0	0	
8	0	0	0	0	504	512	0	0	
9	0	0	0	0	499	511	0	0	
10	0	0	0	0	492	508	0	0	
11	0	0	0	0	473	510	0	0	
12	0	0	0	0	451	512	0	0	
13	0	0	0	0	448	510	0	0	
14	0	0	0	0	451	511	0	0	
15	0	0	0	0	455	510	0	0	
0	0	0	0	0	455	504	0	0	
1	0	0	0	0	454	505	0	0	
2	0	0	0	0	460	504	0	0	
3	0	0	0	0	465	508	0	0	
4	0	0	0	0	476	511	0	0	
5	0	0	0	0	486	513	0	0	
6	0	0	0	0	483	511	0	0	
7	0	0	0	0	496	504	0	0	
8	0	0	0	0	499	504	0	0	
9	0	0	0	0	496	508	0	0	
10	0	0	0	0	487	510	0	0	
11	0	0	0	0	481	510	0	0	
12	0	0	0	0	480	508	0	0	
13	0	0	0	0	473	511	0	0	
14	0	0	0	0	465	508	0	0	
15	0	0	0	0	472	508	0	0	
0	0	0	0	0	463	511	0	0	
1	0	0	0	0	463	508	0	0	
2	0	0	0	0	463	511	0	0	
3	0	0	0	0	472	508	0	0	
4	0	0	0	0	463	511	0	0	
5	0	0	0	0	463	513	0	0	
6	0	0	0	0	480	511	0	0	
7	0	0	0	0	483	512	0	0	
8	0	0	0	0	489	510	0	0	
9	0	0	0	0	492	510	0	0	
10	0	0	0	0	481	510	0	0	
11	0	0	0	0	465	508	0	0	
12	0	0	0	0	467	508	0	0	
13	0	0	0	0	455	511	0	0	
14	0	0	0	0	460	513	0	0	
15	0	0	0	0	476	511	0	0	
0	0	0	0	0	480	512	0	0	
1	0	0	0	0	481	504	0	0	
2	0	0	0	0	480	508	0	0	
3	0	0	0	0	476	508	0	0	
4	0	0	0	0	472	505	0	0	
5	0	0	0	0	467	504	0	0	
6	0	0	0	0	463	508	0	0	
7	0	0	0	0	462	508	0	0	
8	0	0	0	0	463	508	0	0	
9	0	0	0	0	472	508	0	0	
10	0	0	0	0	480	511	0	0	
11	0	0	0	0	486	508	0	0	
12	0	0	0	0	487	511	0	0	
13	0	0	0	0	487	512	0	0	
14	0	0	0	0	480	512	0	0	
15	0	0	0	0	480	512	0	0	
0	0	0	0	0	476	508	0	0	
1	0	0	0	0	472	510	0	0	
2	0	0	0	0	472	511	0	0	
3	0	0	0	0	486	512	0	0	
4	0	0	0	0	492	510	0	0	
5	0	0	0	0	494	508	0	0	
6	0	0	0	0	487	508	0	0	
7	0	0	0	0	480	510	0	0	
8	0	0	0	0	465	508	0	0	
9	0	0	0	0	455	510	0	0	
10	0	0	0	0	455	510	0	0	
11	0	0	0	0	455	508	0	0	
12	0	0	0	0	463	508	0	0	
13	0	0	0	0	463	510	0	0	
14	0	0	0	0	460	511	0	0	
15	0	0	0	0	470	511	0	0	
0	0	0	0	0	480	511	0	0	
1	0	0	0	0	472	512	0	0	
2	0	0	0	0	465	512	0	0	
3	0	0	0	0	473	510	0	0	
4	0	0	0	0	480	511	0	0	
5	0	0	0	0	481	511	0	0	
6	0	0	0	0	480	508	0	0	
7	0	0	0	0	483	508	0	0	
8	0	0	0	0	483	508	0	0	
9	0	0	0	0	480	505	0	0	
10	0	0	0	0	483	508	0	0	
11	0	0	0	0	483	508	0	0	
12	0	0	0	0	480	508	0	0	
13	0	0	0	0	472	512	0	0	
14	0	0	0	0	472	510	0	0	
15	0	0	0	0	465	510	0	0	
0	0	0	0	0	462	511	0	0	
1	0	0	0	0	455	510	0	0	
2	0	0	0	0	455	508	0	0	
3	0	0	0	0	465	504	0	0	
4	0	0	0	0	472	508	0	0	
5	0	0	0	0	480	510	0	0	
6	0	0	0	0	483	510	0	0	
7	0	0	0	0	483	508	0	0	
8	0	0	0	0	487	511	0	0	
9	0	0	0	0	483	513	0	0	
10	0	0	0	0	472	512	0	0	
11	0	0	0	0	467	511	0	0	
12	0	0	0	0	465	512	0	0	
13	0	0	0	0	476	510	0	0	
14	0	0	0	0	480	511	0	0	
15	0	0	0	0	480	510	0	0	
0	0	0	0	0	480	504	0	0	
1	0	0	0	0	472	510	0	0	
2	0	0	0	0	467	505	0	0	
3	0	0	0	0	472	508	0	0	
4	0	0	0	0	467	515	0	0	
5	0	0	0	0	476	510	0	0	
6	0	0	0	0	472	513	0	0	
7	0	0	0	0	463	510	0	0	
8	0	0	0	0	460	511	0	0	
9	0	0	0	0	448	511	0	0	
10	0	0	0	0	448	510	0	0	
11	0	0	0	0	465	519	0	0	
12	0	0	0	0	487	511	0	0	
13	0	0	0	0	504	513	0	0	
14	0	0	0	0	499	511	0	0	
15	0	0	0	0	496	511	0	0	
0	0	0	0	0	494	510	0	0	
1	0	0	0	0	480	510	0	0	
2	0	0	0	0	472	504	0	0	
3	0	0	0	0	463	504	0	0	
4	0	0	0	0	463	504	0	0	
5	0	0	0	0	476	505	0	0	
6	0	0	0	0	483	505	0	0	
7	0	0	0	0	476	504	0	0	
8	0	0	0	0	467	504	0	0	
9	0	0	0	0	472	504	0	0	
10	0	0	0	0	473	512	0	0	
11	0	0	0	0	465	510	0	0	
12	0	0	0	0	472	510	0	0	
13	0	0	0	0	472	511	0	0	
14	0	0	0	0	476	511	0	0	
15	0	0	0	0	480	512	0	0	
0	0	0	0	0	480	511	0	0	
1	0	0	0	0	480	511	0	0	
2	0	0	0	0	476	511	0	0	
3	0	0	0	0	480	511	0	0	
4	0	0	0	0	489	510	0	0	
5	0	0	0	0	487	510	0	0	
6	0	0	0	0	480	511	0	0	
7	0	0	0	0	487	511	0	0	
8	0	0	0	0	483	508	0	0	
9	0	0	0	0	480	504	0	0	
10	0	0	0	0	472	508	0	0	
11	0	0	0	0	467	504	0	0	
12	0	0	0	0	460	510	0	0	
13	0	0	0	0	455	513	0	0	
14	0	0	0	0	460	511	0	0	
15	0	0	0	0	463	515	0	0	
0	0	0	0	0	472	515	0	0	
1	0	0	0	0	473	513	0	0	
2	0	0	0	0	476	512	0	0	
3	0	0	0	0	480	510	0	0	
4	0	0	0	0	483	511	0	0	
5	0	0	0	0	483	512	0	0	
6	0	0	0	0	483	511	0	0	
7	0	0	0	0	487	510	0	0	
8	0	0	0	0	487	505	0	0	
9	0	0	0	0	487	504	0	0	
10	0	0	0	0	480	499	0	0	
11	0	0	0	0	476	504	0	0	
12	0	0	0	0	472	508	0	0	
13	0	0	0	0	465	504	0	0	
14	0	0	0	0	465	511	0	0	
15	0	0	0	0	463	515	0	0	
0	0	0	0	0	465	513	0	0	
1	0	0	0	0	463	513	0	0	
2	0	0	0	0	462	508	0	0	
3	0	0	0	0	467	510	0	0	
4	0	0	0	0	478	508	0	0	
5	0	0	0	0	476	508	0	0	
6	0	0	0	0	483	508	0	0	
7	0	0	0	0	496	510	0	0	
8	0	0	0	0	504	511	0	0	
9	0	0	0	0	510	513	0	0	
10	0	0	0	0	504	512	0	0	
11	0	0	0	0	492	504	0	0	
12	0	0	0	0	486	508	0	0	
13	0	0	0	0	472	510	0	0	
14	0	0	0	0	472	508	0	0	
15	0	0	0	0	463	508	0	0	
0	0	0	0	0	448	504	0	0	
1	0	0	0	0	440	511	0	0	
2	0	0	0	0	435	496	0	0	
3	0	0	0	0	441	512	0	0	
4	0	0	0	0	455	518	0	0	
5	0	0	0	0	472	511	0	0	
6	0	0	0	0	470	508	0	0	
7	0	0	0	0	455	511	0	0	
8	0	0	0	0	467	512	0	0	
9	0	0	0	0	487	512	0	0	
10	0	0	0	0	497	512	0	0	
11	0	0	0	0	489	511	0	0	
12	0	0	0	0	487	512	0	0	
13	0	0	0	0	487	511	0	0	
14	0	0	0	0	492	510	0	0	
15	0	0	0	0	494	511	0	0	
0	0	0	0	0	494	508	0	0	
1	0	0	0	0	492	505	0	0	
2	0	0	0	0	487	510	0	0	
3	0	0	0	0	481	505	0	0	
4	0	0	0	0	481	508	0	0	
5	0	0	0	0	483	508	0	0	
6	0	0	0	0	476	511	0	0	
7	0	0	0	0	463	508	0	0	
8	0	0	0	0	463	508	0	0	
9	0	0	0	0	451	511	0	0	
10	0	0	0	0	448	512	0	0	
11	0	0	0	0	455	512	0	0	
12	0	0	0	0	463	508	0	0	
13	0	0	0	0	472	511	0	0	
14	0	0	0	0	478	511	0	0	
15	0	0	0	0	480	511	0	0	
0	0	0	0	0	487	511	0	0	
1	0	0	0	0	487	511	0	0	
2	0	0	0	0	487	510	0	0	
3	0	0	0	0	480	510	0	0	
4	0	0	0	0	480	510	0	0	
5	0	0	0	0	480	513	0	0	
6	0	0	0	0	478	508	0	0	
7	0	0	0	0	467	508	0	0	
8	0	0	0	0	455	510	0	0	
9	0	0	0	0	455	510	0	0	
10	0	0	0	0	455	505	0	0	
11	0	0	0	0	455	505	0	0	
12	0	0	0	0	463	508	0	0	
13	0	0	0	0	476	511	0	0	
14	0	0	0	0	480	510	0	0	
15	0	0	0	0	481	508	0	0	
0	0	0	0	0	487	504	0	0	
1	0	0	0	0	483	508	0	0	
2	0	0	0	0	487	508	0	0	
3	0	0	0	0	492	515	0	0	
4	0	0	0	0	492	512	0	0	
5	0	0	0	0	496	511	0	0	
6	0	0	0	0	483	515	0	0	
7	0	0	0	0	480	511	0	0	
8	0	0	0	0	476	510	0	0	
9	0	0	0	0	472	510	0	0	
10	0	0	0	0	467	508	0	0	
11	0	0	0	0	455	508	0	0	
12	0	0	0	0	449	508	0	0	
13	0	0	0	0	451	508	0	0	
14	0	0	0	0	455	511	0	0	
15	0	0	0	0	463	510	0	0	
0	0	0	0	0	463	508	0	0	
1	0	0	0	0	460	508	0	0	
2	0	0	0	0	465	508	0	0	
3	0	0	0	0	476	515	0	0	
4	0	0	0	0	481	512	0	0	
5	0	0	0	0	487	512	0	0	
6	0	0	0	0	481	519	0	0	
7	0	0	0	0	480	513	0	0	
8	0	0	0	0	480	512	0	0	
9	0	0	0	0	476	504	0	0	
10	0	0	0	0	476	504	0	0	
11	0	0	0	0	472	511	0	0	
12	0	0	0	0	476	511	0	0	
13	0	0	0	0	480	508	0	0	
14	0	0	0	0	480	504	0	0	
15	0	0	0	0	476	504	0	0	
0	0	0	0	0	472	508	0	0	
1	0	0	0	0	465	504	0	0	
2	0	0	0	0	462	511	0	0	
3	0	0	0	0	467	510	0	0	
4	0	0	0	0	463	510	0	0	
5	0	0	0	0	467	508	0	0	
6	0	0	0	0	467	508	0	0	
7	0	0	0	0	472	510	0	0	
8	0	0	0	0	467	512	0	0	
9	0	0	0	0	478	511	0	0	
10	0	0	0	0	481	510	0	0	
11	0	0	0	0	486	512	0	0	
12	0	0	0	0	487	512	0	0	
13	0	0	0	0	487	511	0	0	
14	0	0	0	0	494	512	0	0	
15	0	0	0	0	487	515	0	0	
0	0	0	0	0	487	510	0	0	
1	0	0	0	0	476	508	0	0	
2	0	0	0	0	465	504	0	0	
3	0	0	0	0	463	504	0	0	
4	0	0	0	0	463	504	0	0	
5	0	0	0	0	463	510	0	0	
6	0	0	0	0	467	510	0	0	
7	0	0	0	0	476	505	0	0	
8	0	0	0	0	480	508	0	0	
9	0	0	0	0	472	510	0	0	
10	0	0	0	0	472	510	0	0	
11	0	0	0	0	473	515	0	0	
12	0	0	0	0	476	519	0	0	
13	0	0	0	0	480	519	0	0	
14	0	0	0	0	476	519	0	0	
15	0	0	0	0	472	512	0	0	
0	0	0	0	0	476	508	0	0	
1	0	0	0	0	483	504	0	0	
2	0	0	0	0	487	512	0	0	
3	0	0	0	0	483	512	0	0	
4	0	0	0	0	480	505	0	0	
5	0	0	0	0	463	510	0	0	
6	0	0	0	0	463	510	0	0	
7	0	0	0	0	463	511	0	0	
8	0	0	0	0	460	508	0	0	
9	0	0	0	0	449	508	0	0	
10	0	0	0	0	455	504	0	0	
11	0	0	0	0	460	504	0	0	
12	0	0	0	0	460	504	0	0	
13	0	0	0	0	472	504	0	0	
14	0	0	0	0	472	504	0	0	
15	0	0	0	0	472	512	0	0	
0	0	0	0	0	478	513	0	0	
1	0	0	0	0	481	515	0	0	
2	0	0	0	0	487	519	0	0	
3	0	0	0	0	496	512	0	0	
4	0	0	0	0	487	511	0	0	
5	0	0	0	0	487	513	0	0	
6	0	0	0	0	487	513	0	0	
7	0	0	0	0	494	504	0	0	
8	0	0	0	0	496	504	0	0	
9	0	0	0	0	487	508	0	0	
10	0	0	0	0	487	504	0	0	
11	0	0	0	0	481	508	0	0	
12	0	0	0	0	476	510	0	0	
13	0	0	0	0	465	504	0	0	
14	0	0	0	0	460	504	0	0	
15	0	0	0	0	462	510	0	0	
0	0	0	0	0	455	508	0	0	
1	0	0	0	0	462	511	0	0	
2	0	0	0	0	467	511	0	0	
3	0	0	0	0	472	512	0	0	
4	0	0	0	0	478	510	0	0	
5	0	0	0	0	480	511	0	0	
6	0	0	0	0	480	508	0	0	
7	0	0	0	0	486	508	0	0	
8	0	0	0	0	489	512	0	0	
9	0	0	0	0	494	511	0	0	
10	0	0	0	0	487	510	0	0	
11	0	0	0	0	487	508	0	0	
12	0	0	0	0	492	504	0	0	
13	0	0	0	0	486	504	0	0	
14	0	0	0	0	486	505	0	0	
15	0	0	0	0	492	510	0	0	
0	0	0	0	0	480	508	0	0	
1	0	0	0	0	472	508	0	0	
2	0	0	0	0	465	508	0	0	
3	0	0	0	0	463	510	0	0	
4	0	0	0	0	463	511	0	0	
5	0	0	0	0	462	511	0	0	
6	0	0	0	0	460	510	0	0	
7	0	0	0	0	465	510	0	0	
8	0	0	0	0	473	508	0	0	
9	0	0	0	0	480	510	0	0	
10	0	0	0	0	472	512	0	0	
11	0	0	0	0	472	513	0	0	
12	0	0	0	0	476	511	0	0	
13	0	0	0	0	486	518	0	0	
14	0	0	0	0	487	512	0	0	
15	0	0	0	0	487	511	0	0	
0	0	0	0	0	487	511	0	0	
1	0	0	0	0	480	508	0	0	
2	0	0	0	0	476	504	0	0	
3	0	0	0	0	480	510	0	0	
4	0	0	0	0	476	511	0	0	
5	0	0	0	0	467	508	0	0	
6	0	0	0	0	451	504	0	0	
7	0	0	0	0	451	505	0	0	
8	0	0	0	0	455	511	0	0	
9	0	0	0	0	448	510	0	0	
10	0	0	0	0	455	511	0	0	
11	0	0	0	0	480	512	0	0	
12	0	0	0	0	492	512	0	0	
13	0	0	0	0	487	515	0	0	
14	0	0	0	0	487	511	0	0	
15	0	0	0	0	489	508	0	0	
0	0	0	0	0	487	504	0	0	
1	0	0	0	0	480	497	0	0	
2	0	0	0	0	480	504	0	0	
3	0	0	0	0	487	515	0	0	
4	0	0	0	0	492	513	0	0	
5	0	0	0	0	481	510	0	0	
6	0	0	0	0	470	511	0	0	
7	0	0	0	0	472	511	0	0	
8	0	0	0	0	462	512	0	0	
9	0	0	0	0	455	508	0	0	
10	0	0	0	0	455	504	0	0	
11	0	0	0	0	455	505	0	0	
12	0	0	0	0	462	508	0	0	
13	0	0	0	0	476	511	0	0	
14	0	0	0	0	480	518	0	0	
15	0	0	0	0	476	511	0	0	
0	0	0	0	0	476	511	0	0	
1	0	0	0	0	480	512	0	0	
2	0	0	0	0	481	512	0	0	
3	0	0	0	0	478	508	0	0	
4	0	0	0	0	480	504	0	0	
5	0	0	0	0	481	508	0	0	
6	0	0	0	0	483	512	0	0	
7	0	0	0	0	483	512	0	0	
8	0	0	0	0	486	510	0	0	
9	0	0	0	0	481	504	0	0	
10	0	0	0	0	480	504	0	0	
11	0	0	0	0	472	508	0	0	
12	0	0	0	0	472	504	0	0	
13	0	0	0	0	467	513	0	0	
14	0	0	0	0	463	511	0	0	
15	0	0	0	0	465	508	0	0	
0	0	0	0	0	463	504	0	0	
1	0	0	0	0	463	508	0	0	
2	0	0	0	0	463	511	0	0	
3	0	0	0	0	467	511	0	0	
4	0	0	0	0	472	511	0	0	
5	0	0	0	0	476	515	0	0	
6	0	0	0	0	480	512	0	0	
7	0	0	0	0	483	512	0	0	
8	0	0	0	0	487	512	0	0	
9	0	0	0	0	492	511	0	0	
10	0	0	0	0	487	508	0	0	
11	0	0	0	0	487	508	0	0	
12	0	0	0	0	480	505	0	0	
13	0	0	0	0	472	511	0	0	
14	0	0	0	0	472	511	0	0	
15	0	0	0	0	472	508	0	0	
0	0	0	0	0	472	508	0	0	
1	0	0	0	0	467	505	0	0	
2	0	0	0	0	463	508	0	0	
3	0	0	0	0	463	511	0	0	
4	0	0	0	0	463	508	0	0	
5	0	0	0	0	467	510	0	0	
6	0	0	0	0	465	510	0	0	
7	0	0	0	0	472	510	0	0	
8	0	0	0	0	472	508	0	0	
9	0	0	0	0	476	511	0	0	
10	0	0	0	0	476	511	0	0	
11	0	0	0	0	480	513	0	0	
12	0	0	0	0	480	510	0	0	
13	0	0	0	0	481	510	0	0	
14	0	0	0	0	480	508	0	0	
15	0	0	0	0	483	508	0	0	
0	0	0	0	0	487	510	0	0	
1	0	0	0	0	487	508	0	0	
2	0	0	0	0	487	504	0	0	
3	0	0	0	0	480	508	0	0	
4	0	0	0	0	467	510	0	0	
5	0	0	0	0	472	510	0	0	
6	0	0	0	0	463	508	0	0	
7	0	0	0	0	455	504	0	0	
8	0	0	0	0	455	508	0	0	
9	0	0	0	0	467	510	0	0	
10	0	0	0	0	472	512	0	0	
11	0	0	0	0	476	515	0	0	
12	0	0	0	0	480	513	0	0	
13	0	0	0	0	480	512	0	0	
14	0	0	0	0	473	511	0	0	
15	0	0	0	0	487	512	0	0	
0	0	0	0	0	494	511	0	0	
1	0	0	0	0	483	508	0	0	
2	0	0	0	0	486	512	0	0	
3	0	0	0	0	483	515	0	0	
4	0	0	0	0	481	510	0	0	
5	0	0	0	0	480	513	0	0	
6	0	0	0	0	465	508	0	0	
7	0	0	0	0	470	508	0	0	
8	0	0	0	0	472	510	0	0	
9	0	0	0	0	483	504	0	0	
10	0	0	0	0	486	513	0	0	
11	0	0	0	0	480	508	0	0	
12	0	0	0	0	480	504	0	0	
13	0	0	0	0	470	508	0	0	
14	0	0	0	0	463	508	0	0	
15	0	0	0	0	448	512	0	0	
0	0	0	0	0	440	508	0	0	
1	0	0	0	0	455	524	0	0	
2	0	0	0	0	476	524	0	0	
3	0	0	0	0	487	515	0	0	
4	0	0	0	0	487	511	0	0	
5	0	0	0	0	480	504	0	0	
6	0	0	0	0	480	504	0	0	
7	0	0	0	0	483	504	0	0	
8	0	0	0	0	494	508	0	0	
9	0	0	0	0	486	508	0	0	
10	0	0	0	0	467	512	0	0	
11	0	0	0	0	467	515	0	0	
12	0	0	0	0	463	511	0	0	
13	0	0	0	0	463	508	0	0	
14	0	0	0	0	460	504	0	0	
15	0	0	0	0	465	504	0	0	
0	0	0	0	0	480	510	0	0	
1	0	0	0	0	476	505	0	0	
2	0	0	0	0	463	508	0	0	
3	0	0	0	0	467	504	0	0	
4	0	0	0	0	476	504	0	0	
5	0	0	0	0	483	508	0	0	
6	0	0	0	0	483	515	0	0	
7	0	0	0	0	494	511	0	0	
8	0	0	0	0	496	511	0	0	
9	0	0	0	0	492	512	0	0	
10	0	0	0	0	487	515	0	0	
11	0	0	0	0	487	508	0	0	
12	0	0	0	0	483	513	0	0	
13	0	0	0	0	476	504	0	0	
14	0	0	0	0	472	504	0	0	
15	0	0	0	0	463	510	0	0	
0	0	0	0	0	472	510	0	0	
1	0	0	0	0	476	508	0	0	
2	0	0	0	0	463	508	0	0	
3	0	0	0	0	460	508	0	0	
4	0	0	0	0	463	511	0	0	
5	0	0	0	0	463	511	0	0	
6	0	0	0	0	463	512	0	0	
7	0	0	0	0	463	512	0	0	
8	0	0	0	0	463	508	0	0	
9	0	0	0	0	467	510	0	0	
10	0	0	0	0	487	510	0	0	
11	0	0	0	0	492	518	0	0	
12	0	0	0	0	487	504	0	0	
13	0	0	0	0	487	510	0	0	
14	0	0	0	0	487	511	0	0	
15	0	0	0	0	487	511	0	0	
0	0	0	0	0	480	505	0	0	
1	0	0	0	0	478	505	0	0	
2	0	0	0	0	476	504	0	0	
3	0	0	0	0	472	504	0	0	
4	0	0	0	0	472	510	0	0	
5	0	0	0	0	472	512	0	0	
6	0	0	0	0	462	511	0	0	
7	0	0	0	0	462	510	0	0	
8	0	0	0	0	465	508	0	0	
9	0	0	0	0	467	511	0	0	
10	0	0	0	0	465	511	0	0	
11	0	0	0	0	480	504	0	0	
12	0	0	0	0	476	508	0	0	
13	0	0	0	0	480	510	0	0	
14	0	0	0	0	496	510	0	0	
15	0	0	0	0	499	519	0	0	
0	0	0	0	0	504	511	0	0	
1	0	0	0	0	499	512	0	0	
2	0	0	0	0	496	511	0	0	
3	0	0	0	0	487	508	0	0	
4	0	0	0	0	476	505	0	0	
5	0	0	0	0	460	510	0	0	
6	0	0	0	0	448	504	0	0	
7	0	0	0	0	448	508	0	0	
8	0	0	0	0	451	508	0	0	
9	0	0	0	0	455	508	0	0	
10	0	0	0	0	462	508	0	0	
11	0	0	0	0	467	504	0	0	
12	0	0	0	0	472	510	0	0	
13	0	0	0	0	472	512	0	0	
14	0	0	0	0	472	510	0	0	
15	0	0	0	0	478	512	0	0	
0	0	0	0	0	472	508	0	0	
1	0	0	0	0	476	519	0	0	
2	0	0	0	0	480	524	0	0	
3	0	0	0	0	480	512	0	0	
4	0	0	0	0	480	511	0	0	
5	0	0	0	0	480	508	0	0	
6	0	0	0	0	480	511	0	0	
7	0	0	0	0	480	511	0	0	
8	0	0	0	0	480	508	0	0	
9	0	0	0	0	480	508	0	0	
10	0	0	0	0	480	504	0	0	
11	0	0	0	0	480	504	0	0	
12	0	0	0	0	476	504	0	0	
13	0	0	0	0	467	510	0	0	
14	0	0	0	0	465	508	0	0	
15	0	0	0	0	463	504	0	0	
0	0	0	0	0	463	508	0	0	
1	0	0	0	0	467	512	0	0	
2	0	0	0	0	463	511	0	0	
3	0	0	0	0	472	512	0	0	
4	0	0	0	0	481	512	0	0	
5	0	0	0	0	481	512	0	0	
6	0	0	0	0	476	512	0	0	
7	0	0	0	0	467	511	0	0	
8	0	0	0	0	473	511	0	0	
9	0	0	0	0	480	512	0	0	
10	0	0	0	0	480	513	0	0	
11	0	0	0	0	483	508	0	0	
12	0	0	0	0	496	508	0	0	
13	0	0	0	0	504	508	0	0	
14	0	0	0	0	496	512	0	0	
15	0	0	0	0	481	505	0	0	
0	0	0	0	0	473	512	0	0	
1	0	0	0	0	472	511	0	0	
2	0	0	0	0	455	508	0	0	
3	0	0	0	0	451	504	0	0	
4	0	0	0	0	451	510	0	0	
5	0	0	0	0	444	508	0	0	
6	0	0	0	0	455	504	0	0	
7	0	0	0	0	472	504	0	0	
8	0	0	0	0	467	508	0	0	
9	0	0	0	0	455	512	0	0	
10	0	0	0	0	472	511	0	0	
11	0	0	0	0	483	512	0	0	
12	0	0	0	0	483	510	0	0	
13	0	0	0	0	486	512	0	0	
14	0	0	0	0	486	515	0	0	
15	0	0	0	0	496	513	0	0	
0	0	0	0	0	487	515	0	0	
1	0	0	0	0	483	510	0	0	
2	0	0	0	0	480	504	0	0	
3	0	0	0	0	476	504	0	0	
4	0	0	0	0	472	504	0	0	
5	0	0	0	0	472	504	0	0	
6	0	0	0	0	472	504	0	0	
7	0	0	0	0	467	504	0	0	
8	0	0	0	0	465	511	0	0	
9	0	0	0	0	455	513	0	0	
10	0	0	0	0	460	512	0	0	
11	0	0	0	0	480	511	0	0	
12	0	0	0	0	481	510	0	0	
13	0	0	0	0	480	510	0	0	
14	0	0	0	0	478	511	0	0	
15	0	0	0	0	480	511	0	0	
0	0	0	0	0	476	510	0	0	
1	0	0	0	0	483	510	0	0	
2	0	0	0	0	487	513	0	0	
3	0	0	0	0	487	510	0	0	
4	0	0	0	0	480	513	0	0	
5	0	0	0	0	473	510	0	0	
6	0	0	0	0	470	508	0	0	
7	0	0	0	0	463	505	0	0	
8	0	0	0	0	462	504	0	0	
9	0	0	0	0	463	508	0	0	
10	0	0	0	0	463	508	0	0	
11	0	0	0	0	463	504	0	0	
12	0	0	0	0	467	508	0	0	
13	0	0	0	0	472	508	0	0	
14	0	0	0	0	472	513	0	0	
15	0	0	0	0	472	508	0	0	
0	0	0	0	0	476	508	0	0	
1	0	0	0	0	480	511	0	0	
2	0	0	0	0	478	510	0	0	
3	0	0	0	0	472	512	0	0	
4	0	0	0	0	476	513	0	0	
5	0	0	0	0	481	511	0	0	
6	0	0	0	0	496	508	0	0	
7	0	0	0	0	499	508	0	0	
8	0	0	0	0	504	515	0	0	
9	0	0	0	0	499	510	0	0	
10	0	0	0	0	483	508	0	0	
11	0	0	0	0	473	511	0	0	
12	0	0	0	0	467	505	0	0	
13	0	0	0	0	455	504	0	0	
14	0	0	0	0	448	508	0	0	
15	0	0	0	0	455	512	0	0	
0	0	0	0	0	460	515	0	0	
1	0	0	0	0	460	511	0	0	
2	0	0	0	0	472	510	0	0	
3	0	0	0	0	476	513	0	0	
4	0	0	0	0	465	511	0	0	
5	0	0	0	0	472	508	0	0	
6	0	0	0	0	476	510	0	0	
7	0	0	0	0	480	511	0	0	
8	0	0	0	0	481	510	0	0	
9	0	0	0	0	487	511	0	0	
10	0	0	0	0	487	504	0	0	
11	0	0	0	0	480	511	0	0	
12	0	0	0	0	483	515	0	0	
13	0	0	0	0	476	515	0	0	
14	0	0	0	0	467	510	0	0	
15	0	0	0	0	472	511	0	0	
0	0	0	0	0	467	508	0	0	
1	0	0	0	0	463	504	0	0	
2	0	0	0	0	467	505	0	0	
3	0	0	0	0	472	504	0	0	
4	0	0	0	0	467	508	0	0	
5	0	0	0	0	455	505	0	0	
6	0	0	0	0	462	510	0	0	
7	0	0	0	0	480	505	0	0	
8	0	0	0	0	476	508	0	0	
9	0	0	0	0	476	512	0	0	
10	0	0	0	0	487	519	0	0	
11	0	0	0	0	496	515	0	0	
12	0	0	0	0	492	515	0	0	
13	0	0	0	0	487	512	0	0	
14	0	0	0	0	480	508	0	0	
15	0	0	0	0	486	512	0	0	
0	0	0	0	0	487	512	0	0	
1	0	0	0	0	481	510	0	0	
2	0	0	0	0	480	510	0	0	
3	0	0	0	0	480	508	0	0	
4	0	0	0	0	476	508	0	0	
5	0	0	0	0	472	504	0	0	
6	0	0	0	0	460	504	0	0	
7	0	0	0	0	455	508	0	0	
8	0	0	0	0	455	508	0	0	
9	0	0	0	0	467	508	0	0	
10	0	0	0	0	472	519	0	0	
11	0	0	0	0	473	513	0	0	
12	0	0	0	0	480	515	0	0	
13	0	0	0	0	478	513	0	0	
14	0	0	0	0	480	512	0	0	
15	0	0	0	0	481	513	0	0	
0	0	0	0	0	483	511	0	0	
1	0	0	0	0	480	510	0	0	
2	0	0	0	0	481	510	0	0	
3	0	0	0	0	496	504	0	0	
4	0	0	0	0	487	499	0	0	
5	0	0	0	0	480	504	0	0	
6	0	0	0	0	483	510	0	0	
7	0	0	0	0	472	510	0	0	
8	0	0	0	0	467	508	0	0	
9	0	0	0	0	462	510	0	0	
10	0	0	0	0	463	508	0	0	
11	0	0	0	0	467	508	0	0	
12	0	0	0	0	470	510	0	0	
13	0	0	0	0	472	510	0	0	
14	0	0	0	0	472	508	0	0	
15	0	0	0	0	472	510	0	0	
0	0	0	0	0	476	515	0	0	
1	0	0	0	0	463	512	0	0	
2	0	0	0	0	460	512	0	0	
3	0	0	0	0	463	512	0	0	
4	0	0	0	0	472	513	0	0	
5	0	0	0	0	483	513	0	0	
6	0	0	0	0	487	512	0	0	
7	0	0	0	0	497	511	0	0	
8	0	0	0	0	496	508	0	0	
9	0	0	0	0	481	510	0	0	
10	0	0	0	0	480	511	0	0	
11	0	0	0	0	480	505	0	0	
12	0	0	0	0	467	511	0	0	
13	0	0	0	0	460	504	0	0	
14	0	0	0	0	460	508	0	0	
15	0	0	0	0	472	511	0	0	
0	0	0	0	0	472	508	0	0	
1	0	0	0	0	467	504	0	0	
2	0	0	0	0	467	508	0	0	
3	0	0	0	0	472	508	0	0	
4	0	0	0	0	478	510	0	0	
5	0	0	0	0	476	510	0	0	
6	0	0	0	0	478	504	0	0	
7	0	0	0	0	476	519	0	0	
8	0	0	0	0	486	519	0	0	
9	0	0	0	0	483	510	0	0	
10	0	0	0	0	480	510	0	0	
11	0	0	0	0	481	508	0	0	
12	0	0	0	0	486	504	0	0	
13	0	0	0	0	480	504	0	0	
14	0	0	0	0	480	508	0	0	
15	0	0	0	0	480	508	0	0	
0	0	0	0	0	472	505	0	0	
1	0	0	0	0	472	504	0	0	
2	0	0	0	0	472	511	0	0	
3	0	0	0	0	462	508	0	0	
4	0	0	0	0	460	511	0	0	
5	0	0	0	0	463	512	0	0	
6	0	0	0	0	463	511	0	0	
7	0	0	0	0	462	508	0	0	
8	0	0	0	0	463	515	0	0	
9	0	0	0	0	472	515	0	0	
10	0	0	0	0	476	512	0	0	
11	0	0	0	0	478	504	0	0	
12	0	0	0	0	486	508	0	0	
13	0	0	0	0	487	508	0	0	
14	0	0	0	0	487	510	0	0	
15	0	0	0	0	504	511	0	0	
0	0	0	0	0	496	508	0	0	
1	0	0	0	0	486	508	0	0	
2	0	0	0	0	492	511	0	0	
3	0	0	0	0	476	511	0	0	
4	0	0	0	0	465	505	0	0	
5	0	0	0	0	462	513	0	0	
6	0	0	0	0	463	510	0	0	
7	0	0	0	0	472	508	0	0	
8	0	0	0	0	472	508	0	0	
9	0	0	0	0	463	510	0	0	
10	0	0	0	0	472	508	0	0	
11	0	0	0	0	480	511	0	0	
12	0	0	0	0	483	511	0	0	
13	0	0	0	0	492	510	0	0	
14	0	0	0	0	492	511	0	0	
15	0	0	0	0	487	512	0	0	
0	0	0	0	0	486	510	0	0	
1	0	0	0	0	472	511	0	0	
2	0	0	0	0	451	513	0	0	
3	0	0	0	0	435	519	0	0	
4	0	0	0	0	448	512	0	0	
5	0	0	0	0	472	515	0	0	
6	0	0	0	0	480	508	0	0	
7	0	0	0	0	478	504	0	0	
8	0	0	0	0	465	504	0	0	
9	0	0	0	0	463	504	0	0	
10	0	0	0	0	463	504	0	0	
11	0	0	0	0	472	504	0	0	
12	0	0	0	0	472	508	0	0	
13	0	0	0	0	472	508	0	0	
14	0	0	0	0	472	510	0	0	
15	0	0	0	0	472	510	0	0	
0	0	0	0	0	476	510	0	0	
1	0	0	0	0	476	511	0	0	
2	0	0	0	0	472	511	0	0	
3	0	0	0	0	472	512	0	0	
4	0	0	0	0	480	510	0	0	
5	0	0	0	0	480	508	0	0	
6	0	0	0	0	483	508	0	0	
7	0	0	0	0	487	510	0	0	
8	0	0	0	0	496	511	0	0	
9	0	0	0	0	496	513	0	0	
10	0	0	0	0	487	512	0	0	
11	0	0	0	0	480	508	0	0	
12	0	0	0	0	472	510	0	0	
13	0	0	0	0	465	504	0	0	
14	0	0	0	0	460	504	0	0	
15	0	0	0	0	463	504	0	0	
0	0	0	0	0	467	508	0	0	
1	0	0	0	0	463	515	0	0	
2	0	0	0	0	467	513	0	0	
3	0	0	0	0	467	512	0	0	
4	0	0	0	0	472	512	0	0	
5	0	0	0	0	476	513	0	0	
6	0	0	0	0	476	515	0	0	
7	0	0	0	0	480	510	0	0	
8	0	0	0	0	481	504	0	0	
9	0	0	0	0	486	508	0	0	
10	0	0	0	0	492	511	0	0	
11	0	0	0	0	496	508	0	0	
12	0	0	0	0	492	505	0	0	
13	0	0	0	0	487	512	0	0	
14	0	0	0	0	492	512	0	0	
15	0	0	0	0	481	508	0	0	
0	0	0	0	0	472	504	0	0	
1	0	0	0	0	455	504	0	0	
2	0	0	0	0	462	504	0	0	
3	0	0	0	0	460	504	0	0	
4	0	0	0	0	454	502	0	0	
5	0	0	0	0	449	499	0	0	
6	0	0	0	0	448	513	0	0	
7	0	0	0	0	460	519	0	0	
8	0	0	0	0	467	515	0	0	
9	0	0	0	0	467	510	0	0	
10	0	0	0	0	481	511	0	0	
11	0	0	0	0	480	524	0	0	
12	0	0	0	0	483	515	0	0	
13	0	0	0	0	487	515	0	0	
14	0	0	0	0	487	512	0	0	
15	0	0	0	0	487	510	0	0	
0	0	0	0	0	483	519	0	0	
1	0	0	0	0	480	513	0	0	
2	0	0	0	0	476	508	0	0	
3	0	0	0	0	472	504	0	0	
4	0	0	0	0	463	508	0	0	
5	0	0	0	0	460	504	0	0	
6	0	0	0	0	455	505	0	0	
7	0	0	0	0	463	508	0	0	
8	0	0	0	0	467	508	0	0	
9	0	0	0	0	472	504	0	0	
10	0	0	0	0	472	512	0	0	
11	0	0	0	0	467	511	0	0	
12	0	0	0	0	472	510	0	0	
13	0	0	0	0	480	512	0	0	
14	0	0	0	0	487	511	0	0	
15	0	0	0	0	496	511	0	0	
0	0	0	0	0	504	511	0	0	
1	0	0	0	0	504	512	0	0	
2	0	0	0	0	494	511	0	0	
3	0	0	0	0	492	504	0	0	
4	0	0	0	0	487	511	0	0	
5	0	0	0	0	480	508	0	0	
6	0	0	0	0	472	508	0	0	
7	0	0	0	0	460	510	0	0	
8	0	0	0	0	448	508	0	0	
9	0	0	0	0	455	510	0	0	
10	0	0	0	0	465	508	0	0	
11	0	0	0	0	472	511	0	0	
12	0	0	0	0	463	510	0	0	
13	0	0	0	0	455	508	0	0	
14	0	0	0	0	455	510	0	0	
15	0	0	0	0	462	512	0	0	
0	0	0	0	0	467	510	0	0	
1	0	0	0	0	476	511	0	0	
2	0	0	0	0	476	511	0	0	
3	0	0	0	0	483	512	0	0	
4	0	0	0	0	483	512	0	0	
5	0	0	0	0	481	508	0	0	
6	0	0	0	0	480	508	0	0	
7	0	0	0	0	480	508	0	0	
8	0	0	0	0	480	515	0	0	
9	0	0	0	0	487	511	0	0	
10	0	0	0	0	487	511	0	0	
11	0	0	0	0	486	504	0	0	
12	0	0	0	0	487	505	0	0	
13	0	0	0	0	480	505	0	0	
14	0	0	0	0	463	504	0	0	
15	0	0	0	0	462	511	0	0	
0	0	0	0	0	460	510	0	0	
1	0	0	0	0	448	510	0	0	
2	0	0	0	0	449	510	0	0	
3	0	0	0	0	448	511	0	0	
4	0	0	0	0	455	511	0	0	
5	0	0	0	0	467	511	0	0	
6	0	0	0	0	472	511	0	0	
7	0	0	0	0	480	510	0	0	
8	0	0	0	0	483	505	0	0	
9	0	0	0	0	486	508	0	0	
10	0	0	0	0	486	511	0	0	
11	0	0	0	0	483	511	0	0	
12	0	0	0	0	481	510	0	0	
13	0	0	0	0	480	508	0	0	
14	0	0	0	0	483	505	0	0	
15	0	0	0	0	480	504	0	0	
0	0	0	0	0	467	504	0	0	
1	0	0	0	0	467	505	0	0	
2	0	0	0	0	463	508	0	0	
3	0	0	0	0	467	511	0	0	
4	0	0	0	0	463	513	0	0	
5	0	0	0	0	463	512	0	0	
6	0	0	0	0	472	508	0	0	
7	0	0	0	0	480	508	0	0	
8	0	0	0	0	480	508	0	0	
9	0	0	0	0	481	505	0	0	
10	0	0	0	0	483	504	0	0	
11	0	0	0	0	480	513	0	0	
12	0	0	0	0	487	519	0	0	
13	0	0	0	0	494	511	0	0	
14	0	0	0	0	487	508	0	0	
15	0	0	0	0	483	510	0	0	
0	0	0	0	0	483	510	0	0	
1	0	0	0	0	481	511	0	0	
2	0	0	0	0	483	508	0	0	
3	0	0	0	0	480	505	0	0	
4	0	0	0	0	480	504	0	0	
5	0	0	0	0	472	515	0	0	
6	0	0	0	0	476	510	0	0	
7	0	0	0	0	476	511	0	0	
8	0	0	0	0	476	511	0	0	
9	0	0	0	0	480	508	0	0	
10	0	0	0	0	476	515	0	0	
11	0	0	0	0	472	508	0	0	
12	0	0	0	0	472	499	0	0	
13	0	0	0	0	478	511	0	0	
14	0	0	0	0	481	519	0	0	
15	0	0	0	0	481	518	0	0	
0	0	0	0	0	472	512	0	0	
1	0	0	0	0	467	510	0	0	
2	0	0	0	0	481	508	0	0	
3	0	0	0	0	480	508	0	0	
4	0	0	0	0	480	511	0	0	
5	0	0	0	0	481	508	0	0	
6	0	0	0	0	480	508	0	0	
7	0	0	0	0	476	510	0	0	
8	0	0	0	0	467	504	0	0	
9	0	0	0	0	455	508	0	0	
10	0	0	0	0	451	510	0	0	
11	0	0	0	0	455	504	0	0	
12	0	0	0	0	460	508	0	0	
13	0	0	0	0	451	510	0	0	
14	0	0	0	0	455	504	0	0	
15	0	0	0	0	472	511	0	0	
0	0	0	0	0	472	510	0	0	
1	0	0	0	0	476	511	0	0	
2	0	0	0	0	476	512	0	0	
3	0	0	0	0	467	512	0	0	
4	0	0	0	0	472	511	0	0	
5	0	0	0	0	472	510	0	0	
6	0	0	0	0	472	510	0	0	
7	0	0	0	0	476	512	0	0	
8	0	0	0	0	499	512	0	0	
9	0	0	0	0	513	511	0	0	
10	0	0	0	0	496	504	0	0	
11	0	0	0	0	483	504	0	0	
12	0	0	0	0	476	504	0	0	
13	0	0	0	0	467	504	0	0	
14	0	0	0	0	472	504	0	0	
15	0	0	0	0	472	504	0	0	
0	0	0	0	0	463	511	0	0	
1	0	0	0	0	472	515	0	0	
2	0	0	0	0	473	511	0	0	
3	0	0	0	0	467	510	0	0	
4	0	0	0	0	472	510	0	0	
5	0	0	0	0	473	511	0	0	
6	0	0	0	0	472	510	0	0	
7	0	0	0	0	476	511	0	0	
8	0	0	0	0	481	519	0	0	
9	0	0	0	0	487	512	0	0	
10	0	0	0	0	487	510	0	0	
11	0	0	0	0	494	511	0	0	
12	0	0	0	0	494	508	0	0	
13	0	0	0	0	480	510	0	0	
14	0	0	0	0	472	508	0	0	
15	0	0	0	0	472	508	0	0	
0	0	0	0	0	463	504	0	0	
1	0	0	0	0	463	504	0	0	
2	0	0	0	0	463	505	0	0	
3	0	0	0	0	463	512	0	0	
4	0	0	0	0	462	512	0	0	
5	0	0	0	0	467	510	0	0	
6	0	0	0	0	463	510	0	0	
7	0	0	0	0	460	508	0	0	
8	0	0	0	0	476	508	0	0	
9	0	0	0	0	487	505	0	0	
10	0	0	0	0	492	519	0	0	
11	0	0	0	0	496	526	0	0	
12	0	0	0	0	497	524	0	0	
13	0	0	0	0	494	513	0	0	
14	0	0	0	0	487	505	0	0	
15	0	0	0	0	487	504	0	0	
0	0	0	0	0	483	504	0	0	
1	0	0	0	0	480	504	0	0	
2	0	0	0	0	480	504	0	0	
3	0	0	0	0	483	504	0	0	
4	0	0	0	0	480	504	0	0	
5	0	0	0	0	480	510	0	0	
6	0	0	0	0	473	508	0	0	
7	0	0	0	0	463	504	0	0	
8	0	0	0	0	455	511	0	0	
9	0	0	0	0	455	515	0	0	
10	0	0	0	0	463	513	0	0	
11	0	0	0	0	455	515	0	0	
12	0	0	0	0	462	513	0	0	
13	0	0	0	0	470	515	0	0	
14	0	0	0	0	476	515	0	0	
15	0	0	0	0	480	508	0	0	
0	0	0	0	0	487	505	0	0	
1	0	0	0	0	483	504	0	0	
2	0	0	0	0	487	508	0	0	
3	0	0	0	0	492	504	0	0	
4	0	0	0	0	492	508	0	0	
5	0	0	0	0	487	508	0	0	
6	0	0	0	0	478	505	0	0	
7	0	0	0	0	467	504	0	0	
8	0	0	0	0	465	511	0	0	
9	0	0	0	0	463	511	0	0	
10	0	0	0	0	463	510	0	0	
11	0	0	0	0	463	510	0	0	
12	0	0	0	0	465	512	0	0	
13	0	0	0	0	467	508	0	0	
14	0	0	0	0	463	513	0	0	
15	0	0	0	0	472	505	0	0	
0	0	0	0	0	472	508	0	0	
1	0	0	0	0	478	511	0	0	
2	0	0	0	0	480	512	0	0	
3	0	0	0	0	480	511	0	0	
4	0	0	0	0	487	512	0	0	
5	0	0	0	0	487	511	0	0	
6	0	0	0	0	481	511	0	0	
7	0	0	0	0	476	510	0	0	
8	0	0	0	0	473	510	0	0	
9	0	0	0	0	480	508	0	0	
10	0	0	0	0	481	510	0	0	
11	0	0	0	0	480	505	0	0	
12	0	0	0	0	481	504	0	0	
13	0	0	0	0	483	511	0	0	
14	0	0	0	0	483	505	0	0	
15	0	0	0	0	480	511	0	0	
0	0	0	0	0	472	511	0	0	
1	0	0	0	0	463	510	0	0	
2	0	0	0	0	472	512	0	0	
3	0	0	0	0	472	511	0	0	
4	0	0	0	0	462	510	0	0	
5	0	0	0	0	449	512	0	0	
6	0	0	0	0	451	512	0	0	
7	0	0	0	0	463	508	0	0	
8	0	0	0	0	467	508	0	0	
9	0	0	0	0	486	508	0	0	
10	0	0	0	0	487	508	0	0	
11	0	0	0	0	487	508	0	0	
12	0	0	0	0	487	504	0	0	
13	0	0	0	0	483	504	0	0	
14	0	0	0	0	480	504	0	0	
15	0	0	0	0	472	510	0	0	
0	0	0	0	0	463	511	0	0	
1	0	0	0	0	463	508	0	0	
2	0	0	0	0	462	515	0	0	
3	0	0	0	0	462	512	0	0	
4	0	0	0	0	463	508	0	0	
5	0	0	0	0	465	508	0	0	
6	0	0	0	0	472	510	0	0	
7	0	0	0	0	472	504	0	0	
8	0	0	0	0	472	515	0	0	
9	0	0	0	0	480	519	0	0	
10	0	0	0	0	480	510	0	0	
11	0	0	0	0	481	511	0	0	
12	0	0	0	0	492	511	0	0	
13	0	0	0	0	492	512	0	0	
14	0	0	0	0	487	510	0	0	
15	0	0	0	0	487	513	0	0	
0	0	0	0	0	487	510	0	0	
1	0	0	0	0	480	508	0	0	
2	0	0	0	0	478	504	0	0	
3	0	0	0	0	480	508	0	0	
4	0	0	0	0	472	512	0	0	
5	0	0	0	0	480	508	0	0	
6	0	0	0	0	476	508	0	0	
7	0	0	0	0	472	508	0	0	
8	0	0	0	0	463	510	0	0	
9	0	0	0	0	463	508	0	0	
10	0	0	0	0	476	508	0	0	
11	0	0	0	0	476	508	0	0	
12	0	0	0	0	476	508	0	0	
13	0	0	0	0	476	511	0	0	
14	0	0	0	0	480	511	0	0	
15	0	0	0	0	480	511	0	0	
0	0	0	0	0	472	508	0	0	
1	0	0	0	0	467	512	0	0	
2	0	0	0	0	480	512	0	0	
3	0	0	0	0	483	512	0	0	
4	0	0	0	0	481	508	0	0	
5	0	0	0	0	483	508	0	0	
6	0	0	0	0	487	508	0	0	
7	0	0	0	0	480	508	0	0	
8	0	0	0	0	467	510	0	0	
9	0	0	0	0	455	510	0	0	
10	0	0	0	0	463	510	0	0	
11	0	0	0	0	472	510	0	0	
12	0	0	0	0	467	511	0	0	
13	0	0	0	0	463	511	0	0	
14	0	0	0	0	467	508	0	0	
15	0	0	0	0	473	508	0	0	
0	0	0	0	0	480	510	0	0	
1	0	0	0	0	480	511	0	0	
2	0	0	0	0	467	515	0	0	
3	0	0	0	0	476	515	0	0	
4	0	0	0	0	487	511	0	0	
5	0	0	0	0	487	512	0	0	
6	0	0	0	0	480	510	0	0	
7	0	0	0	0	480	511	0	0	
8	0	0	0	0	476	508	0	0	
9	0	0	0	0	472	513	0	0	
10	0	0	0	0	463	508	0	0	
11	0	0	0	0	467	499	0	0	
12	0	0	0	0	472	499	0	0	
13	0	0	0	0	463	513	0	0	
14	0	0	0	0	463	510	0	0	
15	0	0	0	0	463	510	0	0	
0	0	0	0	0	472	508	0	0	
1	0	0	0	0	472	508	0	0	
2	0	0	0	0	473	508	0	0	
3	0	0	0	0	473	511	0	0	
4	0	0	0	0	472	511	0	0	
5	0	0	0	0	476	513	0	0	
6	0	0	0	0	480	513	0	0	
7	0	0	0	0	481	512	0	0	
8	0	0	0	0	487	508	0	0	
9	0	0	0	0	496	504	0	0	
10	0	0	0	0	494	499	0	0	
11	0	0	0	0	481	504	0	0	
12	0	0	0	0	476	504	0	0	
13	0	0	0	0	472	515	0	0	
14	0	0	0	0	467	512	0	0	
15	0	0	0	0	463	512	0	0	
0	0	0	0	0	463	510	0	0	
1	0	0	0	0	455	504	0	0	
2	0	0	0	0	460	505	0	0	
3	0	0	0	0	463	504	0	0	
4	0	0	0	0	467	508	0	0	
5	0	0	0	0	473	519	0	0	
6	0	0	0	0	476	513	0	0	
7	0	0	0	0	463	511	0	0	
8	0	0	0	0	472	508	0	0	
9	0	0	0	0	480	511	0	0	
10	0	0	0	0	476	513	0	0	
11	0	0	0	0	476	513	0	0	
12	0	0	0	0	480	511	0	0	
13	0	0	0	0	486	508	0	0	
14	0	0	0	0	487	504	0	0	
15	0	0	0	0	492	505	0	0	
0	0	0	0	0	496	504	0	0	
1	0	0	0	0	487	508	0	0	
2	0	0	0	0	483	510	0	0	
3	0	0	0	0	480	504	0	0	
4	0	0	0	0	472	508	0	0	
5	0	0	0	0	463	505	0	0	
6	0	0	0	0	455	511	0	0	
7	0	0	0	0	455	511	0	0	
8	0	0	0	0	460	510	0	0	
9	0	0	0	0	462	511	0	0	
10	0	0	0	0	465	511	0	0	
11	0	0	0	0	472	512	0	0	
12	0	0	0	0	480	512	0	0	
13	0	0	0	0	486	511	0	0	
14	0	0	0	0	492	511	0	0	
15	0	0	0	0	492	515	0	0	
0	0	0	0	0	487	510	0	0	
1	0	0	0	0	473	511	0	0	
2	0	0	0	0	472	511	0	0	
3	0	0	0	0	472	510	0	0	
4	0	0	0	0	481	504	0	0	
5	0	0	0	0	480	505	0	0	
6	0	0	0	0	467	508	0	0	
7	0	0	0	0	463	508	0	0	
8	0	0	0	0	460	508	0	0	
9	0	0	0	0	455	505	0	0	
10	0	0	0	0	455	504	0	0	
11	0	0	0	0	451	508	0	0	
12	0	0	0	0	463	508	0	0	
13	0	0	0	0	480	510	0	0	
14	0	0	0	0	487	511	0	0	
15	0	0	0	0	480	512	0	0	
0	0	0	0	0	476	512	0	0	
1	0	0	0	0	478	512	0	0	
2	0	0	0	0	472	512	0	0	
3	0	0	0	0	473	512	0	0	
4	0	0	0	0	472	512	0	0	
5	0	0	0	0	480	510	0	0	
6	0	0	0	0	481	510	0	0	
7	0	0	0	0	481	510	0	0	
8	0	0	0	0	476	511	0	0	
9	0	0	0	0	480	508	0	0	
10	0	0	0	0	483	508	0	0	
11	0	0	0	0	480	505	0	0	
12	0	0	0	0	472	508	0	0	
13	0	0	0	0	460	511	0	0	
14	0	0	0	0	463	510	0	0	
15	0	0	0	0	463	508	0	0	
0	0	0	0	0	463	511	0	0	
1	0	0	0	0	455	512	0	0	
2	0	0	0	0	460	508	0	0	
3	0	0	0	0	472	513	0	0	
4	0	0	0	0	473	511	0	0	
5	0	0	0	0	480	515	0	0	
6	0	0	0	0	481	515	0	0	
7	0	0	0	0	492	511	0	0	
8	0	0	0	0	496	512	0	0	
9	0	0	0	0	504	511	0	0	
10	0	0	0	0	504	508	0	0	
11	0	0	0	0	499	513	0	0	
12	0	0	0	0	504	512	0	0	
13	0	0	0	0	496	511	0	0	
14	0	0	0	0	472	504	0	0	
15	0	0	0	0	467	508	0	0	
0	0	0	0	0	463	512	0	0	
1	0	0	0	0	454	504	0	0	
2	0	0	0	0	444	511	0	0	
3	0	0	0	0	454	515	0	0	
4	0	0	0	0	460	510	0	0	
5	0	0	0	0	455	505	0	0	
6	0	0	0	0	451	504	0	0	
7	0	0	0	0	472	508	0	0	
8	0	0	0	0	472	505	0	0	
9	0	0	0	0	476	511	0	0	
10	0	0	0	0	487	508	0	0	
11	0	0	0	0	487	519	0	0	
12	0	0	0	0	497	511	0	0	
13	0	0	0	0	504	508	0	0	
14	0	0	0	0	499	508	0	0	
15	0	0	0	0	492	508	0	0	
0	0	0	0	0	483	508	0	0	
1	0	0	0	0	476	512	0	0	
2	0	0	0	0	472	511	0	0	
3	0	0	0	0	467	508	0	0	
4	0	0	0	0	467	504	0	0	
5	0	0	0	0	472	511	0	0	
6	0	0	0	0	467	508	0	0	
7	0	0	0	0	463	504	0	0	
8	0	0	0	0	465	504	0	0	
9	0	0	0	0	463	504	0	0	
10	0	0	0	0	472	508	0	0	
11	0	0	0	0	472	511	0	0	
12	0	0	0	0	467	511	0	0	
13	0	0	0	0	467	515	0	0	
14	0	0	0	0	472	515	0	0	
15	0	0	0	0	476	512	0	0	
0	0	0	0	0	483	510	0	0	
1	0	0	0	0	487	510	0	0	
2	0	0	0	0	496	512	0	0	
3	0	0	0	0	494	512	0	0	
4	0	0	0	0	487	505	0	0	
5	0	0	0	0	480	504	0	0	
6	0	0	0	0	472	504	0	0	
7	0	0	0	0	472	508	0	0	
8	0	0	0	0	463	508	0	0	
9	0	0	0	0	463	504	0	0	
10	0	0	0	0	467	508	0	0	
11	0	0	0	0	476	504	0	0	
12	0	0	0	0	487	511	0	0	
13	0	0	0	0	492	508	0	0	
14	0	0	0	0	483	513	0	0	
15	0	0	0	0	476	511	0	0	
0	0	0	0	0	462	512	0	0	
1	0	0	0	0	462	513	0	0	
2	0	0	0	0	465	515	0	0	
3	0	0	0	0	465	511	0	0	
4	0	0	0	0	473	510	0	0	
5	0	0	0	0	478	510	0	0	
6	0	0	0	0	480	511	0	0	
7	0	0	0	0	487	508	0	0	
8	0	0	0	0	480	513	0	0	
9	0	0	0	0	480	504	0	0	
10	0	0	0	0	476	499	0	0	
11	0	0	0	0	472	504	0	0	
12	0	0	0	0	467	504	0	0	
13	0	0	0	0	467	504	0	0	
14	0	0	0	0	460	510	0	0	
15	0	0	0	0	454	511	0	0	
0	0	0	0	0	455	508	0	0	
1	0	0	0	0	460	510	0	0	
2	0	0	0	0	463	511	0	0	
3	0	0	0	0	472	508	0	0	
4	0	0	0	0	480	504	0	0	
5	0	0	0	0	480	504	0	0	
6	0	0	0	0	473	508	0	0	
7	0	0	0	0	476	504	0	0	
8	0	0	0	0	483	513	0	0	
9	0	0	0	0	494	515	0	0	
10	0	0	0	0	483	519	0	0	
11	0	0	0	0	487	512	0	0	
12	0	0	0	0	496	505	0	0	
13	0	0	0	0	487	512	0	0	
14	0	0	0	0	481	513	0	0	
15	0	0	0	0	487	513	0	0	
0	0	0	0	0	483	512	0	0	
1	0	0	0	0	480	504	0	0	
2	0	0	0	0	462	508	0	0	
3	0	0	0	0	460	510	0	0	
4	0	0	0	0	462	511	0	0	
5	0	0	0	0	460	510	0	0	
6	0	0	0	0	462	510	0	0	
7	0	0	0	0	463	510	0	0	
8	0	0	0	0	460	508	0	0	
9	0	0	0	0	472	512	0	0	
10	0	0	0	0	480	513	0	0	
11	0	0	0	0	480	510	0	0	
12	0	0	0	0	483	508	0	0	
13	0	0	0	0	487	510	0	0	
14	0	0	0	0	492	515	0	0	
15	0	0	0	0	483	512	0	0	
0	0	0	0	0	483	510	0	0	
1	0	0	0	0	483	508	0	0	
2	0	0	0	0	476	504	0	0	
3	0	0	0	0	472	505	0	0	
4	0	0	0	0	472	504	0	0	
5	0	0	0	0	472	504	0	0	
6	0	0	0	0	463	510	0	0	
7	0	0	0	0	460	508	0	0	
8	0	0	0	0	460	508	0	0	
9	0	0	0	0	462	510	0	0	
10	0	0	0	0	472	511	0	0	
11	0	0	0	0	472	512	0	0	
12	0	0	0	0	476	512	0	0	
13	0	0	0	0	476	511	0	0	
14	0	0	0	0	480	510	0	0	
15	0	0	0	0	492	510	0	0	
0	0	0	0	0	496	508	0	0	
1	0	0	0	0	492	508	0	0	
2	0	0	0	0	487	510	0	0	
3	0	0	0	0	487	508	0	0	
4	0	0	0	0	473	508	0	0	
5	0	0	0	0	465	504	0	0	
6	0	0	0	0	472	505	0	0	
7	0	0	0	0	476	510	0	0	
8	0	0	0	0	473	511	0	0	
9	0	0	0	0	472	505	0	0	
10	0	0	0	0	472	508	0	0	
11	0	0	0	0	467	504	0	0	
12	0	0	0	0	463	508	0	0	
13	0	0	0	0	463	511	0	0	
14	0	0	0	0	472	511	0	0	
15	0	0	0	0	480	512	0	0	
0	0	0	0	0	480	515	0	0	
1	0	0	0	0	480	519	0	0	
2	0	0	0	0	472	512	0	0	
3	0	0	0	0	480	511	0	0	
4	0	0	0	0	492	511	0	0	
5	0	0	0	0	494	511	0	0	
6	0	0	0	0	499	511	0	0	
7	0	0	0	0	494	511	0	0	
8	0	0	0	0	483	504	0	0	
9	0	0	0	0	480	511	0	0	
10	0	0	0	0	467	508	0	0	
11	0	0	0	0	455	508	0	0	
12	0	0	0	0	455	510	0	0	
13	0	0	0	0	455	504	0	0	
14	0	0	0	0	451	504	0	0	
15	0	0	0	0	455	504	0	0	
0	0	0	0	0	462	504	0	0	
1	0	0	0	0	462	508	0	0	
2	0	0	0	0	465	505	0	0	
3	0	0	0	0	472	510	0	0	
4	0	0	0	0	476	515	0	0	
5	0	0	0	0	487	515	0	0	
6	0	0	0	0	487	510	0	0	
7	0	0	0	0	486	510	0	0	
8	0	0	0	0	487	519	0	0	
9	0	0	0	0	492	513	0	0	
10	0	0	0	0	496	515	0	0	
11	0	0	0	0	496	508	0	0	
12	0	0	0	0	487	513	0	0	
13	0	0	0	0	487	511	0	0	
14	0	0	0	0	476	508	0	0	
15	0	0	0	0	467	508	0	0	
0	0	0	0	0	465	511	0	0	
1	0	0	0	0	460	512	0	0	
2	0	0	0	0	454	510	0	0	
3	0	0	0	0	451	510	0	0	
4	0	0	0	0	451	505	0	0	
5	0	0	0	0	455	499	0	0	
6	0	0	0	0	460	513	0	0	
7	0	0	0	0	473	511	0	0	
8	0	0	0	0	481	505	0	0	
9	0	0	0	0	483	511	0	0	
10	0	0	0	0	483	512	0	0	
11	0	0	0	0	480	510	0	0	
12	0	0	0	0	486	513	0	0	
13	0	0	0	0	487	510	0	0	
14	0	0	0	0	487	511	0	0	
15	0	0	0	0	483	511	0	0	
0	0	0	0	0	483	508	0	0	
1	0	0	0	0	483	511	0	0	
2	0	0	0	0	480	508	0	0	
3	0	0	0	0	472	505	0	0	
4	0	0	0	0	465	505	0	0	
5	0	0	0	0	472	505	0	0	
6	0	0	0	0	463	510	0	0	
7	0	0	0	0	457	511	0	0	
8	0	0	0	0	463	510	0	0	
9	0	0	0	0	472	510	0	0	
10	0	0	0	0	472	508	0	0	
11	0	0	0	0	467	511	0	0	
12	0	0	0	0	476	508	0	0	
13	0	0	0	0	487	508	0	0	
14	0	0	0	0	487	510	0	0	
15	0	0	0	0	480	510	0	0	
0	0	0	0	0	467	511	0	0	
1	0	0	0	0	462	510	0	0	
2	0	0	0	0	472	511	0	0	
3	0	0	0	0	476	508	0	0	
4	0	0	0	0	462	515	0	0	
5	0	0	0	0	463	508	0	0	
6	0	0	0	0	472	508	0	0	
7	0	0	0	0	472	504	0	0	
8	0	0	0	0	472	508	0	0	
9	0	0	0	0	463	508	0	0	
10	0	0	0	0	462	508	0	0	
11	0	0	0	0	451	508	0	0	
12	0	0	0	0	451	511	0	0	
13	0	0	0	0	455	508	0	0	
14	0	0	0	0	462	511	0	0	
15	0	0	0	0	463	511	0	0	
0	0	0	0	0	476	511	0	0	
1	0	0	0	0	487	510	0	0	
2	0	0	0	0	492	511	0	0	
3	0	0	0	0	492	511	0	0	
4	0	0	0	0	487	512	0	0	
5	0	0	0	0	487	511	0	0	
6	0	0	0	0	492	512	0	0	
7	0	0	0	0	487	508	0	0	
8	0	0	0	0	487	504	0	0	
9	0	0	0	0	481	512	0	0	
10	0	0	0	0	472	508	0	0	
11	0	0	0	0	465	504	0	0	
12	0	0	0	0	463	504	0	0	
13	0	0	0	0	463	511	0	0	
14	0	0	0	0	463	511	0	0	
15	0	0	0	0	472	508	0	0	
0	0	0	0	0	472	510	0	0	
1	0	0	0	0	472	511	0	0	
2	0	0	0	0	472	515	0	0	
3	0	0	0	0	472	513	0	0	
4	0	0	0	0	476	515	0	0	
5	0	0	0	0	480	510	0	0	
6	0	0	0	0	480	511	0	0	
7	0	0	0	0	483	510	0	0	
8	0	0	0	0	487	504	0	0	
9	0	0	0	0	492	512	0	0	
10	0	0	0	0	489	508	0	0	
11	0	0	0	0	492	510	0	0	
12	0	0	0	0	487	515	0	0	
13	0	0	0	0	480	508	0	0	
14	0	0	0	0	476	504	0	0	
15	0	0	0	0	473	510	0	0	
0	0	0	0	0	472	508	0	0	
1	0	0	0	0	472	510	0	0	
2	0	0	0	0	467	512	0	0	
3	0	0	0	0	467	508	0	0	
4	0	0	0	0	463	508	0	0	
5	0	0	0	0	462	504	0	0	
6	0	0	0	0	465	508	0	0	
7	0	0	0	0	472	508	0	0	
8	0	0	0	0	476	508	0	0	
9	0	0	0	0	478	510	0	0	
10	0	0	0	0	481	508	0	0	
11	0	0	0	0	480	519	0	0	
12	0	0	0	0	486	512	0	0	
13	0	0	0	0	483	515	0	0	
14	0	0	0	0	480	513	0	0	
15	0	0	0	0	478	512	0	0	
0	0	0	0	0	480	510	0	0	
1	0	0	0	0	478	505	0	0	
2	0	0	0	0	480	504	0	0	
3	0	0	0	0	478	508	0	0	
4	0	0	0	0	472	504	0	0	
5	0	0	0	0	467	508	0	0	
6	0	0	0	0	476	508	0	0	
7	0	0	0	0	476	505	0	0	
8	0	0	0	0	465	510	0	0	
9	0	0	0	0	463	510	0	0	
10	0	0	0	0	460	512	0	0	
11	0	0	0	0	455	511	0	0	
12	0	0	0	0	463	510	0	0	
13	0	0	0	0	467	511	0	0	
14	0	0	0	0	472	515	0	0	
15	0	0	0	0	487	508	0	0	
0	0	0	0	0	487	512	0	0	
1	0	0	0	0	486	511	0	0	
2	0	0	0	0	492	511	0	0	
3	0	0	0	0	496	511	0	0	
4	0	0	0	0	494	508	0	0	
5	0	0	0	0	487	508	0	0	
6	0	0	0	0	480	508	0	0	
7	0	0	0	0	476	508	0	0	
8	0	0	0	0	472	508	0	0	
9	0	0	0	0	462	505	0	0	
10	0	0	0	0	462	504	0	0	
11	0	0	0	0	463	504	0	0	
12	0	0	0	0	463	504	0	0	
13	0	0	0	0	467	508	0	0	
14	0	0	0	0	476	508	0	0	
15	0	0	0	0	481	512	0	0	
0	0	0	0	0	483	511	0	0	
1	0	0	0	0	487	512	0	0	
2	0	0	0	0	486	515	0	0	
3	0	0	0	0	486	512	0	0	
4	0	0	0	0	496	510	0	0	
5	0	0	0	0	496	511	0	0	
6	0	0	0	0	481	510	0	0	
7	0	0	0	0	480	510	0	0	
8	0	0	0	0	481	510	0	0	
9	0	0	0	0	476	510	0	0	
10	0	0	0	0	465	504	0	0	
11	0	0	0	0	444	511	0	0	
12	0	0	0	0	441	508	0	0	
13	0	0	0	0	448	508	0	0	
14	0	0	0	0	463	505	0	0	
15	0	0	0	0	476	505	0	0	
0	0	0	0	0	476	505	0	0	
1	0	0	0	0	487	511	0	0	
2	0	0	0	0	496	508	0	0	
3	0	0	0	0	487	508	0	0	
4	0	0	0	0	487	511	0	0	
5	0	0	0	0	480	512	0	0	
6	0	0	0	0	476	510	0	0	
7	0	0	0	0	467	508	0	0	
8	0	0	0	0	460	508	0	0	
9	0	0	0	0	451	511	0	0	
10	0	0	0	0	462	512	0	0	
11	0	0	0	0	467	508	0	0	
12	0	0	0	0	476	505	0	0	
13	0	0	0	0	494	513	0	0	
14	0	0	0	0	497	512	0	0	
15	0	0	0	0	481	508	0	0	
0	0	0	0	0	472	504	0	0	
1	0	0	0	0	476	511	0	0	
2	0	0	0	0	480	513	0	0	
3	0	0	0	0	476	513	0	0	
4	0	0	0	0	460	508	0	0	
5	0	0	0	0	455	505	0	0	
6	0	0	0	0	467	512	0	0	
7	0	0	0	0	472	515	0	0	
8	0	0	0	0	472	511	0	0	
9	0	0	0	0	476	504	0	0	
10	0	0	0	0	472	508	0	0	
11	0	0	0	0	472	511	0	0	
12	0	0	0	0	487	512	0	0	
13	0	0	0	0	494	512	0	0	
14	0	0	0	0	492	508	0	0	
15	0	0	0	0	486	510	0	0	
0	0	0	0	0	481	508	0	0	
1	0	0	0	0	478	508	0	0	
2	0	0	0	0	472	508	0	0	
3	0	0	0	0	478	510	0	0	
4	0	0	0	0	480	508	0	0	
5	0	0	0	0	472	508	0	0	
6	0	0	0	0	472	508	0	0	
7	0	0	0	0	472	511	0	0	
8	0	0	0	0	463	510	0	0	
9	0	0	0	0	460	508	0	0	
10	0	0	0	0	463	510	0	0	
11	0	0	0	0	467	511	0	0	
12	0	0	0	0	480	519	0	0	
13	0	0	0	0	480	515	0	0	
14	0	0	0	0	483	508	0	0	
15	0	0	0	0	487	508	0	0	
0	0	0	0	0	483	511	0	0	
1	0	0	0	0	483	512	0	0	
2	0	0	0	0	487	511	0	0	
3	0	0	0	0	487	511	0	0	
4	0	0	0	0	483	511	0	0	
5	0	0	0	0	480	510	0	0	
6	0	0	0	0	473	510	0	0	
7	0	0	0	0	472	508	0	0	
8	0	0	0	0	463	504	0	0	
9	0	0	0	0	463	508	0	0	
10	0	0	0	0	472	510	0	0	
11	0	0	0	0	472	510	0	0	
12	0	0	0	0	472	510	0	0	
13	0	0	0	0	472	511	0	0	
14	0	0	0	0	467	512	0	0	
15	0	0	0	0	467	508	0	0	
0	0	0	0	0	480	513	0	0	
1	0	0	0	0	478	512	0	0	
2	0	0	0	0	480	510	0	0	
3	0	0	0	0	480	515	0	0	
4	0	0	0	0	483	511	0	0	
5	0	0	0	0	481	512	0	0	
6	0	0	0	0	480	513	0	0	
7	0	0	0	0	480	504	0	0	
8	0	0	0	0	472	512	0	0	
9	0	0	0	0	473	508	0	0	
10	0	0	0	0	480	511	0	0	
11	0	0	0	0	472	508	0	0	
12	0	0	0	0	476	504	0	0	
13	0	0	0	0	492	515	0	0	
14	0	0	0	0	487	508	0	0	
15	0	0	0	0	480	510	0	0	
0	0	0	0	0	467	511	0	0	
1	0	0	0	0	460	510	0	0	
2	0	0	0	0	455	519	0	0	
3	0	0	0	0	451	511	0	0	
4	0	0	0	0	432	511	0	0	
5	0	0	0	0	428	508	0	0	
6	0	0	0	0	444	510	0	0	
7	0	0	0	0	462	510	0	0	
8	0	0	0	0	472	504	0	0	
9	0	0	0	0	480	512	0	0	
10	0	0	0	0	487	512	0	0	
11	0	0	0	0	496	513	0	0	
12	0	0	0	0	496	519	0	0	
13	0	0	0	0	492	512	0	0	
14	0	0	0	0	483	504	0	0	
15	0	0	0	0	480	504	0	0	
0	0	0	0	0	472	508	0	0	
1	0	0	0	0	465	508	0	0	
2	0	0	0	0	465	505	0	0	
3	0	0	0	0	472	499	0	0	
4	0	0	0	0	476	504	0	0	
5	0	0	0	0	467	510	0	0	
6	0	0	0	0	467	511	0	0	
7	0	0	0	0	472	512	0	0	
8	0	0	0	0	478	511	0	0	
9	0	0	0	0	483	511	0	0	
10	0	0	0	0	486	513	0	0	
11	0	0	0	0	483	511	0	0	
12	0	0	0	0	481	508	0	0	
13	0	0	0	0	480	504	0	0	
14	0	0	0	0	472	508	0	0	
15	0	0	0	0	472	511	0	0	
0	0	0	0	0	481	508	0	0	
1	0	0	0	0	480	511	0	0	
2	0	0	0	0	476	510	0	0	
3	0	0	0	0	476	511	0	0	
4	0	0	0	0	467	510	0	0	
5	0	0	0	0	463	508	0	0	
6	0	0	0	0	463	508	0	0	
7	0	0	0	0	472	505	0	0	
8	0	0	0	0	472	508	0	0	
9	0	0	0	0	467	511	0	0	
10	0	0	0	0	472	510	0	0	
11	0	0	0	0	472	504	0	0	
12	0	0	0	0	476	505	0	0	
13	0	0	0	0	476	512	0	0	
14	0	0	0	0	472	511	0	0	
15	0	0	0	0	472	508	0	0	
0	0	0	0	0	480	512	0	0	
1	0	0	0	0	486	510	0	0	
2	0	0	0	0	492	511	0	0	
3	0	0	0	0	492	508	0	0	
4	0	0	0	0	481	512	0	0	
5	0	0	0	0	481	508	0	0	
6	0	0	0	0	480	505	0	0	
7	0	0	0	0	480	508	0	0	
8	0	0	0	0	478	508	0	0	
9	0	0	0	0	463	510	0	0	
10	0	0	0	0	455	510	0	0	
11	0	0	0	0	462	505	0	0	
12	0	0	0	0	455	508	0	0	
13	0	0	0	0	455	511	0	0	
14	0	0	0	0	463	513	0	0	
15	0	0	0	0	465	511	0	0	
0	0	0	0	0	472	515	0	0	
1	0	0	0	0	478	513	0	0	
2	0	0	0	0	478	508	0	0	
3	0	0	0	0	481	510	0	0	
4	0	0	0	0	480	512	0	0	
5	0	0	0	0	481	513	0	0	
6	0	0	0	0	483	508	0	0	
7	0	0	0	0	487	508	0	0	
8	0	0	0	0	483	505	0	0	
9	0	0	0	0	480	510	0	0	
10	0	0	0	0	480	510	0	0	
11	0	0	0	0	476	510	0	0	
12	0	0	0	0	465	508	0	0	
13	0	0	0	0	462	504	0	0	
14	0	0	0	0	463	504	0	0	
15	0	0	0	0	463	497	0	0	
0	0	0	0	0	463	504	0	0	
1	0	0	0	0	472	519	0	0	
2	0	0	0	0	478	512	0	0	
3	0	0	0	0	480	512	0	0	
4	0	0	0	0	487	512	0	0	
5	0	0	0	0	487	512	0	0	
6	0	0	0	0	483	513	0	0	
7	0	0	0	0	481	510	0	0	
8	0	0	0	0	476	510	0	0	
9	0	0	0	0	473	504	0	0	
10	0	0	0	0	481	508	0	0	
11	0	0	0	0	497	512	0	0	
12	0	0	0	0	499	512	0	0	
13	0	0	0	0	494	515	0	0	
14	0	0	0	0	487	510	0	0	
15	0	0	0	0	481	508	0	0	
0	0	0	0	0	480	515	0	0	
1	0	0	0	0	472	511	0	0	
2	0	0	0	0	455	511	0	0	
3	0	0	0	0	451	510	0	0	
4	0	0	0	0	448	508	0	0	
5	0	0	0	0	448	508	0	0	
6	0	0	0	0	449	508	0	0	
7	0	0	0	0	463	511	0	0	
8	0	0	0	0	480	512	0	0	
9	0	0	0	0	496	511	0	0	
10	0	0	0	0	504	510	0	0	
11	0	0	0	0	504	508	0	0	
12	0	0	0	0	504	508	0	0	
13	0	0	0	0	499	512	0	0	
14	0	0	0	0	494	511	0	0	
15	0	0	0	0	478	508	0	0	
0	0	0	0	0	463	504	0	0	
1	0	0	0	0	472	508	0	0	
2	0	0	0	0	465	510	0	0	
3	0	0	0	0	460	510	0	0	
4	0	0	0	0	462	510	0	0	
5	0	0	0	0	462	512	0	0	
6	0	0	0	0	463	508	0	0	
7	0	0	0	0	460	510	0	0	
8	0	0	0	0	455	508	0	0	
9	0	0	0	0	460	508	0	0	
10	0	0	0	0	463	511	0	0	
11	0	0	0	0	467	511	0	0	
12	0	0	0	0	473	511	0	0	
13	0	0	0	0	480	513	0	0	
14	0	0	0	0	480	513	0	0	
15	0	0	0	0	483	512	0	0	
0	0	0	0	0	487	511	0	0	
1	0	0	0	0	486	510	0	0	
2	0	0	0	0	481	508	0	0	
3	0	0	0	0	483	508	0	0	
4	0	0	0	0	481	508	0	0	
5	0	0	0	0	472	510	0	0	
6	0	0	0	0	467	508	0	0	
7	0	0	0	0	472	504	0	0	
8	0	0	0	0	463	504	0	0	
9	0	0	0	0	463	505	0	0	
10	0	0	0	0	472	513	0	0	
11	0	0	0	0	473	510	0	0	
12	0	0	0	0	472	508	0	0	
13	0	0	0	0	472	510	0	0	
14	0	0	0	0	476	511	0	0	
15	0	0	0	0	480	511	0	0	
0	0	0	0	0	492	508	0	0	
1	0	0	0	0	496	511	0	0	
2	0	0	0	0	492	512	0	0	
3	0	0	0	0	492	513	0	0	
4	0	0	0	0	483	508	0	0	
5	0	0	0	0	480	511	0	0	
6	0	0	0	0	472	512	0	0	
7	0	0	0	0	465	512	0	0	
8	0	0	0	0	472	515	0	0	
9	0	0	0	0	480	510	0	0	
10	0	0	0	0	483	508	0	0	
11	0	0	0	0	483	510	0	0	
12	0	0	0	0	480	508	0	0	
13	0	0	0	0	465	504	0	0	
14	0	0	0	0	460	508	0	0	
15	0	0	0	0	463	508	0	0	
0	0	0	0	0	462	508	0	0	
1	0	0	0	0	455	508	0	0	
2	0	0	0	0	455	508	0	0	
3	0	0	0	0	465	510	0	0	
4	0	0	0	0	472	510	0	0	
5	0	0	0	0	480	512	0	0	
6	0	0	0	0	481	515	0	0	
7	0	0	0	0	483	511	0	0	
8	0	0	0	0	487	515	0	0	
9	0	0	0	0	483	511	0	0	
10	0	0	0	0	483	512	0	0	
11	0	0	0	0	480	504	0	0	
12	0	0	0	0	480	508	0	0	
13	0	0	0	0	478	512	0	0	
14	0	0	0	0	480	504	0	0	
15	0	0	0	0	480	515	0	0	
0	0	0	0	0	480	515	0	0	
1	0	0	0	0	472	510	0	0	
2	0	0	0	0	467	504	0	0	
3	0	0	0	0	465	504	0	0	
4	0	0	0	0	465	504	0	0	
5	0	0	0	0	463	508	0	0	
6	0	0	0	0	476	508	0	0	
7	0	0	0	0	480	512	0	0	
8	0	0	0	0	472	508	0	0	
9	0	0	0	0	480	513	0	0	
10	0	0	0	0	480	511	0	0	
11	0	0	0	0	481	510	0	0	
12	0	0	0	0	481	511	0	0	
13	0	0	0	0	487	510	0	0	
14	0	0	0	0	492	510	0	0	
15	0	0	0	0	492	508	0	0	
0	0	0	0	0	499	510	0	0	
1	0	0	0	0	496	515	0	0	
2	0	0	0	0	483	508	0	0	
3	0	0	0	0	472	508	0	0	
4	0	0	0	0	463	504	0	0	
5	0	0	0	0	465	504	0	0	
6	0	0	0	0	462	508	0	0	
7	0	0	0	0	460	508	0	0	
8	0	0	0	0	449	511	0	0	
9	0	0	0	0	440	519	0	0	
10	0	0	0	0	451	513	0	0	
11	0	0	0	0	463	511	0	0	
12	0	0	0	0	476	513	0	0	
13	0	0	0	0	492	512	0	0	
14	0	0	0	0	487	511	0	0	
15	0	0	0	0	483	512	0	0	
0	0	0	0	0	480	513	0	0	
1	0	0	0	0	473	508	0	0	
2	0	0	0	0	472	508	0	0	
3	0	0	0	0	481	504	0	0	
4	0	0	0	0	483	518	0	0	
5	0	0	0	0	480	513	0	0	
6	0	0	0	0	472	510	0	0	
7	0	0	0	0	472	504	0	0	
8	0	0	0	0	472	504	0	0	
9	0	0	0	0	470	504	0	0	
10	0	0	0	0	465	511	0	0	
11	0	0	0	0	467	508	0	0	
12	0	0	0	0	467	508	0	0	
13	0	0	0	0	472	508	0	0	
14	0	0	0	0	476	510	0	0	
15	0	0	0	0	480	508	0	0	
0	0	0	0	0	480	508	0	0	
1	0	0	0	0	480	511	0	0	
2	0	0	0	0	487	510	0	0	
3	0	0	0	0	487	508	0	0	
4	0	0	0	0	480	518	0	0	
5	0	0	0	0	487	515	0	0	
6	0	0	0	0	483	512	0	0	
7	0	0	0	0	480	508	0	0	
8	0	0	0	0	478	508	0	0	
9	0	0	0	0	487	508	0	0	
10	0	0	0	0	486	505	0	0	
11	0	0	0	0	480	504	0	0	
12	0	0	0	0	487	504	0	0	
13	0	0	0	0	487	512	0	0	
14	0	0	0	0	480	511	0	0	
15	0	0	0	0	467	504	0	0	
0	0	0	0	0	460	510	0	0	
1	0	0	0	0	449	512	0	0	
2	0	0	0	0	448	511	0	0	
3	0	0	0	0	454	513	0	0	
4	0	0	0	0	451	511	0	0	
5	0	0	0	0	462	510	0	0	
6	0	0	0	0	472	511	0	0	
7	0	0	0	0	480	510	0	0	
8	0	0	0	0	483	512	0	0	
9	0	0	0	0	483	511	0	0	
10	0	0	0	0	487	511	0	0	
11	0	0	0	0	483	510	0	0	
12	0	0	0	0	480	508	0	0	
13	0	0	0	0	480	508	0	0	
14	0	0	0	0	480	508	0	0	
15	0	0	0	0	480	508	0	0	
0	0	0	0	0	462	510	0	0	
1	0	0	0	0	448	508	0	0	
2	0	0	0	0	460	513	0	0	
3	0	0	0	0	465	508	0	0	
4	0	0	0	0	465	508	0	0	
5	0	0	0	0	463	510	0	0	
6	0	0	0	0	467	508	0	0	
7	0	0	0	0	476	511	0	0	
8	0	0	0	0	476	508	0	0	
9	0	0	0	0	480	511	0	0	
10	0	0	0	0	483	511	0	0	
11	0	0	0	0	483	511	0	0	
12	0	0	0	0	480	511	0	0	
13	0	0	0	0	481	513	0	0	
14	0	0	0	0	480	512	0	0	
15	0	0	0	0	483	508	0	0	
0	0	0	0	0	480	515	0	0	
1	0	0	0	0	476	510	0	0	
2	0	0	0	0	476	504	0	0	
3	0	0	0	0	483	505	0	0	
4	0	0	0	0	476	505	0	0	
5	0	0	0	0	463	508	0	0	
6	0	0	0	0	465	511	0	0	
7	0	0	0	0	465	508	0	0	
8	0	0	0	0	463	511	0	0	
9	0	0	0	0	463	508	0	0	
10	0	0	0	0	465	510	0	0	
11	0	0	0	0	465	510	0	0	
12	0	0	0	0	472	512	0	0	
13	0	0	0	0	476	512	0	0	
14	0	0	0	0	476	511	0	0	
15	0	0	0	0	480	512	0	0	
0	0	0	0	0	481	513	0	0	
1	0	0	0	0	480	512	0	0	
2	0	0	0	0	483	508	0	0	
3	0	0	0	0	492	508	0	0	
4	0	0	0	0	497	510	0	0	
5	0	0	0	0	496	504	0	0	
6	0	0	0	0	483	504	0	0	
7	0	0	0	0	481	504	0	0	
8	0	0	0	0	472	510	0	0	
9	0	0	0	0	467	510	0	0	
10	0	0	0	0	463	504	0	0	
11	0	0	0	0	460	504	0	0	
12	0	0	0	0	455	504	0	0	
13	0	0	0	0	451	508	0	0	
14	0	0	0	0	460	511	0	0	
15	0	0	0	0	462	512	0	0	
0	0	0	0	0	465	513	0	0	
1	0	0	0	0	472	513	0	0	
2	0	0	0	0	480	511	0	0	
3	0	0	0	0	487	510	0	0	
4	0	0	0	0	496	511	0	0	
5	0	0	0	0	496	511	0	0	
6	0	0	0	0	492	511	0	0	
7	0	0	0	0	487	508	0	0	
8	0	0	0	0	487	511	0	0	
9	0	0	0	0	487	510	0	0	
10	0	0	0	0	481	505	0	0	
11	0	0	0	0	472	508	0	0	
12	0	0	0	0	465	512	0	0	
13	0	0	0	0	455	504	0	0	
14	0	0	0	0	448	502	0	0	
15	0	0	0	0	449	499	0	0	
0	0	0	0	0	449	504	0	0	
1	0	0	0	0	455	510	0	0	
2	0	0	0	0	463	515	0	0	
3	0	0	0	0	472	515	0	0	
4	0	0	0	0	472	511	0	0	
5	0	0	0	0	480	508	0	0	
6	0	0	0	0	480	512	0	0	
7	0	0	0	0	486	511	0	0	
8	0	0	0	0	480	511	0	0	
9	0	0	0	0	483	510	0	0	
10	0	0	0	0	496	504	0	0	
11	0	0	0	0	499	508	0	0	
12	0	0	0	0	487	513	0	0	
13	0	0	0	0	487	508	0	0	
14	0	0	0	0	480	508	0	0	
15	0	0	0	0	463	511	0	0	
0	0	0	0	0	455	510	0	0	
1	0	0	0	0	455	508	0	0	
2	0	0	0	0	478	504	0	0	
3	0	0	0	0	483	504	0	0	
4	0	0	0	0	465	508	0	0	
5	0	0	0	0	451	511	0	0	
6	0	0	0	0	460	513	0	0	
7	0	0	0	0	467	513	0	0	
8	0	0	0	0	472	512	0	0	
9	0	0	0	0	476	511	0	0	
10	0	0	0	0	476	511	0	0	
11	0	0	0	0	480	511	0	0	
12	0	0	0	0	476	508	0	0	
13	0	0	0	0	480	508	0	0	
14	0	0	0	0	480	508	0	0	
15	0	0	0	0	480	511	0	0	
0	0	0	0	0	480	508	0	0	
1	0	0	0	0	480	513	0	0	
2	0	0	0	0	481	511	0	0	
3	0	0	0	0	480	511	0	0	
4	0	0	0	0	467	510	0	0	
5	0	0	0	0	467	508	0	0	
6	0	0	0	0	467	510	0	0	
7	0	0	0	0	467	511	0	0	
8	0	0	0	0	467	508	0	0	
9	0	0	0	0	460	511	0	0	
10	0	0	0	0	467	508	0	0	
11	0	0	0	0	472	513	0	0	
12	0	0	0	0	483	519	0	0	
13	0	0	0	0	492	519	0	0	
14	0	0	0	0	483	519	0	0	
15	0	0	0	0	483	513	0	0	
0	0	0	0	0	476	519	0	0	
1	0	0	0	0	465	512	0	0	
2	0	0	0	0	478	504	0	0	
3	0	0	0	0	483	504	0	0	
4	0	0	0	0	487	499	0	0	
5	0	0	0	0	481	505	0	0	
6	0	0	0	0	472	508	0	0	
7	0	0	0	0	462	505	0	0	
8	0	0	0	0	460	505	0	0	
9	0	0	0	0	463	504	0	0	
10	0	0	0	0	472	512	0	0	
11	0	0	0	0	472	508	0	0	
12	0	0	0	0	467	508	0	0	
13	0	0	0	0	467	508	0	0	
14	0	0	0	0	476	508	0	0	
15	0	0	0	0	480	512	0	0	
0	0	0	0	0	487	511	0	0	
1	0	0	0	0	496	510	0	0	
2	0	0	0	0	487	513	0	0	
3	0	0	0	0	487	513	0	0	
4	0	0	0	0	487	512	0	0	
5	0	0	0	0	487	510	0	0	
6	0	0	0	0	487	508	0	0	
7	0	0	0	0	483	508	0	0	
8	0	0	0	0	483	511	0	0	
9	0	0	0	0	476	511	0	0	
10	0	0	0	0	473	511	0	0	
11	0	0	0	0	467	508	0	0	
12	0	0	0	0	472	499	0	0	
13	0	0	0	0	472	497	0	0	
14	0	0	0	0	465	504	0	0	
15	0	0	0	0	467	508	0	0	
0	0	0	0	0	463	508	0	0	
1	0	0	0	0	462	518	0	0	
2	0	0	0	0	465	519	0	0	
3	0	0	0	0	472	513	0	0	
4	0	0	0	0	476	515	0	0	
5	0	0	0	0	480	512	0	0	
6	0	0	0	0	480	508	0	0	
7	0	0	0	0	480	505	0	0	
8	0	0	0	0	483	510	0	0	
9	0	0	0	0	486	512	0	0	
10	0	0	0	0	487	511	0	0	
11	0	0	0	0	483	508	0	0	
12	0	0	0	0	472	513	0	0	
13	0	0	0	0	467	508	0	0	
14	0	0	0	0	463	508	0	0	
15	0	0	0	0	463	508	0	0	
0	0	0	0	0	463	504	0	0	
1	0	0	0	0	463	504	0	0	
2	0	0	0	0	467	504	0	0	
3	0	0	0	0	476	505	0	0	
4	0	0	0	0	480	510	0	0	
5	0	0	0	0	467	505	0	0	
6	0	0	0	0	460	515	0	0	
7	0	0	0	0	463	511	0	0	
8	0	0	0	0	472	508	0	0	
9	0	0	0	0	476	519	0	0	
10	0	0	0	0	483	513	0	0	
11	0	0	0	0	483	510	0	0	
12	0	0	0	0	483	511	0	0	
13	0	0	0	0	483	510	0	0	
14	0	0	0	0	487	508	0	0	
15	0	0	0	0	492	508	0	0	
0	0	0	0	0	492	505	0	0	
1	0	0	0	0	486	508	0	0	
2	0	0	0	0	483	504	0	0	
3	0	0	0	0	481	508	0	0	
4	0	0	0	0	480	504	0	0	
5	0	0	0	0	483	504	0	0	
6	0	0	0	0	483	505	0	0	
7	0	0	0	0	481	508	0	0	
8	0	0	0	0	480	510	0	0	
9	0	0	0	0	480	512	0	0	
10	0	0	0	0	472	512	0	0	
11	0	0	0	0	460	511	0	0	
12	0	0	0	0	455	511	0	0	
13	0	0	0	0	449	512	0	0	
14	0	0	0	0	448	512	0	0	
15	0	0	0	0	455	519	0	0	
0	0	0	0	0	455	511	0	0	
1	0	0	0	0	467	508	0	0	
2	0	0	0	0	480	510	0	0	
3	0	0	0	0	480	508	0	0	
4	0	0	0	0	480	508	0	0	
5	0	0	0	0	478	508	0	0	
6	0	0	0	0	470	504	0	0	
7	0	0	0	0	465	504	0	0	
8	0	0	0	0	463	504	0	0	
9	0	0	0	0	455	512	0	0	
10	0	0	0	0	462	508	0	0	
11	0	0	0	0	465	510	0	0	
12	0	0	0	0	467	508	0	0	
13	0	0	0	0	463	508	0	0	
14	0	0	0	0	463	510	0	0	
15	0	0	0	0	467	512	0	0	
0	0	0	0	0	480	511	0	0	
1	0	0	0	0	487	510	0	0	
2	0	0	0	0	489	510	0	0	
3	0	0	0	0	496	510	0	0	
4	0	0	0	0	494	513	0	0	
5	0	0	0	0	492	515	0	0	
6	0	0	0	0	492	508	0	0	
7	0	0	0	0	486	504	0	0	
8	0	0	0	0	480	499	0	0	
9	0	0	0	0	472	504	0	0	
10	0	0	0	0	472	508	0	0	
11	0	0	0	0	467	513	0	0	
12	0	0	0	0	472	519	0	0	
13	0	0	0	0	472	511	0	0	
14	0	0	0	0	473	510	0	0	
15	0	0	0	0	472	504	0	0	
0	0	0	0	0	465	508	0	0	
1	0	0	0	0	467	504	0	0	
2	0	0	0	0	463	508	0	0	
3	0	0	0	0	463	511	0	0	
4	0	0	0	0	472	513	0	0	
5	0	0	0	0	480	511	0	0	
6	0	0	0	0	480	510	0	0	
7	0	0	0	0	486	512	0	0	
8	0	0	0	0	487	515	0	0	
9	0	0	0	0	483	512	0	0	
10	0	0	0	0	483	511	0	0	
11	0	0	0	0	481	511	0	0	
12	0	0	0	0	480	508	0	0	
13	0	0	0	0	476	508	0	0	
14	0	0	0	0	472	510	0	0	
15	0	0	0	0	467	508	0	0	
0	0	0	0	0	463	505	0	0	
1	0	0	0	0	470	504	0	0	
2	0	0	0	0	463	508	0	0	
3	0	0	0	0	460	504	0	0	
4	0	0	0	0	455	508	0	0	
5	0	0	0	0	460	511	0	0	
6	0	0	0	0	463	510	0	0	
7	0	0	0	0	467	513	0	0	
8	0	0	0	0	472	512	0	0	
9	0	0	0	0	492	512	0	0	
10	0	0	0	0	499	511	0	0	
11	0	0	0	0	496	512	0	0	
12	0	0	0	0	492	515	0	0	
13	0	0	0	0	481	508	0	0	
14	0	0	0	0	481	505	0	0	
15	0	0	0	0	483	505	0	0	
0	0	0	0	0	483	508	0	0	
1	0	0	0	0	472	511	0	0	
2	0	0	0	0	463	504	0	0	
3	0	0	0	0	455	508	0	0	
4	0	0	0	0	455	508	0	0	
5	0	0	0	0	462	511	0	0	
6	0	0	0	0	476	508	0	0	
7	0	0	0	0	481	504	0	0	
8	0	0	0	0	483	515	0	0	
9	0	0	0	0	481	519	0	0	
10	0	0	0	0	487	510	0	0	
11	0	0	0	0	487	513	0	0	
12	0	0	0	0	483	511	0	0	
13	0	0	0	0	483	515	0	0	
14	0	0	0	0	476	510	0	0	
15	0	0	0	0	476	499	0	0	
0	0	0	0	0	480	499	0	0	
1	0	0	0	0	476	504	0	0	
2	0	0	0	0	467	508	0	0	
3	0	0	0	0	465	513	0	0	
4	0	0	0	0	463	508	0	0	
5	0	0	0	0	467	504	0	0	
6	0	0	0	0	462	499	0	0	
7	0	0	0	0	448	504	0	0	
8	0	0	0	0	451	518	0	0	
9	0	0	0	0	472	527	0	0	
10	0	0	0	0	480	527	0	0	
11	0	0	0	0	476	518	0	0	
12	0	0	0	0	483	527	0	0	
13	0	0	0	0	487	513	0	0	
14	0	0	0	0	496	531	0	0	
15	0	0	0	0	487	526	0	0	
0	0	0	0	0	476	540	0	0	
1	0	0	0	0	487	512	0	0	
2	0	0	0	0	487	460	0	0	
3	0	0	0	0	480	423	0	0	
4	0	0	0	0	467	444	0	0	
5	0	0	0	0	472	483	0	0	
6	0	0	0	0	449	531	0	0	
7	0	0	0	0	460	560	0	0	
8	0	0	0	0	492	556	0	0	
9	0	0	0	0	463	560	0	0	
10	0	0	0	0	460	624	0	0	
11	0	0	0	0	449	591	0	0	
12	0	0	0	0	433	536	0	0	
13	0	0	0	0	444	467	0	0	
14	0	0	0	0	432	448	0	0	
15	0	0	0	0	364	440	0	0	
0	0	0	0	0	371	430	0	0	
1	0	0	0	0	440	384	0	0	
2	0	0	0	0	480	448	0	0	
3	0	0	0	0	508	487	0	0	
4	0	0	0	0	529	492	0	0	
5	0	0	0	0	496	526	0	0	
6	0	0	0	0	348	551	0	0	
7	0	0	0	0	192	583	0	0	
8	0	0	0	0	286	583	0	0	
9	0	0	0	0	455	497	0	0	
10	0	0	0	0	480	403	0	0	
11	0	0	0	0	467	440	0	0	
12	0	0	0	0	408	615	0	0	
13	0	0	0	0	391	732	1	0	
14	0	0	0	0	574	711	0	0	
15	0	0	0	0	524	639	0	0	
0	0	0	0	0	355	638	0	0	
1	0	0	0	0	319	560	1	0	
2	0	0	0	0	408	391	7	0	
3	0	0	0	0	384	246	39	17	
4	0	0	0	0	396	295	63	33	
5	0	0	0	0	542	339	79	44	
6	0	0	0	0	568	287	127	44	
7	0	0	0	0	655	295	159	48	
8	0	0	0	0	739	366	184	56	
9	0	0	0	0	696	463	225	60	
10	0	0	0	0	556	591	231	60	
11	0	0	0	0	496	624	240	63	
12	0	0	0	0	721	627	248	63	
13	0	0	0	0	723	654	271	67	
14	0	0	0	0	519	783	270	71	
15	0	0	0	0	463	691	271	71	
0	0	0	0	0	384	721	280	76	
1	0	0	0	0	399	608	291	71	
2	0	0	0	0	412	399	304	79	
3	0	0	0	0	423	412	319	79	
4	0	0	0	0	526	440	352	97	
5	0	0	0	0	435	440	366	103	
6	0	0	0	0	323	415	371	97	
7	0	0	0	0	275	511	384	115	
8	0	0	0	0	240	492	384	124	
9	0	0	0	0	147	401	385	126	
10	0	0	0	0	271	415	385	135	
11	0	0	0	0	472	515	391	135	
12	0	0	0	0	665	575	396	131	
13	0	0	0	0	728	531	403	135	
14	0	0	0	0	688	519	415	135	
15	0	0	0	0	711	504	422	135	
0	0	0	0	0	624	483	432	145	
1	0	0	0	0	536	472	422	147	
2	0	0	0	0	560	504	419	150	
3	0	0	0	0	632	575	430	156	
4	0	0	0	0	615	593	415	153	
5	0	0	0	0	575	632	419	152	
6	0	0	0	0	496	512	432	152	
7	0	0	0	0	519	463	428	156	
8	0	0	0	0	497	524	435	156	
9	0	0	0	0	422	561	441	156	
10	0	0	0	0	499	551	451	158	
11	0	0	0	0	561	470	455	158	
12	0	0	0	0	396	366	460	159	
13	0	0	0	0	302	295	467	159	
14	0	0	0	0	412	419	463	159	
15	0	0	0	0	536	575	465	159	
0	0	0	0	0	608	574	476	159	
1	0	0	0	0	657	556	481	161	
2	0	0	0	0	572	547	487	163	
3	0	0	0	0	433	472	496	161	
4	0	0	0	0	415	414	496	163	
5	0	0	0	0	476	419	499	163	
6	0	0	0	0	432	575	508	163	
7	0	0	0	0	319	638	504	163	
8	0	0	0	0	319	627	508	159	
9	0	0	0	0	403	515	510	159	
10	0	0	0	0	497	415	513	161	
11	0	0	0	0	547	419	519	159	
12	0	0	0	0	513	487	527	163	
13	0	0	0	0	472	575	529	167	
14	0	0	0	0	440	551	531	167	
15	0	0	0	0	492	521	536	172	
0	0	0	0	0	508	481	543	174	
1	0	0	0	0	448	480	547	184	
2	0	0	0	0	476	487	547	188	
3	0	0	0	0	504	527	556	184	
4	0	0	0	0	540	536	560	192	
5	0	0	0	0	527	524	568	195	
6	0	0	0	0	492	519	563	199	
7	0	0	0	0	515	519	568	204	
8	0	0	0	0	512	518	575	204	
9	0	0	0	0	472	515	575	199	
10	0	0	0	0	432	513	579	199	
11	0	0	0	0	403	508	583	204	
12	0	0	0	0	369	511	591	207	
13	0	0	0	0	396	508	591	206	
14	0	0	0	0	449	511	595	207	
15	0	0	0	0	444	519	600	207	
0	0	0	0	0	448	508	591	216	
1	0	0	0	0	472	508	595	216	
2	0	0	0	0	480	508	595	207	
3	0	0	0	0	487	510	595	207	
4	0	0	0	0	496	511	600	211	
5	0	0	0	0	455	511	600	211	
6	0	0	0	0	472	512	600	211	
7	0	0	0	0	463	511	600	216	
8	0	0	0	0	448	512	600	216	
9	0	0	0	0	467	518	604	216	
10	0	0	0	0	542	515	604	224	
11	0	0	0	0	579	510	604	227	
12	0	0	0	0	563	513	608	227	
13	0	0	0	0	537	505	608	236	
14	0	0	0	0	486	510	608	238	
15	0	0	0	0	455	511	608	240	
0	0	0	0	0	428	504	608	240	
1	0	0	0	0	432	497	608	255	
2	0	0	0	0	455	494	614	255	
3	0	0	0	0	417	496	611	254	
4	0	0	0	0	391	496	611	255	
5	0	0	0	0	460	499	615	255	
6	0	0	0	0	480	504	615	255	
7	0	0	0	0	480	508	620	255	
8	0	0	0	0	465	508	615	255	
9	0	0	0	0	455	510	615	255	
10	0	0	0	0	483	513	615	263	
11	0	0	0	0	467	504	620	271	
12	0	0	0	0	451	508	622	271	
13	0	0	0	0	462	511	620	270	
14	0	0	0	0	476	519	622	275	
15	0	0	0	0	511	515	624	271	
0	0	0	0	0	519	505	624	273	
1	0	0	0	0	531	504	624	271	
2	0	0	0	0	560	511	624	271	
3	0	0	0	0	579	512	624	275	
4	0	0	0	0	556	512	624	271	
5	0	0	0	0	448	515	624	270	
6	0	0	0	0	380	511	624	271	
7	0	0	0	0	387	524	625	271	
8	0	0	0	0	423	572	625	271	
9	0	0	0	0	359	575	625	271	
10	0	0	0	0	344	600	625	270	
11	0	0	0	0	408	515	624	271	
12	0	0	0	0	448	430	625	271	
13	0	0	0	0	430	387	625	271	
14	0	0	0	0	551	432	625	271	
15	0	0	0	0	588	476	625	271	
0	0	0	0	0	483	499	625	273	
1	0	0	0	0	455	519	624	271	
2	0	0	0	0	512	472	624	270	
3	0	0	0	0	568	504	624	271	
4	0	0	0	0	563	519	624	271	
5	0	0	0	0	505	542	624	280	
6	0	0	0	0	499	499	624	280	
7	0	0	0	0	512	492	624	280	
8	0	0	0	0	483	537	625	284	
9	0	0	0	0	487	551	627	284	
10	0	0	0	0	558	540	624	286	
11	0	0	0	0	561	526	625	284	
12	0	0	0	0	508	508	624	286	
13	0	0	0	0	463	519	627	286	
14	0	0	0	0	423	513	627	286	
15	0	0	0	0	376	511	624	291	
0	0	0	0	0	384	513	625	287	
1	0	0	0	0	430	513	624	289	
2	0	0	0	0	423	510	625	287	
3	0	0	0	0	451	487	624	289	
4	0	0	0	0	515	494	624	291	
5	0	0	0	0	492	527	624	291	
6	0	0	0	0	472	531	622	287	
7	0	0	0	0	512	512	620	287	
8	0	0	0	0	519	527	620	287	
9	0	0	0	0	499	531	615	287	
10	0	0	0	0	483	513	615	287	
11	0	0	0	0	448	487	615	287	
12	0	0	0	0	440	472	615	287	
13	0	0	0	0	408	487	615	284	
14	0	0	0	0	432	527	615	280	
15	0	0	0	0	476	536	609	275	
0	0	0	0	0	463	504	609	271	
1	0	0	0	0	440	496	608	262	
2	0	0	0	0	478	499	608	255	
3	0	0	0	0	494	463	608	255	
4	0	0	0	0	481	473	608	255	
5	0	0	0	0	504	497	608	254	
6	0	0	0	0	499	527	604	252	
7	0	0	0	0	527	551	600	246	
8	0	0	0	0	527	551	600	243	
9	0	0	0	0	440	527	591	241	
10	0	0	0	0	415	540	591	240	
11	0	0	0	0	440	556	591	238	
12	0	0	0	0	455	568	591	236	
13	0	0	0	0	467	519	591	236	
14	0	0	0	0	504	460	591	231	
15	0	0	0	0	542	415	591	236	
0	0	0	0	0	560	423	590	231	
1	0	0	0	0	531	480	585	231	
2	0	0	0	0	463	515	583	231	
3	0	0	0	0	417	519	575	231	
4	0	0	0	0	419	487	575	231	
5	0	0	0	0	403	496	575	231	
6	0	0	0	0	419	512	575	231	
7	0	0	0	0	423	511	575	231	
8	0	0	0	0	408	504	574	227	
9	0	0	0	0	414	504	575	227	
10	0	0	0	0	487	504	575	227	
11	0	0	0	0	568	521	579	227	
12	0	0	0	0	504	529	575	227	
13	0	0	0	0	504	527	575	227	
14	0	0	0	0	543	540	575	225	
15	0	0	0	0	504	551	575	227	
0	0	0	0	0	476	529	575	230	
1	0	0	0	0	481	508	575	227	
2	0	0	0	0	472	492	575	230	
3	0	0	0	0	480	496	575	230	
4	0	0	0	0	480	504	575	231	
5	0	0	0	0	478	540	575	230	
6	0	0	0	0	451	529	575	230	
7	0	0	0	0	455	476	575	230	
8	0	0	0	0	508	460	579	231	
9	0	0	0	0	492	494	583	231	
10	0	0	0	0	467	519	579	231	
11	0	0	0	0	449	536	575	231	
12	0	0	0	0	448	519	575	231	
13	0	0	0	0	472	499	575	230	
14	0	0	0	0	504	472	575	231	
15	0	0	0	0	560	472	575	231	
0	0	0	0	0	513	499	575	231	
1	0	0	0	0	508	519	575	230	
2	0	0	0	0	536	519	572	227	
3	0	0	0	0	492	526	572	227	
4	0	0	0	0	499	519	572	227	
5	0	0	0	0	511	519	572	225	
6	0	0	0	0	476	519	574	224	
7	0	0	0	0	390	515	574	224	
8	0	0	0	0	318	515	572	224	
9	0	0	0	0	396	515	574	225	
10	0	0	0	0	432	512	574	224	
11	0	0	0	0	376	512	575	224	
12	0	0	0	0	366	508	572	224	
13	0	0	0	0	486	504	568	224	
14	0	0	0	0	600	511	572	224	
15	0	0	0	0	563	504	572	224	
0	0	0	0	0	494	508	572	224	
1	0	0	0	0	512	508	572	224	
2	0	0	0	0	537	515	574	224	
3	0	0	0	0	543	515	572	224	
4	0	0	0	0	551	508	572	224	
5	0	0	0	0	527	508	572	224	
6	0	0	0	0	496	510	572	224	
7	0	0	0	0	483	511	572	224	
8	0	0	0	0	460	512	572	224	
9	0	0	0	0	423	511	568	224	
10	0	0	0	0	384	508	568	224	
11	0	0	0	0	428	494	568	222	
12	0	0	0	0	463	504	568	220	
13	0	0	0	0	483	504	568	220	
14	0	0	0	0	476	496	568	220	
15	0	0	0	0	455	508	563	217	
0	0	0	0	0	481	542	563	216	
1	0	0	0	0	480	536	563	216	
2	0	0	0	0	463	487	560	211	
3	0	0	0	0	476	494	560	211	
4	0	0	0	0	432	512	560	211	
5	0	0	0	0	399	504	558	211	
6	0	0	0	0	440	505	556	207	
7	0	0	0	0	512	515	558	209	
8	0	0	0	0	508	504	558	207	
9	0	0	0	0	483	496	556	207	
10	0	0	0	0	492	519	556	209	
11	0	0	0	0	476	572	556	207	
12	0	0	0	0	463	561	556	207	
13	0	0	0	0	472	543	551	207	
14	0	0	0	0	513	472	547	207	
15	0	0	0	0	560	440	547	207	
0	0	0	0	0	558	455	543	207	
1	0	0	0	0	504	480	545	206	
2	0	0	0	0	444	494	543	204	
3	0	0	0	0	423	515	543	204	
4	0	0	0	0	440	540	543	207	
5	0	0	0	0	449	519	543	199	
6	0	0	0	0	463	511	543	199	
7	0	0	0	0	414	519	543	199	
8	0	0	0	0	423	536	543	195	
9	0	0	0	0	486	540	543	195	
10	0	0	0	0	519	543	543	193	
11	0	0	0	0	512	519	543	193	
12	0	0	0	0	508	489	542	192	
13	0	0	0	0	519	465	543	192	
14	0	0	0	0	510	496	543	192	
15	0	0	0	0	472	463	542	184	
0	0	0	0	0	440	487	542	179	
1	0	0	0	0	451	524	540	179	
2	0	0	0	0	462	519	540	176	
3	0	0	0	0	467	515	542	174	
4	0	0	0	0	480	519	542	172	
5	0	0	0	0	487	529	542	172	
6	0	0	0	0	487	512	542	167	
7	0	0	0	0	476	524	543	167	
8	0	0	0	0	487	543	543	172	
9	0	0	0	0	496	508	540	167	
10	0	0	0	0	483	499	540	172	
11	0	0	0	0	455	472	540	167	
12	0	0	0	0	440	455	537	167	
13	0	0	0	0	455	497	540	163	
14	0	0	0	0	444	526	540	159	
15	0	0	0	0	444	519	540	159	
0	0	0	0	0	460	515	540	158	
1	0	0	0	0	487	512	540	156	
2	0	0	0	0	527	511	540	156	
3	0	0	0	0	529	519	537	152	
4	0	0	0	0	508	515	529	147	
5	0	0	0	0	487	510	527	147	
6	0	0	0	0	487	508	527	145	
7	0	0	0	0	504	505	527	143	
8	0	0	0	0	472	510	524	143	
9	0	0	0	0	423	519	524	143	
10	0	0	0	0	415	527	524	142	
11	0	0	0	0	412	524	519	140	
12	0	0	0	0	419	504	518	140	
13	0	0	0	0	433	511	515	135	
14	0	0	0	0	480	505	513	135	
15	0	0	0	0	511	511	513	135	
0	0	0	0	0	526	496	512	131	
1	0	0	0	0	487	494	510	127	
2	0	0	0	0	496	499	508	127	
3	0	0	0	0	536	511	505	127	
4	0	0	0	0	515	512	504	127	
5	0	0	0	0	519	518	504	127	
6	0	0	0	0	511	511	504	124	
7	0	0	0	0	496	515	499	120	
8	0	0	0	0	460	515	504	118	
9	0	0	0	0	460	512	504	115	
10	0	0	0	0	513	508	497	113	
11	0	0	0	0	504	508	496	112	
12	0	0	0	0	499	508	496	111	
13	0	0	0	0	499	510	494	110	
14	0	0	0	0	504	499	496	103	
15	0	0	0	0	481	504	496	97	
0	0	0	0	0	422	504	492	94	
1	0	0	0	0	465	515	492	92	
2	0	0	0	0	496	512	492	92	
3	0	0	0	0	430	504	487	89	
4	0	0	0	0	384	504	487	88	
5	0	0	0	0	412	504	487	83	
6	0	0	0	0	422	504	483	83	
7	0	0	0	0	432	508	483	79	
8	0	0	0	0	440	524	480	76	
9	0	0	0	0	462	527	480	71	
10	0	0	0	0	460	519	480	71	
11	0	0	0	0	480	511	480	71	
12	0	0	0	0	478	508	480	71	
13	0	0	0	0	472	505	480	71	
14	0	0	0	0	499	513	478	71	
15	0	0	0	0	499	515	478	70	
0	0	0	0	0	504	519	480	71	
1	0	0	0	0	472	551	476	67	
2	0	0	0	0	448	543	473	67	
3	0	0	0	0	444	529	472	65	
4	0	0	0	0	455	480	472	70	
5	0	0	0	0	480	448	472	67	
6	0	0	0	0	480	449	467	63	
7	0	0	0	0	441	483	465	63	
8	0	0	0	0	451	496	465	62	
9	0	0	0	0	480	496	463	62	
10	0	0	0	0	497	519	463	62	
11	0	0	0	0	499	527	463	60	
12	0	0	0	0	508	524	463	57	
13	0	0	0	0	515	527	465	56	
14	0	0	0	0	543	519	465	56	
15	0	0	0	0	542	515	463	56	
0	0	0	0	0	510	511	467	56	
1	0	0	0	0	460	513	470	56	
2	0	0	0	0	487	527	467	56	
3	0	0	0	0	492	519	467	60	
4	0	0	0	0	476	486	463	60	
5	0	0	0	0	480	492	467	56	
6	0	0	0	0	487	512	467	56	
7	0	0	0	0	483	519	467	56	
8	0	0	0	0	480	504	465	51	
9	0	0	0	0	455	487	463	56	
10	0	0	0	0	455	499	463	51	
11	0	0	0	0	460	508	463	56	
12	0	0	0	0	440	512	467	48	
13	0	0	0	0	448	515	467	48	
14	0	0	0	0	455	531	467	48	
15	0	0	0	0	449	526	467	49	
0	0	0	0	0	451	512	465	49	
1	0	0	0	0	478	510	465	49	
2	0	0	0	0	483	504	467	49	
3	0	0	0	0	497	511	465	51	
4	0	0	0	0	504	504	465	51	
5	0	0	0	0	494	487	467	49	
6	0	0	0	0	499	492	465	56	
7	0	0	0	0	504	496	467	51	
8	0	0	0	0	504	504	467	51	
9	0	0	0	0	494	504	467	51	
10	0	0	0	0	496	529	467	51	
11	0	0	0	0	487	529	467	51	
12	0	0	0	0	455	518	467	51	
13	0	0	0	0	444	519	465	54	
14	0	0	0	0	428	524	467	51	
15	0	0	0	0	430	512	467	51	
0	0	0	0	0	440	508	467	51	
1	0	0	0	0	455	496	467	56	
2	0	0	0	0	480	499	472	56	
3	0	0	0	0	483	504	472	56	
4	0	0	0	0	480	510	472	54	
5	0	0	0	0	483	508	467	51	
6	0	0	0	0	496	511	467	49	
7	0	0	0	0	496	515	465	51	
8	0	0	0	0	494	551	463	51	
9	0	0	0	0	510	542	463	51	
10	0	0	0	0	499	540	463	48	
11	0	0	0	0	448	515	460	49	
12	0	0	0	0	463	478	455	49	
13	0	0	0	0	472	499	455	48	
14	0	0	0	0	496	472	455	48	
15	0	0	0	0	504	408	451	48	
0	0	0	0	0	496	460	451	48	
1	0	0	0	0	451	519	451	48	
2	0	0	0	0	414	526	448	48	
3	0	0	0	0	451	519	448	48	
4	0	0	0	0	511	519	444	44	
5	0	0	0	0	487	524	444	48	
6	0	0	0	0	444	519	440	44	
7	0	0	0	0	455	515	440	48	
8	0	0	0	0	480	524	440	44	
9	0	0	0	0	472	519	440	46	
10	0	0	0	0	448	513	435	44	
11	0	0	0	0	454	515	440	44	
12	0	0	0	0	463	513	433	44	
13	0	0	0	0	472	513	432	44	
14	0	0	0	0	460	511	430	44	
15	0	0	0	0	432	505	430	46	
0	0	0	0	0	444	504	432	46	
1	0	0	0	0	481	481	430	46	
2	0	0	0	0	504	496	430	46	
3	0	0	0	0	497	515	428	46	
4	0	0	0	0	504	536	423	46	
5	0	0	0	0	524	543	423	46	
6	0	0	0	0	519	526	419	44	
7	0	0	0	0	513	494	415	46	
8	0	0	0	0	476	483	415	44	
9	0	0	0	0	423	497	415	46	
10	0	0	0	0	435	527	415	46	
11	0	0	0	0	449	515	415	44	
12	0	0	0	0	449	504	415	44	
13	0	0	0	0	462	494	415	44	
14	0	0	0	0	467	483	415	44	
15	0	0	0	0	483	496	415	41	
0	0	0	0	0	524	508	415	44	
1	0	0	0	0	542	524	415	44	
2	0	0	0	0	519	527	415	44	
3	0	0	0	0	515	510	415	44	
4	0	0	0	0	472	504	415	44	
5	0	0	0	0	451	508	415	44	
6	0	0	0	0	460	508	415	44	
7	0	0	0	0	472	512	415	44	
8	0	0	0	0	483	508	415	44	
9	0	0	0	0	460	510	415	41	
10	0	0	0	0	449	510	415	44	
11	0	0	0	0	440	513	415	39	
12	0	0	0	0	412	515	415	39	
13	0	0	0	0	398	519	415	39	
14	0	0	0	0	435	519	415	39	
15	0	0	0	0	480	508	415	39	
0	0	0	0	0	505	513	415	39	
1	0	0	0	0	480	504	415	39	
2	0	0	0	0	504	483	415	39	
3	0	0	0	0	560	496	415	39	
4	0	0	0	0	527	504	415	39	
5	0	0	0	0	512	504	415	39	
6	0	0	0	0	499	511	415	39	
7	0	0	0	0	480	511	415	39	
8	0	0	0	0	463	512	415	39	
9	0	0	0	0	465	513	415	39	
10	0	0	0	0	497	512	415	39	
11	0	0	0	0	536	512	415	39	
12	0	0	0	0	527	512	415	39	
13	0	0	0	0	480	508	419	35	
14	0	0	0	0	467	504	415	35	
15	0	0	0	0	448	504	415	35	
0	0	0	0	0	408	513	415	35	
1	0	0	0	0	422	519	415	31	
2	0	0	0	0	444	556	415	35	
3	0	0	0	0	448	527	415	33	
4	0	0	0	0	423	499	415	33	
5	0	0	0	0	430	472	415	33	
6	0	0	0	0	465	455	415	33	
7	0	0	0	0	497	487	415	33	
8	0	0	0	0	504	511	415	33	
9	0	0	0	0	492	519	415	33	
10	0	0	0	0	480	510	415	33	
11	0	0	0	0	489	508	415	31	
12	0	0	0	0	496	536	415	33	
13	0	0	0	0	496	537	414	33	
14	0	0	0	0	480	527	414	33	
15	0	0	0	0	476	519	415	35	
0	0	0	0	0	483	519	414	33	
1	0	0	0	0	492	512	414	30	
2	0	0	0	0	487	483	414	28	
3	0	0	0	0	448	487	412	28	
4	0	0	0	0	428	504	412	28	
5	0	0	0	0	435	512	412	28	
6	0	0	0	0	476	512	412	24	
7	0	0	0	0	494	487	412	28	
8	0	0	0	0	481	496	409	25	
9	0	0	0	0	472	519	412	24	
10	0	0	0	0	504	542	412	24	
11	0	0	0	0	481	527	412	24	
12	0	0	0	0	496	519	412	24	
13	0	0	0	0	531	515	412	24	
14	0	0	0	0	504	508	412	24	
15	0	0	0	0	496	504	412	25	
0	0	0	0	0	492	524	412	28	
1	0	0	0	0	492	519	412	28	
2	0	0	0	0	499	508	412	28	
3	0	0	0	0	494	480	409	28	
4	0	0	0	0	476	480	412	28	
5	0	0	0	0	451	499	412	28	
6	0	0	0	0	440	508	412	28	
7	0	0	0	0	414	510	412	25	
8	0	0	0	0	423	515	412	28	
9	0	0	0	0	463	519	412	25	
10	0	0	0	0	480	519	412	24	
11	0	0	0	0	476	519	412	28	
12	0	0	0	0	467	519	412	25	
13	0	0	0	0	440	511	412	25	
14	0	0	0	0	423	508	409	28	
15	0	0	0	0	460	512	408	28	
0	0	0	0	0	492	527	408	25	
1	0	0	0	0	504	515	408	25	
2	0	0	0	0	527	504	408	24	
3	0	0	0	0	540	487	408	24	
4	0	0	0	0	527	480	403	24	
5	0	0	0	0	504	497	403	24	
6	0	0	0	0	478	511	403	24	
7	0	0	0	0	455	508	399	24	
8	0	0	0	0	440	504	399	22	
9	0	0	0	0	440	508	399	24	
10	0	0	0	0	440	519	399	19	
11	0	0	0	0	448	513	399	19	
12	0	0	0	0	440	512	399	24	
13	0	0	0	0	448	511	398	24	
14	0	0	0	0	460	511	398	19	
15	0	0	0	0	483	505	396	19	
0	0	0	0	0	511	508	396	19	
1	0	0	0	0	515	513	396	19	
2	0	0	0	0	504	515	396	19	
3	0	0	0	0	487	512	391	15	
4	0	0	0	0	504	512	391	15	
5	0	0	0	0	524	508	391	14	
6	0	0	0	0	527	504	391	15	
7	0	0	0	0	511	496	391	15	
8	0	0	0	0	504	508	391	15	
9	0	0	0	0	455	527	391	14	
10	0	0	0	0	391	527	391	14	
11	0	0	0	0	391	529	391	14	
12	0	0	0	0	401	510	390	12	
13	0	0	0	0	428	499	385	12	
14	0	0	0	0	448	496	384	12	
15	0	0	0	0	467	492	384	17	
0	0	0	0	0	480	497	384	12	
1	0	0	0	0	487	496	384	14	
2	0	0	0	0	489	499	384	14	
3	0	0	0	0	487	504	384	12	
4	0	0	0	0	473	511	384	12	
5	0	0	0	0	481	524	384	9	
6	0	0	0	0	487	512	384	9	
7	0	0	0	0	494	543	384	9	
8	0	0	0	0	486	537	384	15	
9	0	0	0	0	463	518	384	7	
10	0	0	0	0	460	483	384	7	
11	0	0	0	0	465	467	384	7	
12	0	0	0	0	467	476	384	3	
13	0	0	0	0	481	504	384	3	
14	0	0	0	0	526	504	384	1	
15	0	0	0	0	527	512	380	1	
0	0	0	0	0	486	504	384	1	
1	0	0	0	0	476	515	380	1	
2	0	0	0	0	489	524	380	0	
3	0	0	0	0	494	527	377	0	
4	0	0	0	0	463	512	377	1	
5	0	0	0	0	433	511	380	0	
6	0	0	0	0	428	521	377	0	
7	0	0	0	0	433	527	377	0	
8	0	0	0	0	462	515	377	0	
9	0	0	0	0	487	527	377	0	
10	0	0	0	0	483	510	377	0	
11	0	0	0	0	483	499	377	0	
12	0	0	0	0	472	496	377	0	
13	0	0	0	0	472	499	376	0	
14	0	0	0	0	483	504	376	0	
15	0	0	0	0	508	504	376	0	
0	0	0	0	0	519	496	376	0	
1	0	0	0	0	542	515	376	0	
2	0	0	0	0	540	524	376	0	
3	0	0	0	0	524	521	371	0	
4	0	0	0	0	508	519	371	0	
5	0	0	0	0	472	504	371	0	
6	0	0	0	0	440	508	368	0	
7	0	0	0	0	415	510	368	0	
8	0	0	0	0	391	524	368	0	
9	0	0	0	0	401	512	368	0	
10	0	0	0	0	423	487	366	0	
11	0	0	0	0	444	481	364	0	
12	0	0	0	0	448	499	366	0	
13	0	0	0	0	444	515	364	0	
14	0	0	0	0	463	524	366	0	
15	0	0	0	0	480	504	364	0	
0	0	0	0	0	496	496	364	0	
1	0	0	0	0	519	504	359	0	
2	0	0	0	0	515	515	359	0	
3	0	0	0	0	504	513	359	0	
4	0	0	0	0	504	545	359	0	
5	0	0	0	0	487	524	358	0	
6	0	0	0	0	467	504	355	0	
7	0	0	0	0	451	487	355	0	
8	0	0	0	0	472	483	355	0	
9	0	0	0	0	467	487	353	0	
10	0	0	0	0	467	508	352	0	
11	0	0	0	0	487	519	348	0	
12	0	0	0	0	483	513	345	0	
13	0	0	0	0	463	515	344	0	
14	0	0	0	0	472	527	344	0	
15	0	0	0	0	487	540	352	0	
0	0	0	0	0	494	537	352	0	
1	0	0	0	0	480	526	344	0	
2	0	0	0	0	481	496	345	0	
3	0	0	0	0	483	486	348	0	
4	0	0	0	0	476	487	337	0	
5	0	0	0	0	476	496	332	0	
6	0	0	0	0	487	508	332	0	
7	0	0	0	0	492	494	332	0	
8	0	0	0	0	476	496	332	0	
9	0	0	0	0	463	504	335	0	
10	0	0	0	0	480	504	335	0	
11	0	0	0	0	492	508	335	0	
12	0	0	0	0	463	515	335	0	
13	0	0	0	0	449	515	335	0	
14	0	0	0	0	448	531	342	0	
15	0	0	0	0	449	527	339	0	
0	0	0	0	0	455	511	339	0	
1	0	0	0	0	460	504	342	0	
2	0	0	0	0	496	512	339	0	
3	0	0	0	0	526	519	339	0	
4	0	0	0	0	492	519	335	0	
5	0	0	0	0	473	508	332	0	
6	0	0	0	0	480	504	327	0	
7	0	0	0	0	487	508	327	0	
8	0	0	0	0	448	504	327	0	
9	0	0	0	0	414	508	327	0	
10	0	0	0	0	419	513	327	0	
11	0	0	0	0	463	519	327	0	
12	0	0	0	0	455	513	327	0	
13	0	0	0	0	463	508	327	0	
14	0	0	0	0	487	505	327	0	
15	0	0	0	0	486	504	327	0	
0	0	0	0	0	480	499	327	0	
1	0	0	0	0	483	499	332	0	
2	0	0	0	0	513	504	332	0	
3	0	0	0	0	513	511	327	0	
4	0	0	0	0	480	511	327	0	
5	0	0	0	0	460	515	327	0	
6	0	0	0	0	476	512	327	0	
7	0	0	0	0	483	483	327	0	
8	0	0	0	0	483	499	327	0	
9	0	0	0	0	476	497	327	0	
10	0	0	0	0	467	513	327	0	
11	0	0	0	0	494	526	327	0	
12	0	0	0	0	496	519	327	0	
13	0	0	0	0	496	519	327	0	
14	0	0	0	0	492	513	327	0	
15	0	0	0	0	483	508	327	0	
0	0	0	0	0	441	512	327	0	
1	0	0	0	0	432	508	327	0	
2	0	0	0	0	472	512	327	0	
3	0	0	0	0	487	504	327	0	
4	0	0	0	0	487	499	327	0	
5	0	0	0	0	455	510	337	0	
6	0	0	0	0	435	504	339	0	
7	0	0	0	0	435	519	339	0	
8	0	0	0	0	472	536	339	0	
9	0	0	0	0	519	526	344	0	
10	0	0	0	0	540	524	344	0	
11	0	0	0	0	527	513	344	0	
12	0	0	0	0	487	508	344	0	
13	0	0	0	0	448	527	344	0	
14	0	0	0	0	441	529	344	0	
15	0	0	0	0	480	527	344	0	
0	0	0	0	0	470	496	344	0	
1	0	0	0	0	465	487	344	0	
2	0	0	0	0	467	483	339	0	
3	0	0	0	0	465	478	344	0	
4	0	0	0	0	481	504	344	0	
5	0	0	0	0	504	508	344	0	
6	0	0	0	0	504	504	344	0	
7	0	0	0	0	476	510	339	0	
8	0	0	0	0	435	519	335	0	
9	0	0	0	0	423	513	335	0	
10	0	0	0	0	440	504	332	0	
11	0	0	0	0	440	508	327	0	
12	0	0	0	0	448	511	332	0	
13	0	0	0	0	451	508	327	0	
14	0	0	0	0	478	519	327	0	
15	0	0	0	0	476	510	327	0	
0	0	0	0	0	481	511	327	0	
1	0	0	0	0	478	519	327	0	
2	0	0	0	0	496	515	327	0	
3	0	0	0	0	512	524	326	0	
4	0	0	0	0	504	515	327	0	
5	0	0	0	0	519	508	323	0	
6	0	0	0	0	531	511	319	0	
7	0	0	0	0	504	487	323	0	
8	0	0	0	0	463	483	323	0	
9	0	0	0	0	435	527	323	0	
10	0	0	0	0	451	536	323	0	
11	0	0	0	0	460	527	319	0	
12	0	0	0	0	476	497	319	0	
13	0	0	0	0	460	480	319	0	
14	0	0	0	0	455	476	323	0	
15	0	0	0	0	455	504	323	0	
0	0	0	0	0	451	519	319	0	
1	0	0	0	0	472	504	319	0	
2	0	0	0	0	508	496	319	0	
3	0	0	0	0	519	508	318	0	
4	0	0	0	0	519	519	318	0	
5	0	0	0	0	487	547	319	0	
6	0	0	0	0	463	551	316	0	
7	0	0	0	0	455	513	316	0	
8	0	0	0	0	435	467	318	0	
9	0	0	0	0	440	448	316	0	
10	0	0	0	0	438	487	316	0	
11	0	0	0	0	472	515	316	0	
12	0	0	0	0	508	524	316	0	
13	0	0	0	0	519	519	316	0	
14	0	0	0	0	524	515	313	0	
15	0	0	0	0	515	513	313	0	
0	0	0	0	0	483	513	316	0	
1	0	0	0	0	455	515	316	0	
2	0	0	0	0	428	499	316	0	
3	0	0	0	0	412	496	316	0	
4	0	0	0	0	419	497	313	0	
5	0	0	0	0	455	504	312	0	
6	0	0	0	0	492	499	312	0	
7	0	0	0	0	486	512	313	0	
8	0	0	0	0	472	511	316	0	
9	0	0	0	0	463	556	312	0	
10	0	0	0	0	448	575	313	0	
11	0	0	0	0	440	524	316	0	
12	0	0	0	0	467	465	316	0	
13	0	0	0	0	476	449	316	0	
14	0	0	0	0	496	480	316	0	
15	0	0	0	0	510	508	316	0	
0	0	0	0	0	504	526	316	0	
1	0	0	0	0	487	519	316	0	
2	0	0	0	0	480	518	316	0	
3	0	0	0	0	476	513	318	0	
4	0	0	0	0	492	508	319	0	
5	0	0	0	0	487	511	316	0	
6	0	0	0	0	486	515	318	0	
7	0	0	0	0	472	515	318	0	
8	0	0	0	0	462	518	318	0	
9	0	0	0	0	448	513	319	0	
10	0	0	0	0	467	497	318	0	
11	0	0	0	0	472	519	319	0	
12	0	0	0	0	455	540	318	0	
13	0	0	0	0	473	527	319	0	
14	0	0	0	0	472	511	319	0	
15	0	0	0	0	504	480	319	0	
0	0	0	0	0	508	472	319	0	
1	0	0	0	0	492	497	319	0	
2	0	0	0	0	473	540	319	0	
3	0	0	0	0	460	540	319	0	
4	0	0	0	0	449	511	319	0	
5	0	0	0	0	463	496	319	0	
6	0	0	0	0	478	496	319	0	
7	0	0	0	0	508	486	318	0	
8	0	0	0	0	510	486	319	0	
9	0	0	0	0	486	492	319	0	
10	0	0	0	0	472	504	318	0	
11	0	0	0	0	460	512	318	0	
12	0	0	0	0	455	519	318	0	
13	0	0	0	0	440	521	318	0	
14	0	0	0	0	460	515	318	0	
15	0	0	0	0	499	515	318	0	
0	0	0	0	0	513	515	318	0	
1	0	0	0	0	510	519	318	0	
2	0	0	0	0	496	515	318	0	
3	0	0	0	0	476	515	318	0	
4	0	0	0	0	455	511	318	0	
5	0	0	0	0	444	504	319	0	
6	0	0	0	0	460	504	319	0	
7	0	0	0	0	441	508	319	0	
8	0	0	0	0	451	512	319	0	
9	0	0	0	0	467	510	319	0	
10	0	0	0	0	487	505	319	0	
11	0	0	0	0	511	508	319	0	
12	0	0	0	0	497	504	319	0	
13	0	0	0	0	473	512	319	0	
14	0	0	0	0	463	510	319	0	
15	0	0	0	0	480	513	319	0	
0	0	0	0	0	476	508	319	0	
1	0	0	0	0	480	504	319	0	
2	0	0	0	0	496	499	319	0	
3	0	0	0	0	497	499	319	0	
4	0	0	0	0	487	504	319	0	
5	0	0	0	0	460	527	319	0	
6	0	0	0	0	455	531	319	0	
7	0	0	0	0	448	527	319	0	
8	0	0	0	0	444	515	319	0	
9	0	0	0	0	449	504	319	0	
10	0	0	0	0	444	504	319	0	
11	0	0	0	0	455	504	319	0	
12	0	0	0	0	499	504	319	0	
13	0	0	0	0	526	512	319	0	
14	0	0	0	0	551	504	319	0	
15	0	0	0	0	519	504	319	0	
0	0	0	0	0	483	505	319	0	
1	0	0	0	0	510	508	318	0	
2	0	0	0	0	515	504	318	0	
3	0	0	0	0	472	515	318	0	
4	0	0	0	0	455	526	319	0	
5	0	0	0	0	441	527	319	0	
6	0	0	0	0	432	497	319	0	
7	0	0	0	0	391	481	318	0	
8	0	0	0	0	398	494	319	0	
9	0	0	0	0	440	536	318	0	
10	0	0	0	0	487	536	318	0	
11	0	0	0	0	496	511	318	0	
12	0	0	0	0	455	492	318	0	
13	0	0	0	0	467	496	318	0	
14	0	0	0	0	483	487	318	0	
15	0	0	0	0	496	508	318	0	
0	0	0	0	0	496	515	318	0	
1	0	0	0	0	483	511	319	0	
2	0	0	0	0	481	508	319	0	
3	0	0	0	0	476	511	319	0	
4	0	0	0	0	480	527	319	0	
5	0	0	0	0	480	527	319	0	
6	0	0	0	0	481	519	319	0	
7	0	0	0	0	483	504	319	0	
8	0	0	0	0	472	496	319	0	
9	0	0	0	0	467	489	319	0	
10	0	0	0	0	455	496	319	0	
11	0	0	0	0	449	504	319	0	
12	0	0	0	0	476	504	319	0	
13	0	0	0	0	496	526	323	0	
14	0	0	0	0	496	524	319	0	
15	0	0	0	0	499	524	323	0	
0	0	0	0	0	508	483	323	0	
1	0	0	0	0	504	473	323	0	
2	0	0	0	0	519	494	323	0	
3	0	0	0	0	515	513	323	0	
4	0	0	0	0	467	515	326	0	
5	0	0	0	0	472	512	326	0	
6	0	0	0	0	492	511	326	0	
7	0	0	0	0	487	513	327	0	
8	0	0	0	0	473	518	327	0	
9	0	0	0	0	435	513	327	0	
10	0	0	0	0	422	521	327	0	
11	0	0	0	0	440	519	327	0	
12	0	0	0	0	451	513	327	0	
13	0	0	0	0	455	504	327	0	
14	0	0	0	0	455	511	327	0	
15	0	0	0	0	480	524	327	0	
0	0	0	0	0	508	531	327	0	
1	0	0	0	0	472	519	327	0	
2	0	0	0	0	472	527	327	0	
3	0	0	0	0	505	513	327	0	
4	0	0	0	0	492	481	327	0	
5	0	0	0	0	489	476	327	0	
6	0	0	0	0	483	487	327	0	
7	0	0	0	0	496	511	332	0	
8	0	0	0	0	508	527	332	0	
9	0	0	0	0	483	524	332	0	
10	0	0	0	0	454	524	335	0	
11	0	0	0	0	423	519	335	0	
12	0	0	0	0	414	508	335	0	
13	0	0	0	0	440	515	335	0	
14	0	0	0	0	463	511	335	0	
15	0	0	0	0	440	510	335	0	
0	0	0	0	0	419	508	335	0	
1	0	0	0	0	441	512	335	0	
2	0	0	0	0	465	511	335	0	
3	0	0	0	0	467	504	335	0	
4	0	0	0	0	448	512	335	0	
5	0	0	0	0	465	534	335	0	
6	0	0	0	0	515	531	337	0	
7	0	0	0	0	510	519	335	0	
8	0	0	0	0	472	508	337	0	
9	0	0	0	0	472	460	337	0	
10	0	0	0	0	508	455	337	0	
11	0	0	0	0	510	480	337	0	
12	0	0	0	0	494	510	339	0	
13	0	0	0	0	480	531	339	0	
14	0	0	0	0	476	531	337	0	
15	0	0	0	0	508	519	337	0	
0	0	0	0	0	511	551	337	0	
1	0	0	0	0	481	531	337	0	
2	0	0	0	0	460	527	337	0	
3	0	0	0	0	460	483	339	0	
4	0	0	0	0	455	455	337	0	
5	0	0	0	0	433	476	337	0	
6	0	0	0	0	444	536	337	0	
7	0	0	0	0	463	527	337	0	
8	0	0	0	0	487	511	339	0	
9	0	0	0	0	513	483	337	0	
10	0	0	0	0	512	487	337	0	
11	0	0	0	0	502	492	339	0	
12	0	0	0	0	476	510	337	0	
13	0	0	0	0	472	499	337	0	
14	0	0	0	0	480	519	337	0	
15	0	0	0	0	499	526	339	0	
0	0	0	0	0	510	511	337	0	
1	0	0	0	0	510	504	337	0	
2	0	0	0	0	492	497	337	0	
3	0	0	0	0	492	504	337	0	
4	0	0	0	0	423	512	337	0	
5	0	0	0	0	396	515	337	0	
6	0	0	0	0	428	519	339	0	
7	0	0	0	0	460	515	339	0	
8	0	0	0	0	463	519	335	0	
9	0	0	0	0	480	515	337	0	
10	0	0	0	0	487	512	337	0	
11	0	0	0	0	460	512	339	0	
12	0	0	0	0	448	510	339	0	
13	0	0	0	0	455	504	339	0	
14	0	0	0	0	460	512	339	0	
15	0	0	0	0	455	512	339	0	
0	0	0	0	0	483	524	339	0	
1	0	0	0	0	496	527	339	0	
2	0	0	0	0	487	515	339	0	
3	0	0	0	0	487	502	339	0	
4	0	0	0	0	499	499	339	0	
5	0	0	0	0	519	499	339	0	
6	0	0	0	0	524	496	339	0	
7	0	0	0	0	513	494	339	0	
8	0	0	0	0	496	499	339	0	
9	0	0	0	0	480	508	339	0	
10	0	0	0	0	472	511	339	0	
11	0	0	0	0	467	511	339	0	
12	0	0	0	0	476	513	339	0	
13	0	0	0	0	467	515	339	0	
14	0	0	0	0	476	511	339	0	
15	0	0	0	0	463	511	339	0	
0	0	0	0	0	423	512	339	0	
1	0	0	0	0	430	534	339	0	
2	0	0	0	0	467	521	339	0	
3	0	0	0	0	472	513	339	0	
4	0	0	0	0	463	512	339	0	
5	0	0	0	0	472	496	339	0	
6	0	0	0	0	463	496	339	0	
7	0	0	0	0	480	504	339	0	
8	0	0	0	0	487	510	339	0	
9	0	0	0	0	487	508	339	0	
10	0	0	0	0	496	492	339	0	
11	0	0	0	0	467	494	339	0	
12	0	0	0	0	460	504	339	0	
13	0	0	0	0	487	519	339	0	
14	0	0	0	0	497	519	339	0	
15	0	0	0	0	492	515	339	0	
0	0	0	0	0	480	504	339	0	
1	0	0	0	0	483	511	339	0	
2	0	0	0	0	451	515	339	0	
3	0	0	0	0	448	518	339	0	
4	0	0	0	0	480	513	339	0	
5	0	0	0	0	504	512	339	0	
6	0	0	0	0	463	511	339	0	
7	0	0	0	0	435	504	339	0	
8	0	0	0	0	480	504	339	0	
9	0	0	0	0	476	505	339	0	
10	0	0	0	0	463	504	339	0	
11	0	0	0	0	476	508	339	0	
12	0	0	0	0	472	512	337	0	
13	0	0	0	0	492	512	335	0	
14	0	0	0	0	527	513	335	0	
15	0	0	0	0	492	515	335	0	
0	0	0	0	0	476	512	335	0	
1	0	0	0	0	463	504	335	0	
2	0	0	0	0	440	499	335	0	
3	0	0	0	0	423	497	334	0	
4	0	0	0	0	440	508	334	0	
5	0	0	0	0	444	508	332	0	
6	0	0	0	0	472	510	327	0	
7	0	0	0	0	483	510	327	0	
8	0	0	0	0	483	512	327	0	
9	0	0	0	0	472	513	327	0	
10	0	0	0	0	448	512	327	0	
11	0	0	0	0	463	524	327	0	
12	0	0	0	0	486	527	327	0	
13	0	0	0	0	480	531	327	0	
14	0	0	0	0	511	531	327	0	
15	0	0	0	0	519	487	327	0	
0	0	0	0	0	496	467	327	0	
1	0	0	0	0	480	444	327	0	
2	0	0	0	0	486	480	327	0	
3	0	0	0	0	494	519	323	0	
4	0	0	0	0	494	561	319	0	
5	0	0	0	0	476	534	323	0	
6	0	0	0	0	467	504	323	0	
7	0	0	0	0	480	494	319	0	
8	0	0	0	0	480	492	319	0	
9	0	0	0	0	460	511	323	0	
10	0	0	0	0	451	519	323	0	
11	0	0	0	0	454	518	323	0	
12	0	0	0	0	455	512	323	0	
13	0	0	0	0	504	519	323	0	
14	0	0	0	0	512	524	323	0	
15	0	0	0	0	515	521	323	0	
0	0	0	0	0	496	511	323	0	
1	0	0	0	0	492	504	326	0	
2	0	0	0	0	487	508	319	0	
3	0	0	0	0	463	511	323	0	
4	0	0	0	0	448	512	319	0	
5	0	0	0	0	440	515	323	0	
6	0	0	0	0	448	519	323	0	
7	0	0	0	0	440	521	323	0	
8	0	0	0	0	448	524	326	0	
9	0	0	0	0	487	510	327	0	
10	0	0	0	0	496	480	323	0	
11	0	0	0	0	478	480	323	0	
12	0	0	0	0	465	487	323	0	
13	0	0	0	0	455	487	323	0	
14	0	0	0	0	463	496	323	0	
15	0	0	0	0	480	513	326	0	
0	0	0	0	0	463	515	323	0	
1	0	0	0	0	455	521	323	0	
2	0	0	0	0	455	519	323	0	
3	0	0	0	0	463	515	323	0	
4	0	0	0	0	487	515	323	0	
5	0	0	0	0	480	526	323	0	
6	0	0	0	0	483	526	326	0	
