# OpenSignals Text File Format. Version 1
# {"20:18:06:13:21:78": {"position": 0, "device": "bitalino_rev", "device name": "20:18:06:13:21:78", "device connection": "BTH20:18:06:13:21:78", "sampling rate": 1000, "resolution": [4, 1, 1, 1, 1, 10, 10, 10, 10], "firmware version": 1281, "comments": "", "keywords": "", "mode": 0, "sync interval": 2, "date": "2023-6-5", "time": "20:15:36.175", "channels": [1, 2, 3, 4], "sensor": ["EMGBITREV", "EMGBITREV", "RAW", "RAW"], "label": ["A1", "A2", "A3", "A4"], "column": ["nSeq", "I1", "I2", "O1", "O2", "A1", "A2", "A3", "A4"], "special": [{}, {}, {}, {}], "digital IO": [0, 0, 1, 1]}}
# EndOfHeader
0	0	0	0	0	510	507	0	0	
1	0	0	0	0	509	507	0	0	
2	0	0	0	0	507	509	0	0	
3	0	0	0	0	507	507	0	0	
4	0	0	0	0	510	508	0	0	
5	0	0	0	0	510	509	0	0	
6	0	0	0	0	512	508	0	0	
7	0	0	0	0	511	510	0	0	
8	0	0	0	0	511	508	0	0	
9	0	0	0	0	512	508	0	0	
10	0	0	0	0	513	507	0	0	
11	0	0	0	0	512	507	0	0	
12	0	0	0	0	512	508	0	0	
13	0	0	0	0	514	508	0	0	
14	0	0	0	0	511	507	0	0	
15	0	0	0	0	512	508	0	0	
0	0	0	0	0	512	509	0	0	
1	0	0	0	0	511	505	0	0	
2	0	0	0	0	511	508	0	0	
3	0	0	0	0	508	508	0	0	
4	0	0	0	0	510	507	0	0	
5	0	0	0	0	509	508	0	0	
6	0	0	0	0	508	510	0	0	
7	0	0	0	0	509	507	0	0	
8	0	0	0	0	510	507	0	0	
9	0	0	0	0	511	507	0	0	
10	0	0	0	0	510	508	0	0	
11	0	0	0	0	511	509	0	0	
12	0	0	0	0	511	509	0	0	
13	0	0	0	0	511	508	0	0	
14	0	0	0	0	511	510	0	0	
15	0	0	0	0	512	507	0	0	
0	0	0	0	0	513	508	0	0	
1	0	0	0	0	512	508	0	0	
2	0	0	0	0	512	509	0	0	
3	0	0	0	0	512	506	0	0	
4	0	0	0	0	511	507	0	0	
5	0	0	0	0	511	510	0	0	
6	0	0	0	0	510	510	0	0	
7	0	0	0	0	510	509	0	0	
8	0	0	0	0	509	508	0	0	
9	0	0	0	0	510	511	0	0	
10	0	0	0	0	513	507	0	0	
11	0	0	0	0	510	509	0	0	
12	0	0	0	0	510	507	0	0	
13	0	0	0	0	512	507	0	0	
14	0	0	0	0	508	507	0	0	
15	0	0	0	0	511	510	0	0	
0	0	0	0	0	510	507	0	0	
1	0	0	0	0	511	507	0	0	
2	0	0	0	0	511	506	0	0	
3	0	0	0	0	513	508	0	0	
4	0	0	0	0	513	509	0	0	
5	0	0	0	0	513	509	0	0	
6	0	0	0	0	512	508	0	0	
7	0	0	0	0	512	507	0	0	
8	0	0	0	0	512	509	0	0	
9	0	0	0	0	509	509	0	0	
10	0	0	0	0	511	509	0	0	
11	0	0	0	0	508	509	0	0	
12	0	0	0	0	509	508	0	0	
13	0	0	0	0	510	508	0	0	
14	0	0	0	0	510	508	0	0	
15	0	0	0	0	509	509	0	0	
0	0	0	0	0	510	508	0	0	
1	0	0	0	0	508	507	0	0	
2	0	0	0	0	511	507	0	0	
3	0	0	0	0	511	508	0	0	
4	0	0	0	0	510	510	0	0	
5	0	0	0	0	512	508	0	0	
6	0	0	0	0	514	506	0	0	
7	0	0	0	0	512	507	0	0	
8	0	0	0	0	512	507	0	0	
9	0	0	0	0	512	510	0	0	
10	0	0	0	0	512	508	0	0	
11	0	0	0	0	513	508	0	0	
12	0	0	0	0	512	509	0	0	
13	0	0	0	0	512	506	0	0	
14	0	0	0	0	510	507	0	0	
15	0	0	0	0	511	508	0	0	
0	0	0	0	0	512	510	0	0	
1	0	0	0	0	509	509	0	0	
2	0	0	0	0	508	508	0	0	
3	0	0	0	0	508	506	0	0	
4	0	0	0	0	507	508	0	0	
5	0	0	0	0	508	506	0	0	
6	0	0	0	0	512	507	0	0	
7	0	0	0	0	512	508	0	0	
8	0	0	0	0	513	510	0	0	
9	0	0	0	0	513	507	0	0	
10	0	0	0	0	509	508	0	0	
11	0	0	0	0	512	509	0	0	
12	0	0	0	0	514	508	0	0	
13	0	0	0	0	513	509	0	0	
14	0	0	0	0	512	508	0	0	
15	0	0	0	0	512	508	0	0	
0	0	0	0	0	512	508	0	0	
1	0	0	0	0	510	507	0	0	
2	0	0	0	0	510	507	0	0	
3	0	0	0	0	511	508	0	0	
4	0	0	0	0	508	506	0	0	
5	0	0	0	0	510	506	0	0	
6	0	0	0	0	509	508	0	0	
7	0	0	0	0	510	509	0	0	
8	0	0	0	0	510	508	0	0	
9	0	0	0	0	510	507	0	0	
10	0	0	0	0	510	506	0	0	
11	0	0	0	0	510	508	0	0	
12	0	0	0	0	512	509	0	0	
13	0	0	0	0	512	508	0	0	
14	0	0	0	0	511	506	0	0	
15	0	0	0	0	513	508	0	0	
0	0	0	0	0	513	508	0	0	
1	0	0	0	0	513	508	0	0	
2	0	0	0	0	513	510	0	0	
3	0	0	0	0	513	508	0	0	
4	0	0	0	0	512	509	0	0	
5	0	0	0	0	512	509	0	0	
6	0	0	0	0	512	506	0	0	
7	0	0	0	0	510	508	0	0	
8	0	0	0	0	509	508	0	0	
9	0	0	0	0	510	508	0	0	
10	0	0	0	0	510	509	0	0	
11	0	0	0	0	511	509	0	0	
12	0	0	0	0	510	508	0	0	
13	0	0	0	0	510	508	0	0	
14	0	0	0	0	512	509	0	0	
15	0	0	0	0	511	508	0	0	
0	0	0	0	0	511	508	0	0	
1	0	0	0	0	511	509	0	0	
2	0	0	0	0	512	509	0	0	
3	0	0	0	0	512	507	0	0	
4	0	0	0	0	513	507	0	0	
5	0	0	0	0	513	507	0	0	
6	0	0	0	0	512	507	0	0	
7	0	0	0	0	512	506	0	0	
8	0	0	0	0	512	507	0	0	
9	0	0	0	0	512	509	0	0	
10	0	0	0	0	511	508	0	0	
11	0	0	0	0	512	508	0	0	
12	0	0	0	0	509	507	0	0	
13	0	0	0	0	508	509	0	0	
14	0	0	0	0	510	508	0	0	
15	0	0	0	0	511	510	0	0	
0	0	0	0	0	510	509	0	0	
1	0	0	0	0	507	506	0	0	
2	0	0	0	0	507	505	0	0	
3	0	0	0	0	509	507	0	0	
4	0	0	0	0	510	509	0	0	
5	0	0	0	0	511	509	0	0	
6	0	0	0	0	514	508	0	0	
7	0	0	0	0	513	509	0	0	
8	0	0	0	0	514	507	0	0	
9	0	0	0	0	514	508	0	0	
10	0	0	0	0	514	508	0	0	
11	0	0	0	0	512	507	0	0	
12	0	0	0	0	512	506	0	0	
13	0	0	0	0	513	507	0	0	
14	0	0	0	0	512	508	0	0	
15	0	0	0	0	510	507	0	0	
0	0	0	0	0	511	509	0	0	
1	0	0	0	0	508	508	0	0	
2	0	0	0	0	509	508	0	0	
3	0	0	0	0	509	509	0	0	
4	0	0	0	0	509	508	0	0	
5	0	0	0	0	509	507	0	0	
6	0	0	0	0	512	508	0	0	
7	0	0	0	0	511	508	0	0	
8	0	0	0	0	510	508	0	0	
9	0	0	0	0	512	507	0	0	
10	0	0	0	0	512	508	0	0	
11	0	0	0	0	513	509	0	0	
12	0	0	0	0	514	507	0	0	
13	0	0	0	0	513	507	0	0	
14	0	0	0	0	512	509	0	0	
15	0	0	0	0	511	508	0	0	
0	0	0	0	0	511	508	0	0	
1	0	0	0	0	513	508	0	0	
2	0	0	0	0	511	508	0	0	
3	0	0	0	0	510	507	0	0	
4	0	0	0	0	508	508	0	0	
5	0	0	0	0	509	508	0	0	
6	0	0	0	0	509	508	0	0	
7	0	0	0	0	508	508	0	0	
8	0	0	0	0	508	507	0	0	
9	0	0	0	0	508	507	0	0	
10	0	0	0	0	508	508	0	0	
11	0	0	0	0	509	508	0	0	
12	0	0	0	0	511	509	0	0	
13	0	0	0	0	513	508	0	0	
14	0	0	0	0	513	510	0	0	
15	0	0	0	0	512	507	0	0	
0	0	0	0	0	512	509	0	0	
1	0	0	0	0	514	508	0	0	
2	0	0	0	0	512	508	0	0	
3	0	0	0	0	511	507	0	0	
4	0	0	0	0	511	506	0	0	
5	0	0	0	0	512	508	0	0	
6	0	0	0	0	511	509	0	0	
7	0	0	0	0	510	508	0	0	
8	0	0	0	0	510	508	0	0	
9	0	0	0	0	508	507	0	0	
10	0	0	0	0	510	508	0	0	
11	0	0	0	0	510	508	0	0	
12	0	0	0	0	509	507	0	0	
13	0	0	0	0	510	509	0	0	
14	0	0	0	0	511	508	0	0	
15	0	0	0	0	510	508	0	0	
0	0	0	0	0	512	509	0	0	
1	0	0	0	0	513	508	0	0	
2	0	0	0	0	510	507	0	0	
3	0	0	0	0	513	508	0	0	
4	0	0	0	0	513	508	0	0	
5	0	0	0	0	513	507	0	0	
6	0	0	0	0	512	508	0	0	
7	0	0	0	0	511	507	0	0	
8	0	0	0	0	511	506	0	0	
9	0	0	0	0	511	507	0	0	
10	0	0	0	0	512	508	0	0	
11	0	0	0	0	511	508	0	0	
12	0	0	0	0	512	510	0	0	
13	0	0	0	0	511	507	0	0	
14	0	0	0	0	511	508	0	0	
15	0	0	0	0	509	508	0	0	
0	0	0	0	0	510	509	0	0	
1	0	0	0	0	508	505	0	0	
2	0	0	0	0	509	508	0	0	
3	0	0	0	0	511	509	0	0	
4	0	0	0	0	510	508	0	0	
5	0	0	0	0	510	508	0	0	
6	0	0	0	0	510	506	0	0	
7	0	0	0	0	512	510	0	0	
8	0	0	0	0	511	507	0	0	
9	0	0	0	0	511	508	0	0	
10	0	0	0	0	513	509	0	0	
11	0	0	0	0	514	510	0	0	
12	0	0	0	0	515	509	0	0	
13	0	0	0	0	510	508	0	0	
14	0	0	0	0	511	508	0	0	
15	0	0	0	0	511	507	0	0	
0	0	0	0	0	510	510	0	0	
1	0	0	0	0	511	510	0	0	
2	0	0	0	0	512	507	0	0	
3	0	0	0	0	510	510	0	0	
4	0	0	0	0	512	509	0	0	
5	0	0	0	0	508	508	0	0	
6	0	0	0	0	508	508	0	0	
7	0	0	0	0	510	508	0	0	
8	0	0	0	0	512	508	0	0	
9	0	0	0	0	511	509	0	0	
10	0	0	0	0	510	507	0	0	
11	0	0	0	0	513	508	0	0	
12	0	0	0	0	512	507	0	0	
13	0	0	0	0	513	507	0	0	
14	0	0	0	0	512	508	0	0	
15	0	0	0	0	512	508	0	0	
0	0	0	0	0	511	509	0	0	
1	0	0	0	0	513	508	0	0	
2	0	0	0	0	510	509	0	0	
3	0	0	0	0	510	510	0	0	
4	0	0	0	0	509	510	0	0	
5	0	0	0	0	511	507	0	0	
6	0	0	0	0	510	507	0	0	
7	0	0	0	0	509	509	0	0	
8	0	0	0	0	511	507	0	0	
9	0	0	0	0	510	508	0	0	
10	0	0	0	0	510	509	0	0	
11	0	0	0	0	511	507	0	0	
12	0	0	0	0	510	507	0	0	
13	0	0	0	0	511	509	0	0	
14	0	0	0	0	513	509	0	0	
15	0	0	0	0	512	507	0	0	
0	0	0	0	0	512	508	0	0	
1	0	0	0	0	514	507	0	0	
2	0	0	0	0	511	507	0	0	
3	0	0	0	0	514	507	0	0	
4	0	0	0	0	511	506	0	0	
5	0	0	0	0	512	508	0	0	
6	0	0	0	0	512	510	0	0	
7	0	0	0	0	514	509	0	0	
8	0	0	0	0	510	508	0	0	
9	0	0	0	0	510	509	0	0	
10	0	0	0	0	510	509	0	0	
11	0	0	0	0	508	508	0	0	
12	0	0	0	0	508	506	0	0	
13	0	0	0	0	508	508	0	0	
14	0	0	0	0	509	508	0	0	
15	0	0	0	0	510	508	0	0	
0	0	0	0	0	513	508	0	0	
1	0	0	0	0	511	508	0	0	
2	0	0	0	0	511	508	0	0	
3	0	0	0	0	512	507	0	0	
4	0	0	0	0	513	508	0	0	
5	0	0	0	0	513	509	0	0	
6	0	0	0	0	513	508	0	0	
7	0	0	0	0	514	509	0	0	
8	0	0	0	0	511	508	0	0	
9	0	0	0	0	511	507	0	0	
10	0	0	0	0	509	507	0	0	
11	0	0	0	0	510	509	0	0	
12	0	0	0	0	511	507	0	0	
13	0	0	0	0	511	508	0	0	
14	0	0	0	0	508	507	0	0	
15	0	0	0	0	511	508	0	0	
0	0	0	0	0	508	508	0	0	
1	0	0	0	0	511	507	0	0	
2	0	0	0	0	510	509	0	0	
3	0	0	0	0	508	507	0	0	
4	0	0	0	0	511	507	0	0	
5	0	0	0	0	512	507	0	0	
6	0	0	0	0	511	506	0	0	
7	0	0	0	0	513	508	0	0	
8	0	0	0	0	513	508	0	0	
9	0	0	0	0	514	509	0	0	
10	0	0	0	0	512	509	0	0	
11	0	0	0	0	511	508	0	0	
12	0	0	0	0	513	508	0	0	
13	0	0	0	0	512	507	0	0	
14	0	0	0	0	511	508	0	0	
15	0	0	0	0	510	509	0	0	
0	0	0	0	0	511	508	0	0	
1	0	0	0	0	509	508	0	0	
2	0	0	0	0	509	508	0	0	
3	0	0	0	0	509	508	0	0	
4	0	0	0	0	511	506	0	0	
5	0	0	0	0	508	507	0	0	
6	0	0	0	0	510	506	0	0	
7	0	0	0	0	511	508	0	0	
8	0	0	0	0	512	508	0	0	
9	0	0	0	0	510	510	0	0	
10	0	0	0	0	512	509	0	0	
11	0	0	0	0	514	505	0	0	
12	0	0	0	0	513	508	0	0	
13	0	0	0	0	511	508	0	0	
14	0	0	0	0	512	507	0	0	
15	0	0	0	0	512	508	0	0	
0	0	0	0	0	514	508	0	0	
1	0	0	0	0	511	508	0	0	
2	0	0	0	0	510	508	0	0	
3	0	0	0	0	510	509	0	0	
4	0	0	0	0	511	507	0	0	
5	0	0	0	0	509	508	0	0	
6	0	0	0	0	511	509	0	0	
7	0	0	0	0	509	508	0	0	
8	0	0	0	0	508	509	0	0	
9	0	0	0	0	510	507	0	0	
10	0	0	0	0	512	508	0	0	
11	0	0	0	0	513	506	0	0	
12	0	0	0	0	511	509	0	0	
13	0	0	0	0	512	507	0	0	
14	0	0	0	0	512	507	0	0	
15	0	0	0	0	513	508	0	0	
0	0	0	0	0	513	510	0	0	
1	0	0	0	0	511	510	0	0	
2	0	0	0	0	512	508	0	0	
3	0	0	0	0	512	508	0	0	
4	0	0	0	0	513	506	0	0	
5	0	0	0	0	511	508	0	0	
6	0	0	0	0	511	509	0	0	
7	0	0	0	0	509	508	0	0	
8	0	0	0	0	510	508	0	0	
9	0	0	0	0	510	509	0	0	
10	0	0	0	0	508	508	0	0	
11	0	0	0	0	510	508	0	0	
12	0	0	0	0	508	508	0	0	
13	0	0	0	0	509	508	0	0	
14	0	0	0	0	510	509	0	0	
15	0	0	0	0	513	510	0	0	
0	0	0	0	0	514	508	0	0	
1	0	0	0	0	511	507	0	0	
2	0	0	0	0	512	507	0	0	
3	0	0	0	0	513	507	0	0	
4	0	0	0	0	512	508	0	0	
5	0	0	0	0	512	509	0	0	
6	0	0	0	0	512	508	0	0	
7	0	0	0	0	511	507	0	0	
8	0	0	0	0	511	507	0	0	
9	0	0	0	0	508	508	0	0	
10	0	0	0	0	510	508	0	0	
11	0	0	0	0	511	507	0	0	
12	0	0	0	0	508	507	0	0	
13	0	0	0	0	509	507	0	0	
14	0	0	0	0	508	509	0	0	
15	0	0	0	0	509	509	0	0	
0	0	0	0	0	512	509	0	0	
1	0	0	0	0	511	507	0	0	
2	0	0	0	0	509	506	0	0	
3	0	0	0	0	510	508	0	0	
4	0	0	0	0	510	508	0	0	
5	0	0	0	0	512	509	0	0	
6	0	0	0	0	511	507	0	0	
7	0	0	0	0	511	507	0	0	
8	0	0	0	0	513	509	0	0	
9	0	0	0	0	514	507	0	0	
10	0	0	0	0	512	509	0	0	
11	0	0	0	0	511	508	0	0	
12	0	0	0	0	513	508	0	0	
13	0	0	0	0	513	508	0	0	
14	0	0	0	0	512	508	0	0	
15	0	0	0	0	511	510	0	0	
0	0	0	0	0	510	507	0	0	
1	0	0	0	0	511	509	0	0	
2	0	0	0	0	509	507	0	0	
3	0	0	0	0	508	508	0	0	
4	0	0	0	0	508	505	0	0	
5	0	0	0	0	510	508	0	0	
6	0	0	0	0	511	508	0	0	
7	0	0	0	0	509	508	0	0	
8	0	0	0	0	509	509	0	0	
9	0	0	0	0	512	510	0	0	
10	0	0	0	0	511	507	0	0	
11	0	0	0	0	512	508	0	0	
12	0	0	0	0	511	508	0	0	
13	0	0	0	0	512	508	0	0	
14	0	0	0	0	512	508	0	0	
15	0	0	0	0	514	507	0	0	
0	0	0	0	0	514	509	0	0	
1	0	0	0	0	512	507	0	0	
2	0	0	0	0	512	507	0	0	
3	0	0	0	0	510	508	0	0	
4	0	0	0	0	509	508	0	0	
5	0	0	0	0	507	510	0	0	
6	0	0	0	0	509	507	0	0	
7	0	0	0	0	509	507	0	0	
8	0	0	0	0	509	507	0	0	
9	0	0	0	0	510	508	0	0	
10	0	0	0	0	511	508	0	0	
11	0	0	0	0	511	511	0	0	
12	0	0	0	0	511	508	0	0	
13	0	0	0	0	511	507	0	0	
14	0	0	0	0	511	507	0	0	
15	0	0	0	0	512	509	0	0	
0	0	0	0	0	514	508	0	0	
1	0	0	0	0	512	507	0	0	
2	0	0	0	0	514	506	0	0	
3	0	0	0	0	513	509	0	0	
4	0	0	0	0	514	510	0	0	
5	0	0	0	0	513	508	0	0	
6	0	0	0	0	512	508	0	0	
7	0	0	0	0	509	508	0	0	
8	0	0	0	0	510	508	0	0	
9	0	0	0	0	509	508	0	0	
10	0	0	0	0	508	507	0	0	
11	0	0	0	0	507	508	0	0	
12	0	0	0	0	508	507	0	0	
13	0	0	0	0	512	509	0	0	
14	0	0	0	0	511	507	0	0	
15	0	0	0	0	510	508	0	0	
0	0	0	0	0	511	508	0	0	
1	0	0	0	0	511	508	0	0	
2	0	0	0	0	512	509	0	0	
3	0	0	0	0	511	507	0	0	
4	0	0	0	0	513	505	0	0	
5	0	0	0	0	511	508	0	0	
6	0	0	0	0	513	508	0	0	
7	0	0	0	0	511	510	0	0	
8	0	0	0	0	512	508	0	0	
9	0	0	0	0	511	509	0	0	
10	0	0	0	0	511	506	0	0	
11	0	0	0	0	509	509	0	0	
12	0	0	0	0	511	509	0	0	
13	0	0	0	0	510	508	0	0	
14	0	0	0	0	508	508	0	0	
15	0	0	0	0	510	507	0	0	
0	0	0	0	0	509	509	0	0	
1	0	0	0	0	508	508	0	0	
2	0	0	0	0	510	508	0	0	
3	0	0	0	0	512	508	0	0	
4	0	0	0	0	511	508	0	0	
5	0	0	0	0	513	509	0	0	
6	0	0	0	0	512	507	0	0	
7	0	0	0	0	511	508	0	0	
8	0	0	0	0	512	508	0	0	
9	0	0	0	0	512	507	0	0	
10	0	0	0	0	513	507	0	0	
11	0	0	0	0	516	507	0	0	
12	0	0	0	0	513	508	0	0	
13	0	0	0	0	510	509	0	0	
14	0	0	0	0	511	508	0	0	
15	0	0	0	0	509	511	0	0	
0	0	0	0	0	511	508	0	0	
1	0	0	0	0	509	508	0	0	
2	0	0	0	0	510	507	0	0	
3	0	0	0	0	509	506	0	0	
4	0	0	0	0	510	507	0	0	
5	0	0	0	0	510	508	0	0	
6	0	0	0	0	511	509	0	0	
7	0	0	0	0	512	507	0	0	
8	0	0	0	0	511	507	0	0	
9	0	0	0	0	512	509	0	0	
10	0	0	0	0	511	507	0	0	
11	0	0	0	0	512	507	0	0	
12	0	0	0	0	512	509	0	0	
13	0	0	0	0	513	508	0	0	
14	0	0	0	0	512	508	0	0	
15	0	0	0	0	512	506	0	0	
0	0	0	0	0	514	509	0	0	
1	0	0	0	0	511	508	0	0	
2	0	0	0	0	511	509	0	0	
3	0	0	0	0	509	508	0	0	
4	0	0	0	0	509	508	0	0	
5	0	0	0	0	510	506	0	0	
6	0	0	0	0	509	506	0	0	
7	0	0	0	0	511	508	0	0	
8	0	0	0	0	510	506	0	0	
9	0	0	0	0	510	508	0	0	
10	0	0	0	0	510	508	0	0	
11	0	0	0	0	511	509	0	0	
12	0	0	0	0	511	507	0	0	
13	0	0	0	0	512	508	0	0	
14	0	0	0	0	513	509	0	0	
15	0	0	0	0	511	507	0	0	
0	0	0	0	0	512	508	0	0	
1	0	0	0	0	511	507	0	0	
2	0	0	0	0	512	507	0	0	
3	0	0	0	0	512	507	0	0	
4	0	0	0	0	511	508	0	0	
5	0	0	0	0	513	508	0	0	
6	0	0	0	0	511	509	0	0	
7	0	0	0	0	511	509	0	0	
8	0	0	0	0	511	506	0	0	
9	0	0	0	0	511	509	0	0	
10	0	0	0	0	508	508	0	0	
11	0	0	0	0	510	508	0	0	
12	0	0	0	0	507	509	0	0	
13	0	0	0	0	510	509	0	0	
14	0	0	0	0	509	508	0	0	
15	0	0	0	0	511	508	0	0	
0	0	0	0	0	512	506	0	0	
1	0	0	0	0	510	505	0	0	
2	0	0	0	0	512	508	0	0	
3	0	0	0	0	515	508	0	0	
4	0	0	0	0	513	509	0	0	
5	0	0	0	0	512	509	0	0	
6	0	0	0	0	511	509	0	0	
7	0	0	0	0	511	507	0	0	
8	0	0	0	0	513	508	0	0	
9	0	0	0	0	511	507	0	0	
10	0	0	0	0	511	507	0	0	
11	0	0	0	0	511	511	0	0	
12	0	0	0	0	510	508	0	0	
13	0	0	0	0	511	509	0	0	
14	0	0	0	0	511	507	0	0	
15	0	0	0	0	511	508	0	0	
0	0	0	0	0	508	507	0	0	
1	0	0	0	0	509	508	0	0	
2	0	0	0	0	510	506	0	0	
3	0	0	0	0	511	508	0	0	
4	0	0	0	0	511	508	0	0	
5	0	0	0	0	512	508	0	0	
6	0	0	0	0	512	510	0	0	
7	0	0	0	0	512	508	0	0	
8	0	0	0	0	512	508	0	0	
9	0	0	0	0	514	505	0	0	
10	0	0	0	0	510	508	0	0	
11	0	0	0	0	513	508	0	0	
12	0	0	0	0	513	508	0	0	
13	0	0	0	0	511	509	0	0	
14	0	0	0	0	511	509	0	0	
15	0	0	0	0	511	507	0	0	
0	0	0	0	0	510	510	0	0	
1	0	0	0	0	509	508	0	0	
2	0	0	0	0	510	508	0	0	
3	0	0	0	0	510	507	0	0	
4	0	0	0	0	510	508	0	0	
5	0	0	0	0	511	509	0	0	
6	0	0	0	0	509	506	0	0	
7	0	0	0	0	513	507	0	0	
8	0	0	0	0	511	507	0	0	
9	0	0	0	0	511	508	0	0	
10	0	0	0	0	512	508	0	0	
11	0	0	0	0	512	509	0	0	
12	0	0	0	0	511	508	0	0	
13	0	0	0	0	510	507	0	0	
14	0	0	0	0	509	508	0	0	
15	0	0	0	0	512	508	0	0	
0	0	0	0	0	511	508	0	0	
1	0	0	0	0	512	507	0	0	
2	0	0	0	0	511	508	0	0	
3	0	0	0	0	512	508	0	0	
4	0	0	0	0	511	509	0	0	
5	0	0	0	0	508	510	0	0	
6	0	0	0	0	511	509	0	0	
7	0	0	0	0	508	508	0	0	
8	0	0	0	0	509	507	0	0	
9	0	0	0	0	511	507	0	0	
10	0	0	0	0	511	507	0	0	
11	0	0	0	0	511	508	0	0	
12	0	0	0	0	510	510	0	0	
13	0	0	0	0	511	508	0	0	
14	0	0	0	0	512	505	0	0	
15	0	0	0	0	512	507	0	0	
0	0	0	0	0	512	508	0	0	
1	0	0	0	0	512	507	0	0	
2	0	0	0	0	513	509	0	0	
3	0	0	0	0	513	507	0	0	
4	0	0	0	0	513	509	0	0	
5	0	0	0	0	510	509	0	0	
6	0	0	0	0	510	509	0	0	
7	0	0	0	0	512	508	0	0	
8	0	0	0	0	511	508	0	0	
9	0	0	0	0	510	506	0	0	
10	0	0	0	0	509	508	0	0	
11	0	0	0	0	512	508	0	0	
12	0	0	0	0	509	509	0	0	
13	0	0	0	0	509	506	0	0	
14	0	0	0	0	513	508	0	0	
15	0	0	0	0	511	508	0	0	
0	0	0	0	0	509	508	0	0	
1	0	0	0	0	511	509	0	0	
2	0	0	0	0	513	507	0	0	
3	0	0	0	0	512	509	0	0	
4	0	0	0	0	513	508	0	0	
5	0	0	0	0	511	507	0	0	
6	0	0	0	0	512	510	0	0	
7	0	0	0	0	512	510	0	0	
8	0	0	0	0	512	509	0	0	
9	0	0	0	0	512	507	0	0	
10	0	0	0	0	512	509	0	0	
11	0	0	0	0	510	508	0	0	
12	0	0	0	0	510	508	0	0	
13	0	0	0	0	511	507	0	0	
14	0	0	0	0	508	507	0	0	
15	0	0	0	0	509	507	0	0	
0	0	0	0	0	509	507	0	0	
1	0	0	0	0	510	509	0	0	
2	0	0	0	0	511	507	0	0	
3	0	0	0	0	511	508	0	0	
4	0	0	0	0	509	509	0	0	
5	0	0	0	0	512	508	0	0	
6	0	0	0	0	512	508	0	0	
7	0	0	0	0	513	508	0	0	
8	0	0	0	0	510	508	0	0	
9	0	0	0	0	512	507	0	0	
10	0	0	0	0	513	508	0	0	
11	0	0	0	0	512	508	0	0	
12	0	0	0	0	511	508	0	0	
13	0	0	0	0	512	508	0	0	
14	0	0	0	0	512	508	0	0	
15	0	0	0	0	510	508	0	0	
0	0	0	0	0	512	508	0	0	
1	0	0	0	0	509	509	0	0	
2	0	0	0	0	508	508	0	0	
3	0	0	0	0	510	507	0	0	
4	0	0	0	0	510	507	0	0	
5	0	0	0	0	510	506	0	0	
6	0	0	0	0	510	508	0	0	
7	0	0	0	0	511	507	0	0	
8	0	0	0	0	512	507	0	0	
9	0	0	0	0	509	508	0	0	
10	0	0	0	0	511	508	0	0	
11	0	0	0	0	512	508	0	0	
12	0	0	0	0	513	509	0	0	
13	0	0	0	0	514	510	0	0	
14	0	0	0	0	513	508	0	0	
15	0	0	0	0	513	508	0	0	
0	0	0	0	0	511	506	0	0	
1	0	0	0	0	511	508	0	0	
2	0	0	0	0	512	507	0	0	
3	0	0	0	0	510	508	0	0	
4	0	0	0	0	509	508	0	0	
5	0	0	0	0	509	507	0	0	
6	0	0	0	0	508	506	0	0	
7	0	0	0	0	507	508	0	0	
8	0	0	0	0	508	509	0	0	
9	0	0	0	0	508	508	0	0	
10	0	0	0	0	510	507	0	0	
11	0	0	0	0	511	509	0	0	
12	0	0	0	0	512	508	0	0	
13	0	0	0	0	512	508	0	0	
14	0	0	0	0	514	509	0	0	
15	0	0	0	0	513	510	0	0	
0	0	0	0	0	511	508	0	0	
1	0	0	0	0	513	506	0	0	
2	0	0	0	0	513	507	0	0	
3	0	0	0	0	513	508	0	0	
4	0	0	0	0	511	508	0	0	
5	0	0	0	0	513	508	0	0	
6	0	0	0	0	513	509	0	0	
7	0	0	0	0	511	507	0	0	
8	0	0	0	0	511	508	0	0	
9	0	0	0	0	509	507	0	0	
10	0	0	0	0	509	508	0	0	
11	0	0	0	0	510	507	0	0	
12	0	0	0	0	508	508	0	0	
13	0	0	0	0	508	510	0	0	
14	0	0	0	0	508	508	0	0	
15	0	0	0	0	508	508	0	0	
0	0	0	0	0	511	509	0	0	
1	0	0	0	0	513	508	0	0	
2	0	0	0	0	512	507	0	0	
3	0	0	0	0	511	509	0	0	
4	0	0	0	0	512	508	0	0	
5	0	0	0	0	512	507	0	0	
6	0	0	0	0	512	509	0	0	
7	0	0	0	0	513	507	0	0	
8	0	0	0	0	513	506	0	0	
9	0	0	0	0	511	508	0	0	
10	0	0	0	0	511	509	0	0	
11	0	0	0	0	512	509	0	0	
12	0	0	0	0	510	508	0	0	
13	0	0	0	0	508	509	0	0	
14	0	0	0	0	510	509	0	0	
15	0	0	0	0	508	508	0	0	
0	0	0	0	0	510	505	0	0	
1	0	0	0	0	511	508	0	0	
2	0	0	0	0	510	507	0	0	
3	0	0	0	0	509	510	0	0	
4	0	0	0	0	510	510	0	0	
5	0	0	0	0	511	509	0	0	
6	0	0	0	0	512	509	0	0	
7	0	0	0	0	514	507	0	0	
8	0	0	0	0	512	508	0	0	
9	0	0	0	0	513	508	0	0	
10	0	0	0	0	513	508	0	0	
11	0	0	0	0	512	508	0	0	
12	0	0	0	0	512	507	0	0	
13	0	0	0	0	512	509	0	0	
14	0	0	0	0	511	507	0	0	
15	0	0	0	0	510	510	0	0	
0	0	0	0	0	511	507	0	0	
1	0	0	0	0	510	507	0	0	
2	0	0	0	0	510	508	0	0	
3	0	0	0	0	508	508	0	0	
4	0	0	0	0	510	508	0	0	
5	0	0	0	0	510	510	0	0	
6	0	0	0	0	511	510	0	0	
7	0	0	0	0	511	508	0	0	
8	0	0	0	0	512	509	0	0	
9	0	0	0	0	513	508	0	0	
10	0	0	0	0	511	507	0	0	
11	0	0	0	0	513	508	0	0	
12	0	0	0	0	512	508	0	0	
13	0	0	0	0	512	505	0	0	
14	0	0	0	0	511	508	0	0	
15	0	0	0	0	513	508	0	0	
0	0	0	0	0	511	508	0	0	
1	0	0	0	0	511	510	0	0	
2	0	0	0	0	510	509	0	0	
3	0	0	0	0	512	510	0	0	
4	0	0	0	0	510	507	0	0	
5	0	0	0	0	508	507	0	0	
6	0	0	0	0	510	509	0	0	
7	0	0	0	0	509	508	0	0	
8	0	0	0	0	509	509	0	0	
9	0	0	0	0	507	509	0	0	
10	0	0	0	0	510	508	0	0	
11	0	0	0	0	510	507	0	0	
12	0	0	0	0	512	507	0	0	
13	0	0	0	0	514	509	0	0	
14	0	0	0	0	511	509	0	0	
15	0	0	0	0	511	507	0	0	
0	0	0	0	0	513	507	0	0	
1	0	0	0	0	511	507	0	0	
2	0	0	0	0	513	506	0	0	
3	0	0	0	0	512	510	0	0	
4	0	0	0	0	512	508	0	0	
5	0	0	0	0	513	506	0	0	
6	0	0	0	0	511	508	0	0	
7	0	0	0	0	511	509	0	0	
8	0	0	0	0	511	510	0	0	
9	0	0	0	0	510	508	0	0	
10	0	0	0	0	511	506	0	0	
11	0	0	0	0	509	508	0	0	
12	0	0	0	0	509	508	0	0	
13	0	0	0	0	511	507	0	0	
14	0	0	0	0	511	507	0	0	
15	0	0	0	0	511	509	0	0	
0	0	0	0	0	511	508	0	0	
1	0	0	0	0	510	508	0	0	
2	0	0	0	0	512	507	0	0	
3	0	0	0	0	512	510	0	0	
4	0	0	0	0	512	508	0	0	
5	0	0	0	0	512	507	0	0	
6	0	0	0	0	513	507	0	0	
7	0	0	0	0	513	509	0	0	
8	0	0	0	0	514	509	0	0	
9	0	0	0	0	511	507	0	0	
10	0	0	0	0	511	509	0	0	
11	0	0	0	0	510	507	0	0	
12	0	0	0	0	511	510	0	0	
13	0	0	0	0	511	509	0	0	
14	0	0	0	0	511	507	0	0	
15	0	0	0	0	509	507	0	0	
0	0	0	0	0	510	510	0	0	
1	0	0	0	0	509	509	0	0	
2	0	0	0	0	511	508	0	0	
3	0	0	0	0	512	509	0	0	
4	0	0	0	0	508	508	0	0	
5	0	0	0	0	511	509	0	0	
6	0	0	0	0	511	510	0	0	
7	0	0	0	0	513	508	0	0	
8	0	0	0	0	510	508	0	0	
9	0	0	0	0	515	509	0	0	
10	0	0	0	0	514	508	0	0	
11	0	0	0	0	513	508	0	0	
12	0	0	0	0	510	505	0	0	
13	0	0	0	0	511	507	0	0	
14	0	0	0	0	512	508	0	0	
15	0	0	0	0	510	509	0	0	
0	0	0	0	0	510	508	0	0	
1	0	0	0	0	509	507	0	0	
2	0	0	0	0	509	508	0	0	
3	0	0	0	0	507	507	0	0	
4	0	0	0	0	510	507	0	0	
5	0	0	0	0	510	509	0	0	
6	0	0	0	0	510	506	0	0	
7	0	0	0	0	513	507	0	0	
8	0	0	0	0	511	508	0	0	
9	0	0	0	0	511	509	0	0	
10	0	0	0	0	511	510	0	0	
11	0	0	0	0	511	510	0	0	
12	0	0	0	0	512	507	0	0	
13	0	0	0	0	512	508	0	0	
14	0	0	0	0	515	508	0	0	
15	0	0	0	0	512	509	0	0	
0	0	0	0	0	511	507	0	0	
1	0	0	0	0	511	508	0	0	
2	0	0	0	0	510	508	0	0	
3	0	0	0	0	511	509	0	0	
4	0	0	0	0	510	508	0	0	
5	0	0	0	0	509	511	0	0	
6	0	0	0	0	507	508	0	0	
7	0	0	0	0	509	506	0	0	
8	0	0	0	0	511	507	0	0	
9	0	0	0	0	509	506	0	0	
10	0	0	0	0	511	508	0	0	
11	0	0	0	0	509	507	0	0	
12	0	0	0	0	510	508	0	0	
13	0	0	0	0	510	508	0	0	
14	0	0	0	0	511	508	0	0	
15	0	0	0	0	513	508	0	0	
0	0	0	0	0	512	509	0	0	
1	0	0	0	0	513	507	0	0	
2	0	0	0	0	515	508	0	0	
3	0	0	0	0	512	509	0	0	
4	0	0	0	0	512	506	0	0	
5	0	0	0	0	511	507	0	0	
6	0	0	0	0	510	508	0	0	
7	0	0	0	0	510	511	0	0	
8	0	0	0	0	509	508	0	0	
9	0	0	0	0	510	509	0	0	
10	0	0	0	0	511	507	0	0	
11	0	0	0	0	509	508	0	0	
12	0	0	0	0	508	507	0	0	
13	0	0	0	0	511	508	0	0	
14	0	0	0	0	511	509	0	0	
15	0	0	0	0	511	509	0	0	
0	0	0	0	0	509	508	0	0	
1	0	0	0	0	513	506	0	0	
2	0	0	0	0	512	507	0	0	
3	0	0	0	0	512	507	0	0	
4	0	0	0	0	513	509	0	0	
5	0	0	0	0	513	510	0	0	
6	0	0	0	0	511	508	0	0	
7	0	0	0	0	513	508	0	0	
8	0	0	0	0	511	509	0	0	
9	0	0	0	0	511	507	0	0	
10	0	0	0	0	508	508	0	0	
11	0	0	0	0	510	508	0	0	
12	0	0	0	0	511	508	0	0	
13	0	0	0	0	510	508	0	0	
14	0	0	0	0	509	507	0	0	
15	0	0	0	0	510	508	0	0	
0	0	0	0	0	511	508	0	0	
1	0	0	0	0	510	509	0	0	
2	0	0	0	0	508	506	0	0	
3	0	0	0	0	510	508	0	0	
4	0	0	0	0	510	505	0	0	
5	0	0	0	0	513	509	0	0	
6	0	0	0	0	511	508	0	0	
7	0	0	0	0	512	510	0	0	
8	0	0	0	0	512	508	0	0	
9	0	0	0	0	514	508	0	0	
10	0	0	0	0	513	509	0	0	
11	0	0	0	0	513	507	0	0	
12	0	0	0	0	510	509	0	0	
13	0	0	0	0	512	507	0	0	
14	0	0	0	0	509	510	0	0	
15	0	0	0	0	509	509	0	0	
0	0	0	0	0	511	509	0	0	
1	0	0	0	0	509	508	0	0	
2	0	0	0	0	510	506	0	0	
3	0	0	0	0	513	508	0	0	
4	0	0	0	0	510	509	0	0	
5	0	0	0	0	510	509	0	0	
6	0	0	0	0	507	508	0	0	
7	0	0	0	0	512	508	0	0	
8	0	0	0	0	510	506	0	0	
9	0	0	0	0	510	508	0	0	
10	0	0	0	0	511	508	0	0	
11	0	0	0	0	513	508	0	0	
12	0	0	0	0	513	508	0	0	
13	0	0	0	0	514	508	0	0	
14	0	0	0	0	513	507	0	0	
15	0	0	0	0	515	508	0	0	
0	0	0	0	0	513	509	0	0	
1	0	0	0	0	511	510	0	0	
2	0	0	0	0	511	508	0	0	
3	0	0	0	0	511	510	0	0	
4	0	0	0	0	512	507	0	0	
5	0	0	0	0	508	508	0	0	
6	0	0	0	0	510	508	0	0	
7	0	0	0	0	509	508	0	0	
8	0	0	0	0	509	509	0	0	
9	0	0	0	0	510	507	0	0	
10	0	0	0	0	509	509	0	0	
11	0	0	0	0	511	508	0	0	
12	0	0	0	0	510	507	0	0	
13	0	0	0	0	512	508	0	0	
14	0	0	0	0	512	508	0	0	
15	0	0	0	0	513	508	0	0	
0	0	0	0	0	511	507	0	0	
1	0	0	0	0	512	508	0	0	
2	0	0	0	0	514	507	0	0	
3	0	0	0	0	511	508	0	0	
4	0	0	0	0	512	509	0	0	
5	0	0	0	0	513	509	0	0	
6	0	0	0	0	509	508	0	0	
7	0	0	0	0	514	509	0	0	
8	0	0	0	0	511	508	0	0	
9	0	0	0	0	508	507	0	0	
10	0	0	0	0	511	507	0	0	
11	0	0	0	0	510	506	0	0	
12	0	0	0	0	508	506	0	0	
13	0	0	0	0	511	507	0	0	
14	0	0	0	0	509	508	0	0	
15	0	0	0	0	511	507	0	0	
0	0	0	0	0	512	509	0	0	
1	0	0	0	0	512	509	0	0	
2	0	0	0	0	513	508	0	0	
3	0	0	0	0	512	508	0	0	
4	0	0	0	0	512	507	0	0	
5	0	0	0	0	513	508	0	0	
6	0	0	0	0	515	509	0	0	
7	0	0	0	0	511	511	0	0	
8	0	0	0	0	509	507	0	0	
9	0	0	0	0	512	507	0	0	
10	0	0	0	0	510	509	0	0	
11	0	0	0	0	512	508	0	0	
12	0	0	0	0	511	508	0	0	
13	0	0	0	0	508	506	0	0	
14	0	0	0	0	506	508	0	0	
15	0	0	0	0	508	510	0	0	
0	0	0	0	0	509	509	0	0	
1	0	0	0	0	511	508	0	0	
2	0	0	0	0	512	508	0	0	
3	0	0	0	0	512	507	0	0	
4	0	0	0	0	512	509	0	0	
5	0	0	0	0	511	508	0	0	
6	0	0	0	0	513	509	0	0	
7	0	0	0	0	514	508	0	0	
8	0	0	0	0	512	509	0	0	
9	0	0	0	0	514	506	0	0	
10	0	0	0	0	513	508	0	0	
11	0	0	0	0	511	509	0	0	
12	0	0	0	0	511	507	0	0	
13	0	0	0	0	511	507	0	0	
14	0	0	0	0	512	508	0	0	
15	0	0	0	0	511	508	0	0	
0	0	0	0	0	509	508	0	0	
1	0	0	0	0	510	507	0	0	
2	0	0	0	0	509	507	0	0	
3	0	0	0	0	509	508	0	0	
4	0	0	0	0	509	508	0	0	
5	0	0	0	0	511	507	0	0	
6	0	0	0	0	511	508	0	0	
7	0	0	0	0	509	508	0	0	
8	0	0	0	0	510	508	0	0	
9	0	0	0	0	512	508	0	0	
10	0	0	0	0	512	508	0	0	
11	0	0	0	0	512	508	0	0	
12	0	0	0	0	513	507	0	0	
13	0	0	0	0	514	508	0	0	
14	0	0	0	0	513	507	0	0	
15	0	0	0	0	511	509	0	0	
0	0	0	0	0	513	508	0	0	
1	0	0	0	0	511	508	0	0	
2	0	0	0	0	512	509	0	0	
3	0	0	0	0	511	508	0	0	
4	0	0	0	0	511	509	0	0	
5	0	0	0	0	508	508	0	0	
6	0	0	0	0	509	508	0	0	
7	0	0	0	0	509	510	0	0	
8	0	0	0	0	508	509	0	0	
9	0	0	0	0	509	509	0	0	
10	0	0	0	0	512	508	0	0	
11	0	0	0	0	510	507	0	0	
12	0	0	0	0	512	508	0	0	
13	0	0	0	0	512	507	0	0	
14	0	0	0	0	512	507	0	0	
15	0	0	0	0	512	508	0	0	
0	0	0	0	0	512	508	0	0	
1	0	0	0	0	511	509	0	0	
2	0	0	0	0	513	508	0	0	
3	0	0	0	0	512	508	0	0	
4	0	0	0	0	512	508	0	0	
5	0	0	0	0	512	507	0	0	
6	0	0	0	0	512	509	0	0	
7	0	0	0	0	510	508	0	0	
8	0	0	0	0	508	505	0	0	
9	0	0	0	0	507	509	0	0	
10	0	0	0	0	508	508	0	0	
11	0	0	0	0	508	508	0	0	
12	0	0	0	0	510	508	0	0	
13	0	0	0	0	509	506	0	0	
14	0	0	0	0	514	507	0	0	
15	0	0	0	0	511	509	0	0	
0	0	0	0	0	510	509	0	0	
1	0	0	0	0	511	508	0	0	
2	0	0	0	0	512	510	0	0	
3	0	0	0	0	514	508	0	0	
4	0	0	0	0	512	508	0	0	
5	0	0	0	0	510	507	0	0	
6	0	0	0	0	513	507	0	0	
7	0	0	0	0	513	508	0	0	
8	0	0	0	0	512	507	0	0	
9	0	0	0	0	511	508	0	0	
10	0	0	0	0	512	508	0	0	
11	0	0	0	0	511	506	0	0	
12	0	0	0	0	511	507	0	0	
13	0	0	0	0	509	510	0	0	
14	0	0	0	0	508	510	0	0	
15	0	0	0	0	508	509	0	0	
0	0	0	0	0	509	506	0	0	
1	0	0	0	0	511	507	0	0	
2	0	0	0	0	510	510	0	0	
3	0	0	0	0	513	510	0	0	
4	0	0	0	0	510	506	0	0	
5	0	0	0	0	510	508	0	0	
6	0	0	0	0	511	508	0	0	
7	0	0	0	0	513	510	0	0	
8	0	0	0	0	513	506	0	0	
9	0	0	0	0	511	509	0	0	
10	0	0	0	0	511	509	0	0	
11	0	0	0	0	513	508	0	0	
12	0	0	0	0	513	508	0	0	
13	0	0	0	0	512	506	0	0	
14	0	0	0	0	511	507	0	0	
15	0	0	0	0	511	507	0	0	
0	0	0	0	0	510	506	0	0	
1	0	0	0	0	509	508	0	0	
2	0	0	0	0	510	507	0	0	
3	0	0	0	0	509	508	0	0	
4	0	0	0	0	510	509	0	0	
5	0	0	0	0	510	510	0	0	
6	0	0	0	0	510	509	0	0	
7	0	0	0	0	510	507	0	0	
8	0	0	0	0	510	508	0	0	
9	0	0	0	0	512	507	0	0	
10	0	0	0	0	512	509	0	0	
11	0	0	0	0	514	508	0	0	
12	0	0	0	0	515	508	0	0	
13	0	0	0	0	512	510	0	0	
14	0	0	0	0	511	508	0	0	
15	0	0	0	0	509	508	0	0	
0	0	0	0	0	511	508	0	0	
1	0	0	0	0	512	507	0	0	
2	0	0	0	0	512	507	0	0	
3	0	0	0	0	511	508	0	0	
4	0	0	0	0	511	509	0	0	
5	0	0	0	0	510	508	0	0	
6	0	0	0	0	510	506	0	0	
7	0	0	0	0	510	507	0	0	
8	0	0	0	0	509	507	0	0	
9	0	0	0	0	508	509	0	0	
10	0	0	0	0	510	508	0	0	
11	0	0	0	0	511	508	0	0	
12	0	0	0	0	512	510	0	0	
13	0	0	0	0	512	508	0	0	
14	0	0	0	0	511	508	0	0	
15	0	0	0	0	513	509	0	0	
0	0	0	0	0	512	510	0	0	
1	0	0	0	0	513	509	0	0	
2	0	0	0	0	512	508	0	0	
3	0	0	0	0	512	506	0	0	
4	0	0	0	0	512	508	0	0	
5	0	0	0	0	511	509	0	0	
6	0	0	0	0	510	509	0	0	
7	0	0	0	0	510	509	0	0	
8	0	0	0	0	511	506	0	0	
9	0	0	0	0	511	507	0	0	
10	0	0	0	0	510	506	0	0	
11	0	0	0	0	509	507	0	0	
12	0	0	0	0	512	508	0	0	
13	0	0	0	0	512	508	0	0	
14	0	0	0	0	510	508	0	0	
15	0	0	0	0	511	509	0	0	
0	0	0	0	0	512	509	0	0	
1	0	0	0	0	511	511	0	0	
2	0	0	0	0	513	508	0	0	
3	0	0	0	0	513	507	0	0	
4	0	0	0	0	511	508	0	0	
5	0	0	0	0	513	509	0	0	
6	0	0	0	0	511	508	0	0	
7	0	0	0	0	513	506	0	0	
8	0	0	0	0	510	508	0	0	
9	0	0	0	0	511	510	0	0	
10	0	0	0	0	508	509	0	0	
11	0	0	0	0	508	507	0	0	
12	0	0	0	0	511	507	0	0	
13	0	0	0	0	509	506	0	0	
14	0	0	0	0	508	509	0	0	
15	0	0	0	0	509	508	0	0	
0	0	0	0	0	510	507	0	0	
1	0	0	0	0	510	508	0	0	
2	0	0	0	0	511	508	0	0	
3	0	0	0	0	510	508	0	0	
4	0	0	0	0	512	508	0	0	
5	0	0	0	0	513	508	0	0	
6	0	0	0	0	512	508	0	0	
7	0	0	0	0	511	508	0	0	
8	0	0	0	0	512	507	0	0	
9	0	0	0	0	515	507	0	0	
10	0	0	0	0	513	508	0	0	
11	0	0	0	0	512	507	0	0	
12	0	0	0	0	513	507	0	0	
13	0	0	0	0	511	508	0	0	
14	0	0	0	0	511	510	0	0	
15	0	0	0	0	510	509	0	0	
0	0	0	0	0	510	509	0	0	
1	0	0	0	0	507	508	0	0	
2	0	0	0	0	507	509	0	0	
3	0	0	0	0	509	508	0	0	
4	0	0	0	0	511	508	0	0	
5	0	0	0	0	511	508	0	0	
6	0	0	0	0	511	508	0	0	
7	0	0	0	0	511	508	0	0	
8	0	0	0	0	511	508	0	0	
9	0	0	0	0	509	506	0	0	
10	0	0	0	0	513	508	0	0	
11	0	0	0	0	513	508	0	0	
12	0	0	0	0	513	508	0	0	
13	0	0	0	0	513	506	0	0	
14	0	0	0	0	511	509	0	0	
15	0	0	0	0	513	509	0	0	
0	0	0	0	0	513	507	0	0	
1	0	0	0	0	512	506	0	0	
2	0	0	0	0	512	508	0	0	
3	0	0	0	0	510	510	0	0	
4	0	0	0	0	510	509	0	0	
5	0	0	0	0	510	508	0	0	
6	0	0	0	0	509	506	0	0	
7	0	0	0	0	508	507	0	0	
8	0	0	0	0	510	508	0	0	
9	0	0	0	0	511	508	0	0	
10	0	0	0	0	508	508	0	0	
11	0	0	0	0	511	507	0	0	
12	0	0	0	0	514	507	0	0	
13	0	0	0	0	512	510	0	0	
14	0	0	0	0	512	507	0	0	
15	0	0	0	0	510	509	0	0	
0	0	0	0	0	512	508	0	0	
1	0	0	0	0	511	509	0	0	
2	0	0	0	0	510	510	0	0	
3	0	0	0	0	511	508	0	0	
4	0	0	0	0	513	508	0	0	
5	0	0	0	0	513	508	0	0	
6	0	0	0	0	511	507	0	0	
7	0	0	0	0	511	506	0	0	
8	0	0	0	0	510	508	0	0	
9	0	0	0	0	511	509	0	0	
10	0	0	0	0	511	507	0	0	
11	0	0	0	0	511	508	0	0	
12	0	0	0	0	510	507	0	0	
13	0	0	0	0	511	507	0	0	
14	0	0	0	0	510	508	0	0	
15	0	0	0	0	511	508	0	0	
0	0	0	0	0	511	507	0	0	
1	0	0	0	0	511	508	0	0	
2	0	0	0	0	511	508	0	0	
3	0	0	0	0	512	509	0	0	
4	0	0	0	0	513	508	0	0	
5	0	0	0	0	511	508	0	0	
6	0	0	0	0	512	509	0	0	
7	0	0	0	0	511	508	0	0	
8	0	0	0	0	512	507	0	0	
9	0	0	0	0	510	508	0	0	
10	0	0	0	0	510	509	0	0	
11	0	0	0	0	508	507	0	0	
12	0	0	0	0	508	508	0	0	
13	0	0	0	0	510	508	0	0	
14	0	0	0	0	512	507	0	0	
15	0	0	0	0	513	508	0	0	
0	0	0	0	0	510	508	0	0	
1	0	0	0	0	510	508	0	0	
2	0	0	0	0	510	508	0	0	
3	0	0	0	0	509	508	0	0	
4	0	0	0	0	510	508	0	0	
5	0	0	0	0	511	508	0	0	
6	0	0	0	0	514	509	0	0	
7	0	0	0	0	513	508	0	0	
8	0	0	0	0	512	507	0	0	
9	0	0	0	0	513	507	0	0	
10	0	0	0	0	514	508	0	0	
11	0	0	0	0	513	508	0	0	
12	0	0	0	0	510	508	0	0	
13	0	0	0	0	510	508	0	0	
14	0	0	0	0	512	508	0	0	
15	0	0	0	0	510	508	0	0	
0	0	0	0	0	510	508	0	0	
1	0	0	0	0	512	508	0	0	
2	0	0	0	0	508	507	0	0	
3	0	0	0	0	508	509	0	0	
4	0	0	0	0	509	508	0	0	
5	0	0	0	0	509	507	0	0	
6	0	0	0	0	510	506	0	0	
7	0	0	0	0	511	508	0	0	
8	0	0	0	0	512	507	0	0	
9	0	0	0	0	513	508	0	0	
10	0	0	0	0	511	507	0	0	
11	0	0	0	0	513	508	0	0	
12	0	0	0	0	511	506	0	0	
13	0	0	0	0	513	508	0	0	
14	0	0	0	0	512	508	0	0	
15	0	0	0	0	513	511	0	0	
0	0	0	0	0	511	508	0	0	
1	0	0	0	0	510	510	0	0	
2	0	0	0	0	508	508	0	0	
3	0	0	0	0	511	509	0	0	
4	0	0	0	0	509	507	0	0	
5	0	0	0	0	507	509	0	0	
6	0	0	0	0	509	507	0	0	
7	0	0	0	0	508	509	0	0	
8	0	0	0	0	515	508	0	0	
9	0	0	0	0	513	506	0	0	
10	0	0	0	0	510	508	0	0	
11	0	0	0	0	513	507	0	0	
12	0	0	0	0	512	510	0	0	
13	0	0	0	0	509	509	0	0	
14	0	0	0	0	512	508	0	0	
15	0	0	0	0	514	509	0	0	
0	0	0	0	0	512	509	0	0	
1	0	0	0	0	513	508	0	0	
2	0	0	0	0	512	508	0	0	
3	0	0	0	0	501	510	0	0	
4	0	0	0	0	494	505	0	0	
5	0	0	0	0	494	508	0	0	
6	0	0	0	0	496	507	0	0	
7	0	0	0	0	502	507	0	0	
8	0	0	0	0	505	508	0	0	
9	0	0	0	0	529	507	0	0	
10	0	0	0	0	551	509	0	0	
11	0	0	0	0	551	510	0	0	
12	0	0	0	0	539	512	0	0	
13	0	0	0	0	514	509	0	0	
14	0	0	0	0	503	507	0	0	
15	0	0	0	0	504	507	0	0	
0	0	0	0	0	509	504	0	0	
1	0	0	0	0	506	504	0	0	
2	0	0	0	0	506	510	0	0	
3	0	0	0	0	510	507	0	0	
4	0	0	0	0	508	508	0	0	
5	0	0	0	0	504	508	0	0	
6	0	0	0	0	504	508	0	0	
7	0	0	0	0	502	509	0	0	
8	0	0	0	0	506	508	0	0	
9	0	0	0	0	510	510	0	0	
10	0	0	0	0	511	509	0	0	
11	0	0	0	0	509	509	0	0	
12	0	0	0	0	508	508	0	0	
13	0	0	0	0	510	508	0	0	
14	0	0	0	0	512	507	0	0	
15	0	0	0	0	512	508	0	0	
0	0	0	0	0	511	509	0	0	
1	0	0	0	0	510	508	0	0	
2	0	0	0	0	507	508	0	0	
3	0	0	0	0	510	509	0	0	
4	0	0	0	0	513	507	0	0	
5	0	0	0	0	505	507	0	0	
6	0	0	0	0	507	508	0	0	
7	0	0	0	0	515	508	0	0	
8	0	0	0	0	519	508	0	0	
9	0	0	0	0	516	510	0	0	
10	0	0	0	0	512	509	0	0	
11	0	0	0	0	510	506	0	0	
12	0	0	0	0	507	507	0	0	
13	0	0	0	0	501	508	0	0	
14	0	0	0	0	503	508	0	0	
15	0	0	0	0	510	508	0	0	
0	0	0	0	0	514	511	0	0	
1	0	0	0	0	504	507	0	0	
2	0	0	0	0	519	505	0	0	
3	0	0	0	0	551	507	0	0	
4	0	0	0	0	543	511	0	0	
5	0	0	0	0	516	509	0	0	
6	0	0	0	0	495	505	0	0	
7	0	0	0	0	486	505	0	0	
8	0	0	0	0	484	508	0	0	
9	0	0	0	0	492	508	0	0	
10	0	0	0	0	513	508	0	0	
11	0	0	0	0	517	507	0	0	
12	0	0	0	0	520	508	0	0	
13	0	0	0	0	509	510	0	0	
14	0	0	0	0	518	512	0	0	
15	0	0	0	0	535	508	0	0	
0	0	0	0	0	532	509	0	0	
1	0	0	0	0	535	510	0	0	
2	0	0	0	0	535	508	0	0	
3	0	0	0	0	519	507	0	0	
4	0	0	0	0	504	507	0	0	
5	0	0	0	0	499	507	0	0	
6	0	0	0	0	494	507	0	0	
7	0	0	0	0	496	510	0	0	
8	0	0	0	0	492	509	0	0	
9	0	0	0	0	490	511	0	0	
10	0	0	0	0	491	506	0	0	
11	0	0	0	0	502	503	0	0	
12	0	0	0	0	508	505	0	0	
13	0	0	0	0	517	506	0	0	
14	0	0	0	0	512	508	0	0	
15	0	0	0	0	508	509	0	0	
0	0	0	0	0	510	507	0	0	
1	0	0	0	0	514	504	1	0	
2	0	0	0	0	513	508	12	0	
3	0	0	0	0	511	507	15	0	
4	0	0	0	0	514	510	11	0	
5	0	0	0	0	513	510	9	0	
6	0	0	0	0	502	508	6	0	
7	0	0	0	0	523	509	9	0	
8	0	0	0	0	546	509	15	0	
9	0	0	0	0	522	508	18	0	
10	0	0	0	0	513	509	15	0	
11	0	0	0	0	513	509	20	0	
12	0	0	0	0	513	505	20	0	
13	0	0	0	0	524	505	21	0	
14	0	0	0	0	506	504	21	0	
15	0	0	0	0	483	508	24	0	
0	0	0	0	0	481	510	30	0	
1	0	0	0	0	492	507	33	0	
2	0	0	0	0	488	508	31	0	
3	0	0	0	0	495	508	32	0	
4	0	0	0	0	505	504	36	0	
5	0	0	0	0	516	508	37	0	
6	0	0	0	0	537	507	39	0	
7	0	0	0	0	539	510	39	0	
8	0	0	0	0	518	512	37	0	
9	0	0	0	0	511	510	38	0	
10	0	0	0	0	515	504	37	0	
11	0	0	0	0	523	504	39	0	
12	0	0	0	0	514	507	38	0	
13	0	0	0	0	509	510	38	0	
14	0	0	0	0	497	510	40	0	
15	0	0	0	0	504	508	40	0	
0	0	0	0	0	508	508	41	0	
1	0	0	0	0	536	511	40	0	
2	0	0	0	0	526	510	43	0	
3	0	0	0	0	531	511	43	0	
4	0	0	0	0	507	506	44	0	
5	0	0	0	0	492	504	43	0	
6	0	0	0	0	497	508	44	0	
7	0	0	0	0	492	512	46	0	
8	0	0	0	0	499	512	45	0	
9	0	0	0	0	508	511	46	0	
10	0	0	0	0	515	507	46	0	
11	0	0	0	0	528	505	48	0	
12	0	0	0	0	530	502	48	0	
13	0	0	0	0	512	506	49	0	
14	0	0	0	0	499	508	47	0	
15	0	0	0	0	498	506	50	0	
0	0	0	0	0	499	508	48	0	
1	0	0	0	0	495	509	49	0	
2	0	0	0	0	504	506	51	0	
3	0	0	0	0	516	510	48	0	
4	0	0	0	0	529	511	50	0	
5	0	0	0	0	522	514	50	0	
6	0	0	0	0	506	515	51	0	
7	0	0	0	0	513	511	52	0	
8	0	0	0	0	532	507	55	0	
9	0	0	0	0	518	508	56	0	
10	0	0	0	0	511	506	52	0	
11	0	0	0	0	491	506	53	0	
12	0	0	0	0	490	513	53	0	
13	0	0	0	0	504	510	55	0	
14	0	0	0	0	550	509	58	0	
15	0	0	0	0	572	510	62	0	
0	0	0	0	0	555	508	63	0	
1	0	0	0	0	523	501	64	0	
2	0	0	0	0	494	495	65	0	
3	0	0	0	0	478	490	63	0	
4	0	0	0	0	472	504	63	0	
5	0	0	0	0	491	510	64	0	
6	0	0	0	0	504	512	64	0	
7	0	0	0	0	479	517	68	0	
8	0	0	0	0	464	515	70	0	
9	0	0	0	0	483	511	71	0	
10	0	0	0	0	504	514	71	0	
11	0	0	0	0	534	511	75	0	
12	0	0	0	0	534	507	76	0	
13	0	0	0	0	548	500	79	0	
14	0	0	0	0	568	505	81	0	
15	0	0	0	0	502	501	80	0	
0	0	0	0	0	471	500	77	0	
1	0	0	0	0	472	501	79	0	
2	0	0	0	0	486	505	84	0	
3	0	0	0	0	487	515	91	0	
4	0	0	0	0	532	519	95	0	
5	0	0	0	0	569	516	94	0	
6	0	0	0	0	554	513	96	0	
7	0	0	0	0	515	513	97	0	
8	0	0	0	0	523	516	101	0	
9	0	0	0	0	526	507	102	0	
10	0	0	0	0	530	503	103	0	
11	0	0	0	0	526	508	105	0	
12	0	0	0	0	516	504	106	0	
13	0	0	0	0	510	496	109	0	
14	0	0	0	0	486	490	109	0	
15	0	0	0	0	482	503	111	0	
0	0	0	0	0	451	508	113	0	
1	0	0	0	0	472	511	111	0	
2	0	0	0	0	545	515	114	0	
3	0	0	0	0	548	512	115	0	
4	0	0	0	0	516	511	122	0	
5	0	0	0	0	508	508	125	0	
6	0	0	0	0	529	515	127	0	
7	0	0	0	0	532	511	126	0	
8	0	0	0	0	521	501	127	0	
9	0	0	0	0	533	505	131	0	
10	0	0	0	0	559	513	133	0	
11	0	0	0	0	521	515	131	0	
12	0	0	0	0	509	512	130	0	
13	0	0	0	0	471	508	136	0	
14	0	0	0	0	461	509	134	0	
15	0	0	0	0	472	509	136	0	
0	0	0	0	0	474	507	134	0	
1	0	0	0	0	467	503	139	0	
2	0	0	0	0	481	503	140	0	
3	0	0	0	0	496	509	144	0	
4	0	0	0	0	521	523	146	0	
5	0	0	0	0	498	513	150	0	
6	0	0	0	0	499	499	152	0	
7	0	0	0	0	510	502	149	0	
8	0	0	0	0	529	500	148	0	
9	0	0	0	0	522	496	152	0	
10	0	0	0	0	543	494	147	0	
11	0	0	0	0	572	498	149	0	
12	0	0	0	0	538	512	151	0	
13	0	0	0	0	517	517	150	0	
14	0	0	0	0	503	514	154	0	
15	0	0	0	0	488	511	153	0	
0	0	0	0	0	512	511	153	0	
1	0	0	0	0	583	510	155	0	
2	0	0	0	0	543	520	155	0	
3	0	0	0	0	505	516	155	0	
4	0	0	0	0	433	511	160	0	
5	0	0	0	0	431	509	163	0	
6	0	0	0	0	459	508	167	0	
7	0	0	0	0	527	501	172	0	
8	0	0	0	0	588	491	175	0	
9	0	0	0	0	630	507	180	0	
10	0	0	0	0	600	512	184	0	
11	0	0	0	0	536	508	183	0	
12	0	0	0	0	495	513	184	0	
13	0	0	0	0	460	509	181	0	
14	0	0	0	0	427	502	183	0	
15	0	0	0	0	431	508	189	0	
0	0	0	0	0	459	509	188	0	
1	0	0	0	0	537	509	191	0	
2	0	0	0	0	519	511	189	0	
3	0	0	0	0	479	508	194	0	
4	0	0	0	0	483	511	195	0	
5	0	0	0	0	528	507	198	4	
6	0	0	0	0	559	507	199	7	
7	0	0	0	0	572	506	196	18	
8	0	0	0	0	529	501	196	21	
9	0	0	0	0	460	499	200	33	
10	0	0	0	0	484	512	201	37	
11	0	0	0	0	540	522	206	39	
12	0	0	0	0	526	516	206	43	
13	0	0	0	0	505	511	211	45	
14	0	0	0	0	527	505	215	49	
15	0	0	0	0	549	504	212	54	
0	0	0	0	0	515	495	215	57	
1	0	0	0	0	476	499	216	57	
2	0	0	0	0	417	501	217	58	
3	0	0	0	0	431	507	220	63	
4	0	0	0	0	487	511	222	66	
5	0	0	0	0	513	499	226	67	
6	0	0	0	0	586	502	228	70	
7	0	0	0	0	671	519	227	75	
8	0	0	0	0	611	518	233	76	
9	0	0	0	0	531	526	234	74	
10	0	0	0	0	465	512	236	76	
11	0	0	0	0	464	498	234	77	
12	0	0	0	0	472	503	233	75	
13	0	0	0	0	459	501	237	79	
14	0	0	0	0	460	497	241	82	
15	0	0	0	0	537	503	244	80	
0	0	0	0	0	548	516	243	81	
1	0	0	0	0	487	518	244	88	
2	0	0	0	0	507	515	246	95	
3	0	0	0	0	588	519	246	95	
4	0	0	0	0	585	521	245	91	
5	0	0	0	0	547	517	246	92	
6	0	0	0	0	492	515	245	94	
7	0	0	0	0	451	509	249	96	
8	0	0	0	0	464	505	248	95	
9	0	0	0	0	475	493	248	91	
10	0	0	0	0	475	483	248	89	
11	0	0	0	0	521	486	251	92	
12	0	0	0	0	543	504	250	96	
13	0	0	0	0	540	508	252	97	
14	0	0	0	0	550	508	257	97	
15	0	0	0	0	505	508	260	99	
0	0	0	0	0	491	518	259	95	
1	0	0	0	0	498	511	257	97	
2	0	0	0	0	496	497	257	96	
3	0	0	0	0	496	498	260	97	
4	0	0	0	0	502	510	258	97	
5	0	0	0	0	503	513	258	96	
6	0	0	0	0	488	512	260	97	
7	0	0	0	0	438	509	260	98	
8	0	0	0	0	452	511	259	100	
9	0	0	0	0	456	511	262	99	
10	0	0	0	0	516	518	260	104	
11	0	0	0	0	662	519	259	106	
12	0	0	0	0	667	524	258	108	
13	0	0	0	0	588	517	266	107	
14	0	0	0	0	525	513	270	111	
15	0	0	0	0	508	493	274	110	
0	0	0	0	0	515	501	269	110	
1	0	0	0	0	466	498	271	110	
2	0	0	0	0	401	498	274	109	
3	0	0	0	0	402	497	275	111	
4	0	0	0	0	449	504	275	111	
5	0	0	0	0	488	510	271	111	
6	0	0	0	0	500	508	272	114	
7	0	0	0	0	484	505	273	117	
8	0	0	0	0	569	505	275	118	
9	0	0	0	0	600	505	277	121	
10	0	0	0	0	557	514	275	122	
11	0	0	0	0	495	523	276	124	
12	0	0	0	0	502	526	281	128	
13	0	0	0	0	529	511	286	127	
14	0	0	0	0	534	489	286	126	
15	0	0	0	0	531	500	285	130	
0	0	0	0	0	528	504	284	135	
1	0	0	0	0	542	509	285	134	
2	0	0	0	0	502	508	285	137	
3	0	0	0	0	457	504	283	137	
4	0	0	0	0	458	502	284	138	
5	0	0	0	0	486	502	286	140	
6	0	0	0	0	435	513	286	141	
7	0	0	0	0	473	526	288	142	
8	0	0	0	0	588	513	288	141	
9	0	0	0	0	605	516	293	139	
10	0	0	0	0	630	517	289	140	
11	0	0	0	0	633	511	291	145	
12	0	0	0	0	494	503	295	147	
13	0	0	0	0	421	497	290	144	
14	0	0	0	0	438	500	295	147	
15	0	0	0	0	479	511	298	146	
0	0	0	0	0	518	511	297	148	
1	0	0	0	0	550	504	297	155	
2	0	0	0	0	543	500	296	151	
3	0	0	0	0	540	514	294	153	
4	0	0	0	0	540	512	296	150	
5	0	0	0	0	524	512	294	150	
6	0	0	0	0	487	509	295	154	
7	0	0	0	0	489	506	296	150	
8	0	0	0	0	488	499	297	152	
9	0	0	0	0	478	496	295	151	
10	0	0	0	0	455	504	294	155	
11	0	0	0	0	485	511	295	156	
12	0	0	0	0	483	511	298	156	
13	0	0	0	0	501	508	297	161	
14	0	0	0	0	550	511	295	155	
15	0	0	0	0	491	508	295	156	
0	0	0	0	0	504	513	296	163	
1	0	0	0	0	511	516	297	158	
2	0	0	0	0	446	505	302	162	
3	0	0	0	0	540	509	300	162	
4	0	0	0	0	532	508	296	163	
5	0	0	0	0	523	505	299	161	
6	0	0	0	0	514	509	298	161	
7	0	0	0	0	521	508	297	164	
8	0	0	0	0	504	509	292	169	
9	0	0	0	0	522	515	294	169	
10	0	0	0	0	532	515	294	170	
11	0	0	0	0	534	508	296	170	
12	0	0	0	0	552	502	300	171	
13	0	0	0	0	512	504	301	171	
14	0	0	0	0	434	501	305	171	
15	0	0	0	0	416	499	303	171	
0	0	0	0	0	484	505	305	170	
1	0	0	0	0	586	508	301	169	
2	0	0	0	0	604	506	302	170	
3	0	0	0	0	585	505	299	171	
4	0	0	0	0	546	506	301	170	
5	0	0	0	0	508	511	300	172	
6	0	0	0	0	496	509	301	173	
7	0	0	0	0	496	519	301	173	
8	0	0	0	0	476	522	297	172	
9	0	0	0	0	482	519	299	172	
10	0	0	0	0	490	503	300	172	
11	0	0	0	0	503	504	302	173	
12	0	0	0	0	525	501	302	173	
13	0	0	0	0	527	491	302	175	
14	0	0	0	0	503	496	302	172	
15	0	0	0	0	480	499	302	172	
0	0	0	0	0	491	503	300	174	
1	0	0	0	0	494	504	301	174	
2	0	0	0	0	515	516	301	175	
3	0	0	0	0	538	520	304	175	
4	0	0	0	0	491	513	303	174	
5	0	0	0	0	499	514	305	175	
6	0	0	0	0	549	515	305	174	
7	0	0	0	0	538	502	305	176	
8	0	0	0	0	487	506	306	175	
9	0	0	0	0	466	512	306	175	
10	0	0	0	0	462	511	306	175	
11	0	0	0	0	476	503	307	176	
12	0	0	0	0	547	503	307	175	
13	0	0	0	0	586	508	308	173	
14	0	0	0	0	583	510	307	174	
15	0	0	0	0	564	520	307	172	
0	0	0	0	0	554	512	307	172	
1	0	0	0	0	482	504	308	172	
2	0	0	0	0	464	509	307	174	
3	0	0	0	0	460	511	307	174	
4	0	0	0	0	448	510	308	176	
5	0	0	0	0	476	512	308	174	
6	0	0	0	0	568	503	309	174	
7	0	0	0	0	616	496	308	173	
8	0	0	0	0	524	501	309	176	
9	0	0	0	0	477	497	310	174	
10	0	0	0	0	468	492	310	174	
11	0	0	0	0	466	503	310	173	
12	0	0	0	0	492	520	311	172	
13	0	0	0	0	546	530	311	172	
14	0	0	0	0	532	529	313	173	
15	0	0	0	0	520	515	313	171	
0	0	0	0	0	504	506	315	171	
1	0	0	0	0	512	495	314	172	
2	0	0	0	0	510	500	313	174	
3	0	0	0	0	519	504	313	177	
4	0	0	0	0	503	507	313	176	
5	0	0	0	0	493	518	313	177	
6	0	0	0	0	511	513	313	177	
7	0	0	0	0	505	504	313	177	
8	0	0	0	0	499	499	314	179	
9	0	0	0	0	538	504	314	177	
10	0	0	0	0	508	507	313	177	
11	0	0	0	0	495	508	314	177	
12	0	0	0	0	574	511	313	177	
13	0	0	0	0	577	512	313	179	
14	0	0	0	0	483	510	313	177	
15	0	0	0	0	426	509	313	178	
0	0	0	0	0	416	513	314	179	
1	0	0	0	0	455	506	316	181	
2	0	0	0	0	551	501	317	181	
3	0	0	0	0	600	508	317	180	
4	0	0	0	0	569	508	316	181	
5	0	0	0	0	530	514	317	180	
6	0	0	0	0	489	507	318	181	
7	0	0	0	0	496	503	319	182	
8	0	0	0	0	505	505	316	182	
9	0	0	0	0	533	512	316	181	
10	0	0	0	0	536	511	316	181	
11	0	0	0	0	513	509	316	182	
12	0	0	0	0	487	505	315	182	
13	0	0	0	0	514	507	312	180	
14	0	0	0	0	523	507	313	181	
15	0	0	0	0	496	508	309	184	
0	0	0	0	0	496	508	310	184	
1	0	0	0	0	519	508	312	182	
2	0	0	0	0	511	506	310	184	
3	0	0	0	0	467	500	310	183	
4	0	0	0	0	429	504	307	182	
5	0	0	0	0	428	516	306	183	
6	0	0	0	0	452	514	306	181	
7	0	0	0	0	497	512	305	183	
8	0	0	0	0	611	510	302	180	
9	0	0	0	0	712	514	302	185	
10	0	0	0	0	570	504	301	175	
11	0	0	0	0	535	498	300	177	
12	0	0	0	0	523	500	298	174	
13	0	0	0	0	485	507	296	172	
14	0	0	0	0	462	512	297	170	
15	0	0	0	0	454	508	298	168	
0	0	0	0	0	462	509	299	171	
1	0	0	0	0	480	503	298	170	
2	0	0	0	0	570	509	299	171	
3	0	0	0	0	512	517	298	172	
4	0	0	0	0	518	510	303	170	
5	0	0	0	0	535	514	302	169	
6	0	0	0	0	502	510	304	168	
7	0	0	0	0	515	513	301	169	
8	0	0	0	0	548	510	303	167	
9	0	0	0	0	516	500	302	169	
10	0	0	0	0	489	488	300	171	
11	0	0	0	0	481	499	300	168	
12	0	0	0	0	502	503	301	170	
13	0	0	0	0	496	510	298	171	
14	0	0	0	0	521	512	298	169	
15	0	0	0	0	530	514	298	169	
0	0	0	0	0	531	504	299	170	
1	0	0	0	0	523	510	300	171	
2	0	0	0	0	495	508	299	171	
3	0	0	0	0	481	510	301	171	
4	0	0	0	0	498	511	301	172	
5	0	0	0	0	498	514	304	172	
6	0	0	0	0	492	511	301	171	
7	0	0	0	0	480	508	302	172	
8	0	0	0	0	442	509	302	171	
9	0	0	0	0	461	511	301	171	
10	0	0	0	0	514	508	301	170	
11	0	0	0	0	506	504	303	169	
12	0	0	0	0	614	507	301	170	
13	0	0	0	0	678	505	301	168	
14	0	0	0	0	591	518	301	170	
15	0	0	0	0	518	505	302	167	
0	0	0	0	0	498	506	303	167	
1	0	0	0	0	486	511	301	169	
2	0	0	0	0	474	508	302	167	
3	0	0	0	0	455	509	304	167	
4	0	0	0	0	424	499	303	168	
5	0	0	0	0	447	488	302	171	
6	0	0	0	0	527	497	300	172	
7	0	0	0	0	571	512	302	167	
8	0	0	0	0	553	518	302	171	
9	0	0	0	0	606	522	302	169	
10	0	0	0	0	566	515	302	170	
11	0	0	0	0	527	513	303	171	
12	0	0	0	0	489	515	303	169	
13	0	0	0	0	476	510	303	169	
14	0	0	0	0	479	504	303	172	
15	0	0	0	0	459	499	304	172	
0	0	0	0	0	458	505	302	176	
1	0	0	0	0	449	507	302	173	
2	0	0	0	0	455	506	301	170	
3	0	0	0	0	491	508	302	174	
4	0	0	0	0	557	513	301	174	
5	0	0	0	0	582	506	302	174	
6	0	0	0	0	563	508	303	176	
7	0	0	0	0	544	504	304	173	
8	0	0	0	0	532	502	304	175	
9	0	0	0	0	536	508	304	175	
10	0	0	0	0	516	513	303	174	
11	0	0	0	0	496	513	305	177	
12	0	0	0	0	492	507	306	175	
13	0	0	0	0	498	508	307	176	
14	0	0	0	0	508	507	304	176	
15	0	0	0	0	500	505	306	179	
0	0	0	0	0	511	499	307	184	
1	0	0	0	0	490	505	306	182	
2	0	0	0	0	483	513	306	181	
3	0	0	0	0	517	516	306	185	
4	0	0	0	0	504	510	307	184	
5	0	0	0	0	503	509	307	184	
6	0	0	0	0	494	503	308	186	
7	0	0	0	0	514	504	307	184	
8	0	0	0	0	534	514	307	184	
9	0	0	0	0	539	512	307	185	
10	0	0	0	0	547	511	307	184	
11	0	0	0	0	511	509	308	185	
12	0	0	0	0	479	506	307	185	
13	0	0	0	0	481	508	308	187	
14	0	0	0	0	483	503	308	187	
15	0	0	0	0	492	504	309	188	
0	0	0	0	0	534	511	308	188	
1	0	0	0	0	523	520	310	188	
2	0	0	0	0	508	520	309	188	
3	0	0	0	0	497	509	309	187	
4	0	0	0	0	541	503	310	188	
5	0	0	0	0	536	492	309	188	
6	0	0	0	0	492	504	310	190	
7	0	0	0	0	502	507	310	188	
8	0	0	0	0	495	508	310	188	
9	0	0	0	0	518	506	310	188	
10	0	0	0	0	567	508	310	191	
11	0	0	0	0	562	511	309	190	
12	0	0	0	0	507	507	309	190	
13	0	0	0	0	486	509	308	188	
14	0	0	0	0	491	511	308	188	
15	0	0	0	0	491	508	307	189	
0	0	0	0	0	501	504	308	190	
1	0	0	0	0	483	509	307	190	
2	0	0	0	0	490	508	307	188	
3	0	0	0	0	542	509	307	189	
4	0	0	0	0	527	513	307	190	
5	0	0	0	0	560	513	307	188	
6	0	0	0	0	598	509	308	189	
7	0	0	0	0	539	514	307	188	
8	0	0	0	0	458	506	306	189	
9	0	0	0	0	442	496	306	191	
10	0	0	0	0	444	493	307	192	
11	0	0	0	0	449	489	306	192	
12	0	0	0	0	481	500	308	191	
13	0	0	0	0	491	511	308	192	
14	0	0	0	0	583	515	308	192	
15	0	0	0	0	669	518	308	190	
0	0	0	0	0	612	515	306	190	
1	0	0	0	0	504	512	307	189	
2	0	0	0	0	439	510	307	188	
3	0	0	0	0	453	511	309	189	
4	0	0	0	0	469	508	310	190	
5	0	0	0	0	489	511	312	188	
6	0	0	0	0	510	508	313	189	
7	0	0	0	0	509	508	312	188	
8	0	0	0	0	505	512	312	189	
9	0	0	0	0	479	512	313	191	
10	0	0	0	0	471	509	312	193	
11	0	0	0	0	505	506	313	195	
12	0	0	0	0	587	503	313	194	
13	0	0	0	0	562	496	313	194	
14	0	0	0	0	560	506	313	192	
15	0	0	0	0	535	512	314	193	
0	0	0	0	0	500	508	315	193	
1	0	0	0	0	503	505	316	191	
2	0	0	0	0	520	510	315	191	
3	0	0	0	0	510	508	316	191	
4	0	0	0	0	460	511	315	191	
5	0	0	0	0	470	511	312	193	
6	0	0	0	0	495	511	312	194	
7	0	0	0	0	487	504	311	198	
8	0	0	0	0	504	501	309	198	
9	0	0	0	0	514	504	308	198	
10	0	0	0	0	500	511	310	198	
11	0	0	0	0	496	506	310	199	
12	0	0	0	0	499	511	308	198	
13	0	0	0	0	530	514	310	198	
14	0	0	0	0	611	511	311	200	
15	0	0	0	0	556	512	312	201	
0	0	0	0	0	486	519	311	201	
1	0	0	0	0	493	517	311	202	
2	0	0	0	0	556	504	312	204	
3	0	0	0	0	547	502	312	205	
4	0	0	0	0	491	504	312	205	
5	0	0	0	0	504	503	312	203	
6	0	0	0	0	506	507	313	203	
7	0	0	0	0	484	505	310	203	
8	0	0	0	0	478	504	319	203	
9	0	0	0	0	457	500	319	205	
10	0	0	0	0	472	505	320	207	
11	0	0	0	0	527	508	318	208	
12	0	0	0	0	588	516	320	210	
13	0	0	0	0	540	513	321	212	
14	0	0	0	0	511	505	321	209	
15	0	0	0	0	521	507	322	205	
0	0	0	0	0	525	505	322	204	
1	0	0	0	0	514	505	323	203	
2	0	0	0	0	503	517	321	202	
3	0	0	0	0	476	521	322	200	
4	0	0	0	0	477	520	320	200	
5	0	0	0	0	499	520	320	201	
6	0	0	0	0	493	504	318	203	
7	0	0	0	0	459	503	318	202	
8	0	0	0	0	443	497	317	203	
9	0	0	0	0	469	487	319	204	
10	0	0	0	0	563	484	320	204	
11	0	0	0	0	598	494	320	203	
12	0	0	0	0	563	510	319	203	
13	0	0	0	0	593	524	319	200	
14	0	0	0	0	588	522	319	200	
15	0	0	0	0	537	509	319	201	
0	0	0	0	0	517	511	319	201	
1	0	0	0	0	489	514	319	200	
2	0	0	0	0	481	511	317	199	
3	0	0	0	0	463	509	316	199	
4	0	0	0	0	480	507	314	201	
5	0	0	0	0	470	516	312	199	
6	0	0	0	0	463	524	311	200	
7	0	0	0	0	492	513	310	199	
8	0	0	0	0	492	511	311	201	
9	0	0	0	0	458	508	309	201	
10	0	0	0	0	491	489	308	201	
11	0	0	0	0	440	481	311	198	
12	0	0	0	0	462	487	311	199	
13	0	0	0	0	561	496	311	201	
14	0	0	0	0	640	511	311	199	
15	0	0	0	0	623	519	311	199	
0	0	0	0	0	557	515	311	199	
1	0	0	0	0	553	513	312	199	
2	0	0	0	0	508	510	311	198	
3	0	0	0	0	470	510	311	199	
4	0	0	0	0	455	511	311	198	
5	0	0	0	0	461	508	310	198	
6	0	0	0	0	519	514	311	199	
7	0	0	0	0	529	514	311	198	
8	0	0	0	0	543	509	311	200	
9	0	0	0	0	585	511	311	201	
10	0	0	0	0	528	516	312	199	
11	0	0	0	0	508	514	313	199	
12	0	0	0	0	519	509	315	202	
13	0	0	0	0	496	505	315	202	
14	0	0	0	0	485	494	315	203	
15	0	0	0	0	472	495	317	201	
0	0	0	0	0	470	504	318	203	
1	0	0	0	0	502	512	317	204	
2	0	0	0	0	533	515	316	203	
3	0	0	0	0	513	511	318	204	
4	0	0	0	0	498	505	319	204	
5	0	0	0	0	518	504	318	204	
6	0	0	0	0	487	505	317	203	
7	0	0	0	0	466	506	319	203	
8	0	0	0	0	491	524	318	202	
9	0	0	0	0	548	523	317	203	
10	0	0	0	0	551	516	317	206	
11	0	0	0	0	548	508	315	205	
12	0	0	0	0	533	502	317	206	
13	0	0	0	0	481	497	316	207	
14	0	0	0	0	465	497	315	209	
15	0	0	0	0	510	502	314	211	
0	0	0	0	0	534	507	314	212	
1	0	0	0	0	516	511	316	215	
2	0	0	0	0	471	506	315	216	
3	0	0	0	0	434	499	315	218	
4	0	0	0	0	409	499	315	218	
5	0	0	0	0	475	506	315	216	
6	0	0	0	0	619	512	315	215	
7	0	0	0	0	678	514	315	217	
8	0	0	0	0	568	512	316	217	
9	0	0	0	0	513	508	316	217	
10	0	0	0	0	468	511	316	217	
11	0	0	0	0	493	515	315	219	
12	0	0	0	0	506	516	316	220	
13	0	0	0	0	476	508	316	220	
14	0	0	0	0	511	507	316	220	
15	0	0	0	0	563	502	316	221	
0	0	0	0	0	584	506	318	221	
1	0	0	0	0	529	509	317	220	
2	0	0	0	0	487	510	318	221	
3	0	0	0	0	489	509	318	220	
4	0	0	0	0	497	517	319	221	
5	0	0	0	0	490	518	319	221	
6	0	0	0	0	500	505	319	221	
7	0	0	0	0	507	502	319	222	
8	0	0	0	0	499	508	319	222	
9	0	0	0	0	504	490	319	222	
10	0	0	0	0	504	498	320	221	
11	0	0	0	0	512	500	319	221	
12	0	0	0	0	495	507	318	222	
13	0	0	0	0	497	507	319	221	
14	0	0	0	0	482	506	320	222	
15	0	0	0	0	498	509	320	221	
0	0	0	0	0	529	519	321	221	
1	0	0	0	0	568	521	321	222	
2	0	0	0	0	529	517	320	222	
3	0	0	0	0	502	505	322	221	
4	0	0	0	0	517	507	323	221	
5	0	0	0	0	543	511	324	222	
6	0	0	0	0	521	508	324	222	
7	0	0	0	0	481	501	324	222	
8	0	0	0	0	489	507	326	222	
9	0	0	0	0	480	511	326	221	
10	0	0	0	0	487	509	326	221	
11	0	0	0	0	500	510	325	222	
12	0	0	0	0	481	509	326	221	
13	0	0	0	0	503	505	325	220	
14	0	0	0	0	553	507	325	220	
15	0	0	0	0	582	508	326	219	
0	0	0	0	0	517	518	325	220	
1	0	0	0	0	497	510	326	221	
2	0	0	0	0	497	504	323	220	
3	0	0	0	0	493	504	326	221	
4	0	0	0	0	519	508	326	221	
5	0	0	0	0	540	513	325	222	
6	0	0	0	0	526	513	327	222	
7	0	0	0	0	508	511	326	222	
8	0	0	0	0	486	504	326	221	
9	0	0	0	0	501	502	326	222	
10	0	0	0	0	544	502	327	222	
11	0	0	0	0	517	502	328	222	
12	0	0	0	0	500	502	326	221	
13	0	0	0	0	503	505	327	221	
14	0	0	0	0	509	507	327	221	
15	0	0	0	0	503	511	330	222	
0	0	0	0	0	509	512	328	220	
1	0	0	0	0	502	510	325	222	
2	0	0	0	0	509	512	327	222	
3	0	0	0	0	492	506	326	221	
4	0	0	0	0	495	507	327	222	
5	0	0	0	0	538	506	326	219	
6	0	0	0	0	521	512	325	221	
7	0	0	0	0	515	512	326	222	
8	0	0	0	0	523	511	325	222	
9	0	0	0	0	499	510	324	223	
10	0	0	0	0	498	511	325	222	
11	0	0	0	0	509	507	325	223	
12	0	0	0	0	524	503	325	224	
13	0	0	0	0	517	504	326	225	
14	0	0	0	0	535	505	326	225	
15	0	0	0	0	526	504	325	226	
0	0	0	0	0	480	503	325	224	
1	0	0	0	0	495	505	326	224	
2	0	0	0	0	477	513	326	226	
3	0	0	0	0	466	512	325	226	
4	0	0	0	0	472	514	327	226	
5	0	0	0	0	554	514	326	225	
6	0	0	0	0	596	519	326	225	
7	0	0	0	0	568	515	325	225	
8	0	0	0	0	512	506	326	224	
9	0	0	0	0	518	504	325	224	
10	0	0	0	0	475	504	325	224	
11	0	0	0	0	471	505	325	225	
12	0	0	0	0	470	494	325	225	
13	0	0	0	0	471	501	325	223	
14	0	0	0	0	507	500	325	223	
15	0	0	0	0	583	507	327	224	
0	0	0	0	0	583	510	325	224	
1	0	0	0	0	575	502	324	224	
2	0	0	0	0	531	511	325	224	
3	0	0	0	0	512	518	326	222	
4	0	0	0	0	503	521	324	223	
5	0	0	0	0	483	511	326	222	
6	0	0	0	0	480	499	324	222	
7	0	0	0	0	480	502	323	222	
8	0	0	0	0	468	505	324	223	
9	0	0	0	0	472	512	323	223	
10	0	0	0	0	480	507	324	224	
11	0	0	0	0	493	503	323	222	
12	0	0	0	0	548	508	322	221	
13	0	0	0	0	569	511	324	222	
14	0	0	0	0	532	505	321	221	
15	0	0	0	0	496	509	320	221	
0	0	0	0	0	496	514	319	223	
1	0	0	0	0	547	513	319	223	
2	0	0	0	0	515	507	319	222	
3	0	0	0	0	523	501	319	220	
4	0	0	0	0	512	508	320	218	
5	0	0	0	0	476	512	319	219	
6	0	0	0	0	494	510	319	221	
7	0	0	0	0	523	513	319	221	
8	0	0	0	0	517	523	319	222	
9	0	0	0	0	495	507	319	222	
10	0	0	0	0	488	492	319	222	
11	0	0	0	0	514	501	320	222	
12	0	0	0	0	540	505	319	223	
13	0	0	0	0	551	499	319	224	
14	0	0	0	0	535	500	320	224	
15	0	0	0	0	514	509	320	224	
0	0	0	0	0	501	513	320	223	
1	0	0	0	0	489	514	320	224	
2	0	0	0	0	513	516	319	224	
3	0	0	0	0	514	519	319	224	
4	0	0	0	0	514	513	319	223	
5	0	0	0	0	497	503	320	224	
6	0	0	0	0	494	507	320	224	
7	0	0	0	0	503	516	320	225	
8	0	0	0	0	487	504	321	224	
9	0	0	0	0	484	505	320	224	
10	0	0	0	0	494	508	321	226	
11	0	0	0	0	512	505	321	227	
12	0	0	0	0	491	498	322	226	
13	0	0	0	0	459	490	322	226	
14	0	0	0	0	472	496	321	226	
15	0	0	0	0	495	498	322	227	
0	0	0	0	0	570	511	322	227	
1	0	0	0	0	620	516	322	227	
2	0	0	0	0	640	515	321	227	
3	0	0	0	0	550	511	322	226	
4	0	0	0	0	520	507	322	227	
5	0	0	0	0	512	507	322	227	
6	0	0	0	0	486	511	320	228	
7	0	0	0	0	486	513	321	228	
8	0	0	0	0	529	513	322	228	
9	0	0	0	0	527	513	322	228	
10	0	0	0	0	481	510	323	227	
11	0	0	0	0	501	508	322	228	
12	0	0	0	0	499	497	322	228	
13	0	0	0	0	495	507	322	228	
14	0	0	0	0	483	510	322	227	
15	0	0	0	0	485	513	322	227	
0	0	0	0	0	481	503	321	227	
1	0	0	0	0	488	512	321	227	
2	0	0	0	0	511	519	322	226	
3	0	0	0	0	517	510	321	227	
4	0	0	0	0	512	505	322	227	
5	0	0	0	0	502	506	321	226	
6	0	0	0	0	505	508	320	227	
7	0	0	0	0	489	495	320	227	
8	0	0	0	0	489	502	320	227	
9	0	0	0	0	539	505	321	227	
10	0	0	0	0	515	511	321	227	
11	0	0	0	0	508	509	320	226	
12	0	0	0	0	537	509	320	226	
13	0	0	0	0	524	503	319	226	
14	0	0	0	0	482	505	320	227	
15	0	0	0	0	503	515	319	225	
0	0	0	0	0	527	515	319	225	
1	0	0	0	0	566	510	319	226	
2	0	0	0	0	530	508	319	226	
3	0	0	0	0	479	511	320	224	
4	0	0	0	0	453	509	320	224	
5	0	0	0	0	511	506	321	225	
6	0	0	0	0	572	510	320	225	
7	0	0	0	0	553	515	320	226	
8	0	0	0	0	592	513	320	227	
9	0	0	0	0	601	509	320	227	
10	0	0	0	0	561	510	321	226	
11	0	0	0	0	489	499	321	225	
12	0	0	0	0	435	497	321	224	
13	0	0	0	0	419	503	321	224	
14	0	0	0	0	427	510	321	224	
15	0	0	0	0	459	504	321	224	
0	0	0	0	0	512	508	321	224	
1	0	0	0	0	519	516	321	224	
2	0	0	0	0	513	510	321	224	
3	0	0	0	0	512	507	321	224	
4	0	0	0	0	504	493	321	223	
5	0	0	0	0	506	495	321	223	
6	0	0	0	0	528	506	320	224	
7	0	0	0	0	538	516	320	223	
8	0	0	0	0	548	514	320	224	
9	0	0	0	0	490	506	319	223	
10	0	0	0	0	477	508	319	224	
11	0	0	0	0	468	519	318	223	
12	0	0	0	0	515	520	318	221	
13	0	0	0	0	561	510	317	222	
14	0	0	0	0	588	514	318	221	
15	0	0	0	0	545	501	317	217	
0	0	0	0	0	498	504	316	211	
1	0	0	0	0	465	493	316	211	
2	0	0	0	0	468	496	316	210	
3	0	0	0	0	465	502	315	209	
4	0	0	0	0	506	511	315	209	
5	0	0	0	0	588	516	314	208	
6	0	0	0	0	581	512	314	207	
7	0	0	0	0	535	512	315	206	
8	0	0	0	0	492	513	315	205	
9	0	0	0	0	483	516	315	203	
10	0	0	0	0	480	511	314	200	
11	0	0	0	0	509	511	314	201	
12	0	0	0	0	519	509	315	199	
13	0	0	0	0	502	508	315	200	
14	0	0	0	0	482	504	314	199	
15	0	0	0	0	479	496	315	198	
0	0	0	0	0	507	505	315	198	
1	0	0	0	0	548	501	316	198	
2	0	0	0	0	578	504	316	198	
3	0	0	0	0	562	510	315	198	
4	0	0	0	0	504	510	322	197	
5	0	0	0	0	492	514	322	198	
6	0	0	0	0	489	515	322	197	
7	0	0	0	0	474	511	323	198	
8	0	0	0	0	512	503	323	195	
9	0	0	0	0	507	500	322	195	
10	0	0	0	0	484	505	322	194	
11	0	0	0	0	517	511	322	194	
12	0	0	0	0	607	516	322	192	
13	0	0	0	0	503	519	322	193	
14	0	0	0	0	447	510	322	193	
15	0	0	0	0	457	504	321	194	
0	0	0	0	0	493	510	321	194	
1	0	0	0	0	494	506	320	194	
2	0	0	0	0	480	509	320	191	
3	0	0	0	0	499	510	319	192	
4	0	0	0	0	548	505	319	191	
5	0	0	0	0	532	504	319	191	
6	0	0	0	0	526	503	318	192	
7	0	0	0	0	510	510	317	191	
8	0	0	0	0	526	508	316	192	
9	0	0	0	0	519	500	316	191	
10	0	0	0	0	535	504	313	190	
11	0	0	0	0	513	506	314	191	
12	0	0	0	0	523	508	313	190	
13	0	0	0	0	523	511	313	189	
14	0	0	0	0	521	513	312	189	
15	0	0	0	0	501	513	311	188	
0	0	0	0	0	496	509	311	188	
1	0	0	0	0	521	511	311	188	
2	0	0	0	0	545	508	311	187	
3	0	0	0	0	508	510	311	186	
4	0	0	0	0	504	511	309	184	
5	0	0	0	0	505	504	311	183	
6	0	0	0	0	495	507	310	183	
7	0	0	0	0	508	506	310	183	
8	0	0	0	0	519	505	311	183	
9	0	0	0	0	511	508	309	182	
10	0	0	0	0	482	505	309	182	
11	0	0	0	0	488	505	309	181	
12	0	0	0	0	487	508	310	180	
13	0	0	0	0	510	508	309	180	
14	0	0	0	0	543	505	307	179	
15	0	0	0	0	535	505	307	178	
0	0	0	0	0	526	515	307	178	
1	0	0	0	0	487	508	309	178	
2	0	0	0	0	453	503	310	177	
3	0	0	0	0	510	512	309	177	
4	0	0	0	0	523	511	309	177	
5	0	0	0	0	541	511	309	177	
6	0	0	0	0	550	512	308	177	
7	0	0	0	0	516	512	309	177	
8	0	0	0	0	499	514	309	176	
9	0	0	0	0	478	505	307	176	
10	0	0	0	0	483	502	308	175	
11	0	0	0	0	509	500	307	175	
12	0	0	0	0	518	497	306	175	
13	0	0	0	0	535	500	305	174	
14	0	0	0	0	558	511	305	175	
15	0	0	0	0	536	507	305	175	
0	0	0	0	0	505	512	305	174	
1	0	0	0	0	499	510	306	173	
2	0	0	0	0	491	511	305	174	
3	0	0	0	0	468	507	305	173	
4	0	0	0	0	464	509	304	171	
5	0	0	0	0	507	511	304	169	
6	0	0	0	0	597	509	304	168	
7	0	0	0	0	580	513	303	166	
8	0	0	0	0	522	510	302	165	
9	0	0	0	0	487	504	300	163	
10	0	0	0	0	483	504	299	163	
11	0	0	0	0	481	506	298	163	
12	0	0	0	0	494	508	298	162	
13	0	0	0	0	501	507	297	163	
14	0	0	0	0	504	507	297	163	
15	0	0	0	0	502	503	297	161	
0	0	0	0	0	491	505	297	161	
1	0	0	0	0	516	513	295	161	
2	0	0	0	0	567	510	295	160	
3	0	0	0	0	550	513	292	160	
4	0	0	0	0	510	512	296	158	
5	0	0	0	0	521	514	295	158	
6	0	0	0	0	518	513	295	158	
7	0	0	0	0	498	507	295	157	
8	0	0	0	0	493	503	295	155	
9	0	0	0	0	470	506	295	154	
10	0	0	0	0	449	508	293	152	
11	0	0	0	0	501	508	295	152	
12	0	0	0	0	544	504	295	152	
13	0	0	0	0	524	504	294	151	
14	0	0	0	0	543	508	294	149	
15	0	0	0	0	552	513	293	149	
0	0	0	0	0	479	504	292	148	
1	0	0	0	0	466	505	291	149	
2	0	0	0	0	488	511	292	148	
3	0	0	0	0	523	517	291	147	
4	0	0	0	0	573	508	292	148	
5	0	0	0	0	601	507	292	146	
6	0	0	0	0	560	507	292	147	
7	0	0	0	0	511	505	289	146	
8	0	0	0	0	461	504	288	146	
9	0	0	0	0	452	514	288	147	
10	0	0	0	0	429	517	287	147	
11	0	0	0	0	453	511	287	146	
12	0	0	0	0	524	510	285	146	
13	0	0	0	0	562	505	285	145	
14	0	0	0	0	574	508	284	145	
15	0	0	0	0	521	496	282	146	
0	0	0	0	0	498	492	281	145	
1	0	0	0	0	476	493	282	145	
2	0	0	0	0	475	499	281	145	
3	0	0	0	0	508	510	280	144	
4	0	0	0	0	531	509	281	145	
5	0	0	0	0	531	515	280	143	
6	0	0	0	0	491	512	279	144	
7	0	0	0	0	482	518	280	144	
8	0	0	0	0	501	520	278	144	
9	0	0	0	0	484	509	278	143	
10	0	0	0	0	513	504	278	142	
11	0	0	0	0	574	505	278	142	
12	0	0	0	0	569	506	278	141	
13	0	0	0	0	518	507	276	137	
14	0	0	0	0	465	516	276	137	
15	0	0	0	0	454	521	276	136	
0	0	0	0	0	444	513	275	136	
1	0	0	0	0	481	504	274	136	
2	0	0	0	0	560	507	273	135	
3	0	0	0	0	603	498	275	135	
4	0	0	0	0	563	488	275	135	
5	0	0	0	0	589	498	275	135	
6	0	0	0	0	543	510	275	137	
7	0	0	0	0	517	511	276	136	
8	0	0	0	0	496	516	276	137	
9	0	0	0	0	464	511	276	136	
10	0	0	0	0	461	509	276	137	
11	0	0	0	0	478	508	277	137	
12	0	0	0	0	514	511	275	136	
13	0	0	0	0	517	507	277	136	
14	0	0	0	0	516	512	276	135	
15	0	0	0	0	515	511	276	136	
0	0	0	0	0	505	510	275	136	
1	0	0	0	0	505	510	277	136	
2	0	0	0	0	505	509	276	136	
3	0	0	0	0	491	506	276	137	
4	0	0	0	0	488	511	275	136	
5	0	0	0	0	501	515	275	137	
6	0	0	0	0	505	509	275	137	
7	0	0	0	0	536	508	274	136	
8	0	0	0	0	541	501	274	137	
9	0	0	0	0	522	501	275	137	
10	0	0	0	0	477	493	274	137	
11	0	0	0	0	463	498	274	137	
12	0	0	0	0	519	507	273	137	
13	0	0	0	0	548	513	273	137	
14	0	0	0	0	517	514	272	138	
15	0	0	0	0	506	514	273	138	
0	0	0	0	0	488	513	272	138	
1	0	0	0	0	508	511	272	138	
2	0	0	0	0	525	508	270	137	
3	0	0	0	0	530	507	270	138	
4	0	0	0	0	525	497	271	138	
5	0	0	0	0	505	497	272	138	
6	0	0	0	0	532	509	272	137	
7	0	0	0	0	527	514	271	137	
8	0	0	0	0	515	515	272	138	
9	0	0	0	0	512	514	272	137	
10	0	0	0	0	512	511	273	137	
11	0	0	0	0	507	505	273	138	
12	0	0	0	0	502	505	271	138	
13	0	0	0	0	503	507	270	138	
14	0	0	0	0	501	507	271	138	
15	0	0	0	0	501	507	270	139	
0	0	0	0	0	500	505	273	138	
1	0	0	0	0	487	508	276	138	
2	0	0	0	0	498	508	278	137	
3	0	0	0	0	501	505	278	138	
4	0	0	0	0	496	508	278	138	
5	0	0	0	0	512	514	280	139	
6	0	0	0	0	538	514	278	139	
7	0	0	0	0	532	505	276	139	
8	0	0	0	0	540	506	278	139	
9	0	0	0	0	538	506	279	139	
10	0	0	0	0	537	508	278	139	
11	0	0	0	0	539	509	279	140	
12	0	0	0	0	508	508	277	139	
13	0	0	0	0	473	506	278	140	
14	0	0	0	0	464	508	279	140	
15	0	0	0	0	487	513	280	140	
0	0	0	0	0	511	508	279	140	
1	0	0	0	0	508	507	280	140	
2	0	0	0	0	510	505	280	140	
3	0	0	0	0	492	501	281	141	
4	0	0	0	0	509	504	279	141	
5	0	0	0	0	551	518	280	141	
6	0	0	0	0	543	514	281	141	
7	0	0	0	0	503	508	282	140	
8	0	0	0	0	512	507	280	139	
9	0	0	0	0	499	508	281	140	
10	0	0	0	0	484	516	280	139	
11	0	0	0	0	506	512	279	138	
12	0	0	0	0	515	507	280	139	
13	0	0	0	0	535	510	278	138	
14	0	0	0	0	496	507	278	139	
15	0	0	0	0	471	494	278	138	
0	0	0	0	0	473	497	279	139	
1	0	0	0	0	488	500	281	138	
2	0	0	0	0	555	496	283	138	
3	0	0	0	0	626	503	284	137	
4	0	0	0	0	570	513	285	137	
5	0	0	0	0	503	516	284	137	
6	0	0	0	0	500	515	285	138	
7	0	0	0	0	499	511	285	137	
8	0	0	0	0	492	507	284	136	
9	0	0	0	0	491	512	284	136	
10	0	0	0	0	484	509	284	136	
11	0	0	0	0	483	508	284	135	
12	0	0	0	0	499	510	285	135	
13	0	0	0	0	511	510	280	136	
14	0	0	0	0	510	511	280	136	
15	0	0	0	0	492	502	280	136	
0	0	0	0	0	480	498	281	135	
1	0	0	0	0	449	504	281	135	
2	0	0	0	0	463	511	280	137	
3	0	0	0	0	580	510	281	136	
4	0	0	0	0	629	513	279	137	
5	0	0	0	0	539	517	280	137	
6	0	0	0	0	535	515	279	137	
7	0	0	0	0	530	509	278	136	
8	0	0	0	0	495	503	276	136	
9	0	0	0	0	527	505	277	135	
10	0	0	0	0	580	500	276	135	
11	0	0	0	0	527	506	275	135	
12	0	0	0	0	479	509	275	134	
13	0	0	0	0	477	518	276	134	
14	0	0	0	0	473	515	275	133	
15	0	0	0	0	480	507	275	133	
0	0	0	0	0	493	503	273	133	
1	0	0	0	0	526	501	273	131	
2	0	0	0	0	560	499	272	130	
3	0	0	0	0	511	504	271	131	
4	0	0	0	0	481	518	272	129	
5	0	0	0	0	498	522	272	130	
6	0	0	0	0	463	519	272	130	
7	0	0	0	0	476	504	272	131	
8	0	0	0	0	496	499	271	131	
9	0	0	0	0	520	492	270	129	
10	0	0	0	0	531	487	269	129	
11	0	0	0	0	537	505	269	130	
12	0	0	0	0	527	512	270	129	
13	0	0	0	0	506	514	268	129	
14	0	0	0	0	508	513	268	130	
15	0	0	0	0	504	511	269	130	
0	0	0	0	0	508	509	268	130	
1	0	0	0	0	489	504	269	130	
2	0	0	0	0	515	505	262	130	
3	0	0	0	0	545	510	262	129	
4	0	0	0	0	524	514	261	130	
5	0	0	0	0	515	513	260	131	
6	0	0	0	0	511	510	260	131	
7	0	0	0	0	492	513	261	130	
8	0	0	0	0	485	510	260	130	
9	0	0	0	0	504	509	260	131	
10	0	0	0	0	516	515	259	131	
11	0	0	0	0	494	509	259	130	
12	0	0	0	0	509	509	258	129	
13	0	0	0	0	513	504	259	130	
14	0	0	0	0	525	501	261	130	
15	0	0	0	0	527	502	262	130	
0	0	0	0	0	557	501	265	131	
1	0	0	0	0	558	506	266	131	
2	0	0	0	0	534	510	265	130	
3	0	0	0	0	501	507	265	131	
4	0	0	0	0	515	513	264	132	
5	0	0	0	0	519	510	265	133	
6	0	0	0	0	507	513	266	134	
7	0	0	0	0	492	511	264	135	
8	0	0	0	0	478	509	266	133	
9	0	0	0	0	484	503	265	133	
10	0	0	0	0	511	503	266	132	
11	0	0	0	0	532	512	267	132	
12	0	0	0	0	524	512	268	133	
13	0	0	0	0	524	511	270	132	
14	0	0	0	0	517	512	270	133	
15	0	0	0	0	504	513	271	132	
0	0	0	0	0	508	512	271	132	
1	0	0	0	0	512	510	270	131	
2	0	0	0	0	493	502	269	132	
3	0	0	0	0	474	502	270	131	
4	0	0	0	0	454	503	269	131	
5	0	0	0	0	452	499	271	132	
6	0	0	0	0	481	498	270	132	
7	0	0	0	0	524	505	269	133	
8	0	0	0	0	571	508	268	132	
9	0	0	0	0	574	510	268	131	
10	0	0	0	0	541	511	269	131	
11	0	0	0	0	508	513	267	131	
12	0	0	0	0	502	509	265	131	
13	0	0	0	0	499	514	268	129	
14	0	0	0	0	530	514	268	129	
15	0	0	0	0	558	508	267	129	
0	0	0	0	0	529	511	265	130	
1	0	0	0	0	522	512	265	129	
2	0	0	0	0	507	502	264	129	
3	0	0	0	0	476	503	266	129	
4	0	0	0	0	446	505	266	129	
5	0	0	0	0	428	508	266	129	
6	0	0	0	0	470	507	265	128	
7	0	0	0	0	584	506	265	128	
8	0	0	0	0	621	511	265	128	
9	0	0	0	0	539	514	266	128	
10	0	0	0	0	495	516	265	128	
11	0	0	0	0	494	515	265	129	
12	0	0	0	0	500	500	265	129	
13	0	0	0	0	499	499	266	129	
14	0	0	0	0	496	503	266	129	
15	0	0	0	0	487	504	265	129	
0	0	0	0	0	478	509	265	128	
1	0	0	0	0	475	506	264	129	
2	0	0	0	0	506	514	265	129	
3	0	0	0	0	542	511	266	129	
4	0	0	0	0	585	503	266	129	
5	0	0	0	0	625	510	267	128	
6	0	0	0	0	586	513	266	129	
7	0	0	0	0	498	508	267	129	
8	0	0	0	0	459	504	266	129	
9	0	0	0	0	467	509	265	129	
10	0	0	0	0	482	510	263	129	
11	0	0	0	0	485	510	264	129	
12	0	0	0	0	468	508	262	129	
13	0	0	0	0	457	509	265	130	
14	0	0	0	0	472	505	265	130	
15	0	0	0	0	487	505	266	131	
0	0	0	0	0	529	499	267	131	
1	0	0	0	0	610	506	262	130	
2	0	0	0	0	523	510	260	129	
3	0	0	0	0	486	508	259	130	
4	0	0	0	0	546	512	258	130	
5	0	0	0	0	518	510	257	130	
6	0	0	0	0	534	509	257	130	
7	0	0	0	0	550	510	256	129	
8	0	0	0	0	509	511	257	130	
9	0	0	0	0	506	509	257	130	
10	0	0	0	0	510	507	257	130	
11	0	0	0	0	501	503	257	129	
12	0	0	0	0	490	504	257	130	
13	0	0	0	0	492	509	257	129	
14	0	0	0	0	482	509	256	129	
15	0	0	0	0	461	509	255	130	
0	0	0	0	0	489	509	254	130	
1	0	0	0	0	507	500	254	129	
2	0	0	0	0	519	502	254	129	
3	0	0	0	0	595	505	252	128	
4	0	0	0	0	561	506	252	129	
5	0	0	0	0	538	511	251	129	
6	0	0	0	0	489	519	252	128	
7	0	0	0	0	467	514	251	129	
8	0	0	0	0	484	512	252	129	
9	0	0	0	0	508	511	252	129	
10	0	0	0	0	558	508	253	129	
11	0	0	0	0	519	506	254	129	
12	0	0	0	0	496	504	253	129	
13	0	0	0	0	492	499	252	129	
14	0	0	0	0	494	502	249	130	
15	0	0	0	0	527	505	248	129	
0	0	0	0	0	534	508	247	130	
1	0	0	0	0	504	517	247	130	
2	0	0	0	0	490	518	249	129	
3	0	0	0	0	494	513	249	129	
4	0	0	0	0	515	503	248	130	
5	0	0	0	0	543	499	247	130	
6	0	0	0	0	531	498	248	130	
7	0	0	0	0	517	496	249	130	
8	0	0	0	0	508	506	249	130	
9	0	0	0	0	489	511	249	131	
10	0	0	0	0	482	511	249	130	
11	0	0	0	0	496	505	249	132	
12	0	0	0	0	517	507	248	131	
13	0	0	0	0	560	513	250	132	
14	0	0	0	0	554	512	250	132	
15	0	0	0	0	507	513	249	131	
0	0	0	0	0	496	510	249	131	
1	0	0	0	0	486	504	249	130	
2	0	0	0	0	499	511	249	130	
3	0	0	0	0	526	501	249	131	
4	0	0	0	0	534	507	249	130	
5	0	0	0	0	516	503	250	131	
6	0	0	0	0	501	505	251	131	
7	0	0	0	0	499	509	250	130	
8	0	0	0	0	472	506	251	128	
9	0	0	0	0	473	502	250	129	
10	0	0	0	0	481	513	250	127	
11	0	0	0	0	492	520	250	128	
12	0	0	0	0	492	513	249	127	
13	0	0	0	0	498	506	248	127	
14	0	0	0	0	532	510	248	127	
15	0	0	0	0	555	506	249	126	
0	0	0	0	0	496	511	248	127	
1	0	0	0	0	510	509	249	126	
2	0	0	0	0	573	508	249	126	
3	0	0	0	0	590	512	249	127	
4	0	0	0	0	552	507	250	128	
5	0	0	0	0	535	507	251	126	
6	0	0	0	0	519	508	251	126	
7	0	0	0	0	501	506	251	126	
8	0	0	0	0	498	506	251	126	
9	0	0	0	0	509	507	251	127	
10	0	0	0	0	480	501	251	126	
11	0	0	0	0	479	505	251	127	
12	0	0	0	0	483	504	251	127	
13	0	0	0	0	476	510	251	127	
14	0	0	0	0	471	511	251	128	
15	0	0	0	0	474	513	251	128	
0	0	0	0	0	471	505	251	129	
1	0	0	0	0	461	503	252	128	
2	0	0	0	0	512	502	251	127	
3	0	0	0	0	579	508	252	127	
4	0	0	0	0	599	513	253	127	
5	0	0	0	0	579	515	254	127	
6	0	0	0	0	585	512	256	127	
7	0	0	0	0	531	509	256	127	
8	0	0	0	0	508	505	255	127	
9	0	0	0	0	504	503	256	127	
10	0	0	0	0	500	507	255	127	
11	0	0	0	0	493	510	255	127	
12	0	0	0	0	445	513	257	127	
13	0	0	0	0	448	512	257	127	
14	0	0	0	0	472	502	256	128	
15	0	0	0	0	505	504	256	129	
0	0	0	0	0	567	508	256	127	
1	0	0	0	0	576	509	256	127	
2	0	0	0	0	523	513	255	127	
3	0	0	0	0	494	510	257	128	
4	0	0	0	0	497	514	256	128	
5	0	0	0	0	478	514	255	128	
6	0	0	0	0	490	506	257	128	
7	0	0	0	0	496	507	256	128	
8	0	0	0	0	486	506	256	127	
9	0	0	0	0	525	508	257	127	
10	0	0	0	0	532	505	256	128	
11	0	0	0	0	513	500	256	130	
12	0	0	0	0	536	504	255	128	
13	0	0	0	0	535	504	253	128	
14	0	0	0	0	544	503	254	129	
15	0	0	0	0	500	502	254	129	
0	0	0	0	0	478	508	255	129	
1	0	0	0	0	473	512	255	129	
2	0	0	0	0	449	508	256	131	
3	0	0	0	0	434	505	257	130	
4	0	0	0	0	453	512	256	131	
5	0	0	0	0	539	514	257	131	
6	0	0	0	0	570	515	258	131	
7	0	0	0	0	609	519	258	131	
8	0	0	0	0	636	523	259	132	
9	0	0	0	0	596	514	259	133	
10	0	0	0	0	515	513	259	131	
11	0	0	0	0	494	505	259	131	
12	0	0	0	0	503	491	259	130	
13	0	0	0	0	479	488	258	130	
14	0	0	0	0	465	494	258	131	
15	0	0	0	0	483	500	257	130	
0	0	0	0	0	492	510	258	131	
1	0	0	0	0	479	513	258	130	
2	0	0	0	0	478	510	257	129	
3	0	0	0	0	494	508	258	131	
4	0	0	0	0	505	511	259	130	
5	0	0	0	0	526	509	260	131	
6	0	0	0	0	524	510	258	131	
7	0	0	0	0	528	510	258	131	
8	0	0	0	0	527	515	258	131	
9	0	0	0	0	516	514	257	131	
10	0	0	0	0	497	511	255	131	
11	0	0	0	0	506	512	256	131	
12	0	0	0	0	536	513	256	132	
13	0	0	0	0	509	511	257	132	
14	0	0	0	0	501	504	256	133	
15	0	0	0	0	496	504	256	132	
0	0	0	0	0	506	507	256	133	
1	0	0	0	0	521	507	256	133	
2	0	0	0	0	527	507	256	133	
3	0	0	0	0	505	500	256	133	
4	0	0	0	0	487	502	256	132	
5	0	0	0	0	494	500	258	132	
6	0	0	0	0	498	504	256	132	
7	0	0	0	0	518	507	257	132	
8	0	0	0	0	576	512	256	131	
9	0	0	0	0	538	513	256	132	
10	0	0	0	0	508	512	257	132	
11	0	0	0	0	520	513	255	132	
12	0	0	0	0	537	509	256	132	
13	0	0	0	0	493	510	255	132	
14	0	0	0	0	474	505	256	131	
15	0	0	0	0	490	507	256	132	
0	0	0	0	0	499	504	256	131	
1	0	0	0	0	529	504	257	131	
2	0	0	0	0	521	510	257	131	
3	0	0	0	0	510	512	257	132	
4	0	0	0	0	496	515	259	131	
5	0	0	0	0	494	511	258	132	
6	0	0	0	0	504	509	258	131	
7	0	0	0	0	504	515	258	131	
8	0	0	0	0	516	515	258	132	
9	0	0	0	0	497	503	257	131	
10	0	0	0	0	503	502	258	131	
11	0	0	0	0	523	502	260	131	
12	0	0	0	0	503	500	259	131	
13	0	0	0	0	503	502	259	131	
14	0	0	0	0	503	508	259	131	
15	0	0	0	0	532	509	259	130	
0	0	0	0	0	562	512	259	131	
1	0	0	0	0	535	507	259	130	
2	0	0	0	0	522	505	260	129	
3	0	0	0	0	498	507	262	130	
4	0	0	0	0	472	511	261	131	
5	0	0	0	0	508	511	261	130	
6	0	0	0	0	552	513	262	130	
7	0	0	0	0	508	513	262	130	
8	0	0	0	0	492	508	262	131	
9	0	0	0	0	484	503	261	129	
10	0	0	0	0	467	502	262	130	
11	0	0	0	0	486	497	262	130	
12	0	0	0	0	495	502	262	131	
13	0	0	0	0	557	513	262	132	
14	0	0	0	0	591	508	260	131	
15	0	0	0	0	572	506	260	131	
0	0	0	0	0	506	512	259	131	
1	0	0	0	0	504	511	260	133	
2	0	0	0	0	516	512	260	133	
3	0	0	0	0	504	510	260	133	
4	0	0	0	0	492	507	261	132	
5	0	0	0	0	520	508	260	131	
6	0	0	0	0	522	510	261	132	
7	0	0	0	0	499	509	260	131	
8	0	0	0	0	493	506	260	132	
9	0	0	0	0	499	511	260	133	
10	0	0	0	0	509	522	260	132	
11	0	0	0	0	512	513	260	134	
12	0	0	0	0	492	510	259	134	
13	0	0	0	0	481	507	260	133	
14	0	0	0	0	477	499	259	133	
15	0	0	0	0	492	490	259	134	
0	0	0	0	0	515	503	259	133	
1	0	0	0	0	517	509	259	133	
2	0	0	0	0	512	505	259	134	
3	0	0	0	0	535	512	257	134	
4	0	0	0	0	495	509	259	135	
5	0	0	0	0	468	501	256	134	
6	0	0	0	0	529	506	257	134	
7	0	0	0	0	591	507	255	135	
8	0	0	0	0	549	509	256	135	
9	0	0	0	0	504	513	254	134	
10	0	0	0	0	497	516	255	135	
11	0	0	0	0	507	512	255	135	
12	0	0	0	0	509	506	256	135	
13	0	0	0	0	551	510	257	135	
14	0	0	0	0	527	510	257	135	
15	0	0	0	0	502	506	257	135	
0	0	0	0	0	489	501	255	134	
1	0	0	0	0	496	505	256	135	
2	0	0	0	0	507	513	258	134	
3	0	0	0	0	505	509	257	135	
4	0	0	0	0	480	508	256	135	
5	0	0	0	0	498	514	256	135	
6	0	0	0	0	511	517	256	136	
7	0	0	0	0	516	514	255	136	
8	0	0	0	0	553	510	255	135	
9	0	0	0	0	555	499	255	137	
10	0	0	0	0	537	499	257	135	
11	0	0	0	0	515	496	257	135	
12	0	0	0	0	501	501	256	135	
13	0	0	0	0	494	508	257	135	
14	0	0	0	0	487	513	257	135	
15	0	0	0	0	488	512	257	135	
0	0	0	0	0	486	510	257	135	
1	0	0	0	0	503	510	257	135	
2	0	0	0	0	501	510	257	134	
3	0	0	0	0	490	507	256	135	
4	0	0	0	0	501	505	256	134	
5	0	0	0	0	544	509	258	134	
6	0	0	0	0	518	518	259	134	
7	0	0	0	0	522	511	259	134	
8	0	0	0	0	515	504	260	134	
9	0	0	0	0	502	501	259	135	
10	0	0	0	0	506	510	259	134	
11	0	0	0	0	501	511	259	134	
12	0	0	0	0	499	496	260	133	
13	0	0	0	0	548	502	260	133	
14	0	0	0	0	570	510	260	133	
15	0	0	0	0	512	511	261	132	
0	0	0	0	0	480	508	262	132	
1	0	0	0	0	520	511	262	133	
2	0	0	0	0	551	512	262	133	
3	0	0	0	0	528	516	262	131	
4	0	0	0	0	503	509	262	131	
5	0	0	0	0	499	507	262	131	
6	0	0	0	0	485	505	262	132	
7	0	0	0	0	471	509	262	131	
8	0	0	0	0	477	505	263	132	
9	0	0	0	0	497	505	262	130	
10	0	0	0	0	529	507	261	129	
11	0	0	0	0	525	508	262	130	
12	0	0	0	0	510	506	262	131	
13	0	0	0	0	510	502	263	130	
14	0	0	0	0	521	505	260	129	
15	0	0	0	0	516	511	262	130	
0	0	0	0	0	537	506	262	128	
1	0	0	0	0	538	518	262	127	
2	0	0	0	0	471	520	262	128	
3	0	0	0	0	454	513	263	125	
4	0	0	0	0	459	512	263	127	
5	0	0	0	0	475	503	263	127	
6	0	0	0	0	520	496	263	127	
7	0	0	0	0	627	496	263	127	
8	0	0	0	0	577	500	262	126	
9	0	0	0	0	499	507	262	126	
10	0	0	0	0	497	505	262	126	
11	0	0	0	0	524	509	261	125	
12	0	0	0	0	538	515	261	124	
13	0	0	0	0	517	510	262	125	
14	0	0	0	0	485	508	263	123	
15	0	0	0	0	467	513	262	123	
0	0	0	0	0	500	514	263	123	
1	0	0	0	0	558	512	262	125	
2	0	0	0	0	558	514	263	123	
3	0	0	0	0	512	508	263	123	
4	0	0	0	0	487	504	263	123	
5	0	0	0	0	503	505	266	121	
6	0	0	0	0	509	506	266	121	
7	0	0	0	0	511	508	266	122	
8	0	0	0	0	497	508	266	120	
9	0	0	0	0	466	510	267	119	
10	0	0	0	0	470	506	266	118	
11	0	0	0	0	469	505	267	118	
12	0	0	0	0	468	504	266	117	
13	0	0	0	0	537	504	266	118	
14	0	0	0	0	593	513	267	117	
15	0	0	0	0	594	515	267	118	
0	0	0	0	0	539	516	267	118	
1	0	0	0	0	499	507	267	118	
2	0	0	0	0	495	505	267	118	
3	0	0	0	0	481	504	267	118	
4	0	0	0	0	474	503	266	117	
5	0	0	0	0	492	506	265	117	
6	0	0	0	0	505	505	265	116	
7	0	0	0	0	521	513	265	117	
8	0	0	0	0	520	514	265	116	
9	0	0	0	0	498	508	265	117	
10	0	0	0	0	510	504	264	117	
11	0	0	0	0	499	504	264	118	
12	0	0	0	0	501	508	263	117	
13	0	0	0	0	491	514	263	118	
14	0	0	0	0	495	508	263	117	
15	0	0	0	0	552	510	264	117	
0	0	0	0	0	575	504	262	118	
1	0	0	0	0	537	509	263	118	
2	0	0	0	0	502	512	263	117	
3	0	0	0	0	498	510	263	117	
4	0	0	0	0	487	514	263	118	
5	0	0	0	0	484	512	263	118	
6	0	0	0	0	483	497	263	118	
7	0	0	0	0	500	497	263	118	
8	0	0	0	0	579	509	263	117	
9	0	0	0	0	593	511	263	118	
10	0	0	0	0	582	512	264	116	
11	0	0	0	0	528	508	265	117	
12	0	0	0	0	487	504	264	119	
13	0	0	0	0	468	500	264	117	
14	0	0	0	0	462	503	264	116	
15	0	0	0	0	451	513	264	117	
0	0	0	0	0	467	515	264	117	
1	0	0	0	0	484	513	264	117	
2	0	0	0	0	499	508	265	117	
3	0	0	0	0	543	505	264	117	
4	0	0	0	0	511	507	265	116	
5	0	0	0	0	510	508	265	117	
6	0	0	0	0	522	505	265	116	
7	0	0	0	0	510	510	265	116	
8	0	0	0	0	517	516	265	116	
9	0	0	0	0	518	512	266	117	
10	0	0	0	0	511	508	266	116	
11	0	0	0	0	521	505	265	115	
12	0	0	0	0	529	497	266	116	
13	0	0	0	0	531	494	266	115	
14	0	0	0	0	524	508	267	116	
15	0	0	0	0	479	516	267	118	
0	0	0	0	0	475	513	267	118	
1	0	0	0	0	484	510	268	118	
2	0	0	0	0	496	513	267	118	
3	0	0	0	0	549	510	268	118	
4	0	0	0	0	636	506	267	119	
5	0	0	0	0	522	501	268	119	
6	0	0	0	0	487	504	267	118	
7	0	0	0	0	548	506	267	118	
8	0	0	0	0	553	514	267	118	
9	0	0	0	0	480	512	268	118	
10	0	0	0	0	454	511	268	117	
11	0	0	0	0	500	508	268	118	
12	0	0	0	0	526	508	269	117	
13	0	0	0	0	505	507	269	117	
14	0	0	0	0	486	508	269	118	
15	0	0	0	0	491	508	269	117	
0	0	0	0	0	504	507	269	116	
1	0	0	0	0	516	507	268	116	
2	0	0	0	0	508	510	268	115	
3	0	0	0	0	530	505	269	115	
4	0	0	0	0	518	501	268	114	
5	0	0	0	0	464	503	269	116	
6	0	0	0	0	473	508	268	115	
7	0	0	0	0	499	513	268	114	
8	0	0	0	0	501	509	268	115	
9	0	0	0	0	544	508	268	115	
10	0	0	0	0	627	507	268	115	
11	0	0	0	0	565	513	268	115	
12	0	0	0	0	498	513	269	114	
13	0	0	0	0	474	511	268	114	
14	0	0	0	0	478	508	270	114	
15	0	0	0	0	489	509	268	114	
0	0	0	0	0	476	506	269	115	
1	0	0	0	0	476	506	270	114	
2	0	0	0	0	477	506	268	115	
3	0	0	0	0	491	506	269	115	
4	0	0	0	0	557	512	268	115	
5	0	0	0	0	601	510	268	113	
6	0	0	0	0	567	511	268	117	
7	0	0	0	0	537	511	269	118	
8	0	0	0	0	507	503	270	117	
9	0	0	0	0	466	502	270	116	
10	0	0	0	0	467	507	270	117	
11	0	0	0	0	467	504	270	117	
12	0	0	0	0	477	504	271	117	
13	0	0	0	0	505	511	270	117	
14	0	0	0	0	536	505	270	117	
15	0	0	0	0	531	502	270	117	
0	0	0	0	0	543	516	269	116	
1	0	0	0	0	510	515	269	117	
2	0	0	0	0	482	514	269	117	
3	0	0	0	0	490	509	268	117	
4	0	0	0	0	484	509	268	118	
5	0	0	0	0	538	511	267	119	
6	0	0	0	0	553	508	268	119	
7	0	0	0	0	517	503	267	119	
8	0	0	0	0	531	511	268	120	
9	0	0	0	0	520	513	267	119	
10	0	0	0	0	500	516	266	120	
11	0	0	0	0	469	512	266	120	
12	0	0	0	0	458	509	265	120	
13	0	0	0	0	444	503	265	120	
14	0	0	0	0	473	494	265	121	
15	0	0	0	0	613	494	265	121	
0	0	0	0	0	652	498	264	120	
1	0	0	0	0	532	504	263	120	
2	0	0	0	0	522	506	264	121	
3	0	0	0	0	500	515	265	121	
4	0	0	0	0	498	515	264	121	
5	0	0	0	0	502	511	264	121	
6	0	0	0	0	495	508	264	121	
7	0	0	0	0	488	510	263	121	
8	0	0	0	0	500	511	263	121	
9	0	0	0	0	536	515	263	120	
10	0	0	0	0	544	518	263	120	
11	0	0	0	0	504	519	263	120	
12	0	0	0	0	490	512	263	121	
13	0	0	0	0	507	502	263	119	
14	0	0	0	0	507	496	263	120	
15	0	0	0	0	467	499	263	119	
0	0	0	0	0	435	497	262	119	
1	0	0	0	0	433	504	261	119	
2	0	0	0	0	466	511	262	120	
3	0	0	0	0	543	509	262	119	
4	0	0	0	0	598	504	262	119	
5	0	0	0	0	541	505	262	118	
6	0	0	0	0	531	512	263	119	
7	0	0	0	0	540	510	263	119	
8	0	0	0	0	543	512	263	118	
9	0	0	0	0	545	513	263	119	
10	0	0	0	0	520	504	262	119	
11	0	0	0	0	490	513	263	120	
12	0	0	0	0	477	520	263	119	
13	0	0	0	0	497	516	263	119	
14	0	0	0	0	508	507	263	119	
15	0	0	0	0	538	505	263	119	
0	0	0	0	0	547	500	264	120	
1	0	0	0	0	495	490	264	120	
2	0	0	0	0	472	490	264	119	
3	0	0	0	0	486	505	263	120	
4	0	0	0	0	480	513	263	120	
5	0	0	0	0	508	509	266	120	
6	0	0	0	0	548	511	265	120	
7	0	0	0	0	519	517	267	120	
8	0	0	0	0	504	514	268	120	
9	0	0	0	0	524	513	268	119	
10	0	0	0	0	534	510	269	118	
11	0	0	0	0	525	508	269	120	
12	0	0	0	0	515	507	270	119	
13	0	0	0	0	518	510	270	120	
14	0	0	0	0	518	508	271	120	
15	0	0	0	0	505	507	270	120	
0	0	0	0	0	499	507	270	119	
1	0	0	0	0	524	515	271	118	
2	0	0	0	0	500	512	270	118	
3	0	0	0	0	460	498	270	117	
4	0	0	0	0	472	505	270	118	
5	0	0	0	0	511	512	271	116	
6	0	0	0	0	506	510	271	117	
7	0	0	0	0	502	507	270	116	
8	0	0	0	0	484	508	270	116	
9	0	0	0	0	492	505	269	117	
10	0	0	0	0	528	504	269	116	
11	0	0	0	0	561	508	269	116	
12	0	0	0	0	547	504	268	115	
13	0	0	0	0	539	506	268	113	
14	0	0	0	0	511	511	267	114	
15	0	0	0	0	481	511	267	114	
0	0	0	0	0	505	509	267	112	
1	0	0	0	0	519	508	267	112	
2	0	0	0	0	529	506	265	111	
3	0	0	0	0	498	505	266	110	
4	0	0	0	0	508	509	266	110	
5	0	0	0	0	524	507	265	109	
6	0	0	0	0	530	506	265	109	
7	0	0	0	0	529	507	264	108	
8	0	0	0	0	519	510	264	108	
9	0	0	0	0	492	506	264	108	
10	0	0	0	0	505	507	265	108	
11	0	0	0	0	490	507	265	106	
12	0	0	0	0	477	511	265	106	
13	0	0	0	0	467	509	265	104	
14	0	0	0	0	502	507	265	105	
15	0	0	0	0	504	508	265	105	
0	0	0	0	0	529	511	265	104	
1	0	0	0	0	537	508	265	105	
2	0	0	0	0	578	505	265	104	
3	0	0	0	0	573	505	265	105	
4	0	0	0	0	548	504	265	105	
5	0	0	0	0	517	508	264	105	
6	0	0	0	0	496	511	265	105	
7	0	0	0	0	479	510	265	105	
8	0	0	0	0	463	512	265	105	
9	0	0	0	0	449	514	265	105	
10	0	0	0	0	481	511	265	105	
11	0	0	0	0	477	500	265	105	
12	0	0	0	0	494	504	264	105	
13	0	0	0	0	511	505	264	104	
14	0	0	0	0	483	506	264	105	
15	0	0	0	0	495	506	264	105	
0	0	0	0	0	581	505	265	106	
1	0	0	0	0	595	505	266	106	
2	0	0	0	0	608	510	265	106	
3	0	0	0	0	575	522	265	107	
4	0	0	0	0	526	520	265	108	
5	0	0	0	0	493	513	265	107	
6	0	0	0	0	488	506	266	107	
7	0	0	0	0	481	504	266	107	
8	0	0	0	0	475	495	265	106	
9	0	0	0	0	506	493	266	108	
10	0	0	0	0	510	496	265	107	
11	0	0	0	0	503	511	266	107	
12	0	0	0	0	492	517	266	108	
13	0	0	0	0	482	512	265	108	
14	0	0	0	0	487	514	265	107	
15	0	0	0	0	476	504	264	108	
0	0	0	0	0	482	501	267	110	
1	0	0	0	0	507	506	267	109	
2	0	0	0	0	500	511	266	109	
3	0	0	0	0	496	509	266	110	
4	0	0	0	0	498	507	265	110	
5	0	0	0	0	524	508	265	109	
6	0	0	0	0	555	506	265	109	
7	0	0	0	0	591	513	265	109	
8	0	0	0	0	572	517	265	109	
9	0	0	0	0	507	514	265	109	
10	0	0	0	0	483	510	264	108	
11	0	0	0	0	512	508	264	109	
12	0	0	0	0	507	508	262	109	
13	0	0	0	0	492	505	263	109	
14	0	0	0	0	484	509	263	110	
15	0	0	0	0	481	511	263	111	
0	0	0	0	0	504	512	262	110	
1	0	0	0	0	528	507	263	111	
2	0	0	0	0	513	494	262	111	
3	0	0	0	0	529	498	262	110	
4	0	0	0	0	525	505	262	110	
5	0	0	0	0	520	504	262	111	
6	0	0	0	0	509	506	262	111	
7	0	0	0	0	481	512	261	111	
8	0	0	0	0	502	514	262	111	
9	0	0	0	0	510	515	262	110	
10	0	0	0	0	528	514	262	110	
11	0	0	0	0	560	515	262	111	
12	0	0	0	0	549	511	263	110	
13	0	0	0	0	518	507	263	111	
14	0	0	0	0	496	504	263	112	
15	0	0	0	0	489	504	263	110	
0	0	0	0	0	499	505	264	112	
1	0	0	0	0	503	506	265	111	
2	0	0	0	0	503	511	264	112	
3	0	0	0	0	501	513	264	111	
4	0	0	0	0	498	508	265	111	
5	0	0	0	0	483	508	264	112	
6	0	0	0	0	500	506	264	112	
7	0	0	0	0	535	502	264	112	
8	0	0	0	0	526	505	265	112	
9	0	0	0	0	520	512	263	111	
10	0	0	0	0	504	508	264	111	
11	0	0	0	0	487	506	264	112	
12	0	0	0	0	503	510	263	112	
13	0	0	0	0	520	511	265	112	
14	0	0	0	0	550	505	265	111	
15	0	0	0	0	564	507	264	111	
0	0	0	0	0	527	509	264	111	
1	0	0	0	0	492	508	264	112	
2	0	0	0	0	478	509	264	113	
3	0	0	0	0	484	510	263	112	
4	0	0	0	0	509	508	263	112	
5	0	0	0	0	496	509	263	113	
6	0	0	0	0	492	509	263	113	
7	0	0	0	0	514	505	263	113	
8	0	0	0	0	508	511	263	113	
9	0	0	0	0	485	510	263	113	
10	0	0	0	0	536	513	263	113	
11	0	0	0	0	527	508	263	114	
12	0	0	0	0	508	501	264	114	
13	0	0	0	0	531	504	263	114	
14	0	0	0	0	508	502	264	114	
15	0	0	0	0	499	508	263	115	
0	0	0	0	0	530	512	264	114	
1	0	0	0	0	512	516	264	114	
2	0	0	0	0	514	511	263	114	
3	0	0	0	0	531	507	264	114	
4	0	0	0	0	512	505	263	114	
5	0	0	0	0	504	509	263	113	
6	0	0	0	0	495	511	263	113	
7	0	0	0	0	485	504	262	113	
8	0	0	0	0	494	505	261	114	
9	0	0	0	0	525	509	260	113	
10	0	0	0	0	515	508	261	113	
11	0	0	0	0	491	501	261	113	
12	0	0	0	0	543	505	261	112	
13	0	0	0	0	531	510	261	112	
14	0	0	0	0	440	508	260	112	
15	0	0	0	0	509	505	260	112	
0	0	0	0	0	552	501	261	112	
1	0	0	0	0	533	510	260	112	
2	0	0	0	0	525	515	259	112	
3	0	0	0	0	550	516	260	112	
4	0	0	0	0	527	508	259	111	
5	0	0	0	0	502	507	259	112	
6	0	0	0	0	499	507	259	111	
7	0	0	0	0	497	503	259	110	
8	0	0	0	0	497	502	259	110	
9	0	0	0	0	503	501	258	111	
10	0	0	0	0	487	505	257	110	
11	0	0	0	0	511	510	255	110	
12	0	0	0	0	494	511	255	109	
13	0	0	0	0	500	510	255	109	
14	0	0	0	0	508	511	254	109	
15	0	0	0	0	479	512	256	110	
0	0	0	0	0	526	515	256	109	
1	0	0	0	0	546	512	255	109	
2	0	0	0	0	529	513	254	109	
3	0	0	0	0	544	504	259	109	
4	0	0	0	0	512	500	259	108	
5	0	0	0	0	506	503	260	109	
6	0	0	0	0	515	505	260	109	
7	0	0	0	0	517	509	259	109	
8	0	0	0	0	507	509	260	109	
9	0	0	0	0	503	508	259	109	
10	0	0	0	0	504	506	259	109	
11	0	0	0	0	489	505	257	109	
12	0	0	0	0	460	512	257	110	
13	0	0	0	0	491	513	258	109	
14	0	0	0	0	543	515	257	110	
15	0	0	0	0	501	510	258	109	
0	0	0	0	0	521	515	257	109	
1	0	0	0	0	545	506	257	109	
2	0	0	0	0	542	507	257	109	
3	0	0	0	0	532	499	256	108	
4	0	0	0	0	504	498	255	108	
5	0	0	0	0	487	502	253	109	
6	0	0	0	0	487	498	254	109	
7	0	0	0	0	480	510	254	109	
8	0	0	0	0	516	511	256	109	
9	0	0	0	0	559	513	255	109	
10	0	0	0	0	528	513	255	109	
11	0	0	0	0	514	514	254	108	
12	0	0	0	0	502	514	253	108	
13	0	0	0	0	491	509	252	108	
14	0	0	0	0	497	508	252	109	
15	0	0	0	0	524	509	251	109	
0	0	0	0	0	510	507	251	109	
1	0	0	0	0	509	500	251	112	
2	0	0	0	0	506	500	251	112	
3	0	0	0	0	494	507	251	113	
4	0	0	0	0	497	510	252	112	
5	0	0	0	0	504	512	251	113	
6	0	0	0	0	520	513	252	113	
7	0	0	0	0	517	517	252	112	
8	0	0	0	0	518	515	251	113	
9	0	0	0	0	530	515	251	113	
10	0	0	0	0	513	508	251	113	
11	0	0	0	0	492	493	251	109	
12	0	0	0	0	492	495	251	108	
13	0	0	0	0	544	505	251	108	
14	0	0	0	0	546	508	252	108	
15	0	0	0	0	523	511	252	108	
0	0	0	0	0	512	515	252	108	
1	0	0	0	0	499	511	252	108	
2	0	0	0	0	487	502	252	108	
3	0	0	0	0	488	503	252	108	
4	0	0	0	0	474	508	252	108	
5	0	0	0	0	480	504	251	107	
6	0	0	0	0	558	507	252	107	
7	0	0	0	0	603	509	251	108	
8	0	0	0	0	545	520	252	107	
9	0	0	0	0	561	518	252	107	
10	0	0	0	0	528	512	252	107	
11	0	0	0	0	476	513	253	107	
12	0	0	0	0	452	510	253	106	
13	0	0	0	0	425	498	252	107	
14	0	0	0	0	470	498	252	107	
15	0	0	0	0	527	502	251	105	
0	0	0	0	0	561	511	250	106	
1	0	0	0	0	524	508	251	105	
2	0	0	0	0	511	507	249	105	
3	0	0	0	0	482	504	249	104	
4	0	0	0	0	462	504	248	104	
5	0	0	0	0	466	505	248	105	
6	0	0	0	0	519	502	248	103	
7	0	0	0	0	574	508	247	103	
8	0	0	0	0	598	511	247	104	
9	0	0	0	0	531	511	247	103	
10	0	0	0	0	518	509	249	103	
11	0	0	0	0	475	513	249	103	
12	0	0	0	0	490	513	250	103	
13	0	0	0	0	495	508	250	102	
14	0	0	0	0	505	504	249	102	
15	0	0	0	0	483	505	251	103	
0	0	0	0	0	462	510	251	103	
1	0	0	0	0	461	509	250	102	
2	0	0	0	0	499	504	250	102	
3	0	0	0	0	603	505	251	102	
4	0	0	0	0	620	511	251	103	
5	0	0	0	0	527	523	252	103	
6	0	0	0	0	487	516	252	103	
7	0	0	0	0	511	510	252	101	
8	0	0	0	0	563	506	252	101	
9	0	0	0	0	541	500	252	101	
10	0	0	0	0	502	500	253	101	
11	0	0	0	0	475	503	253	101	
12	0	0	0	0	445	507	252	100	
13	0	0	0	0	424	506	253	101	
14	0	0	0	0	431	506	252	101	
15	0	0	0	0	488	505	253	101	
0	0	0	0	0	509	511	253	101	
1	0	0	0	0	583	512	253	101	
2	0	0	0	0	618	515	253	101	
3	0	0	0	0	592	510	251	101	
4	0	0	0	0	537	507	251	101	
5	0	0	0	0	509	508	251	100	
6	0	0	0	0	469	505	250	101	
7	0	0	0	0	442	504	250	101	
8	0	0	0	0	443	504	249	101	
9	0	0	0	0	463	511	249	100	
10	0	0	0	0	508	503	249	101	
11	0	0	0	0	556	512	249	100	
12	0	0	0	0	583	520	249	100	
13	0	0	0	0	555	517	248	101	
14	0	0	0	0	512	504	250	101	
15	0	0	0	0	556	495	250	102	
0	0	0	0	0	588	504	250	102	
1	0	0	0	0	505	504	250	101	
2	0	0	0	0	422	518	249	101	
3	0	0	0	0	380	516	249	100	
4	0	0	0	0	396	503	249	101	
5	0	0	0	0	409	505	248	101	
6	0	0	0	0	540	502	248	102	
7	0	0	0	0	690	499	249	100	
8	0	0	0	0	657	505	248	100	
9	0	0	0	0	585	506	248	101	
10	0	0	0	0	519	511	249	100	
11	0	0	0	0	473	513	250	100	
12	0	0	0	0	465	513	251	99	
13	0	0	0	0	517	514	251	100	
14	0	0	0	0	520	515	250	100	
15	0	0	0	0	483	511	250	99	
0	0	0	0	0	491	506	248	100	
1	0	0	0	0	488	502	249	99	
2	0	0	0	0	480	498	249	99	
3	0	0	0	0	484	505	250	99	
4	0	0	0	0	487	508	250	99	
5	0	0	0	0	484	512	249	100	
6	0	0	0	0	502	509	250	100	
7	0	0	0	0	531	512	250	99	
8	0	0	0	0	543	510	249	100	
9	0	0	0	0	553	510	252	99	
10	0	0	0	0	557	510	249	99	
11	0	0	0	0	512	508	249	98	
12	0	0	0	0	496	512	249	98	
13	0	0	0	0	539	513	249	98	
14	0	0	0	0	532	510	248	98	
15	0	0	0	0	466	505	249	98	
0	0	0	0	0	428	507	249	97	
1	0	0	0	0	448	501	249	97	
2	0	0	0	0	521	497	248	97	
3	0	0	0	0	584	508	248	97	
4	0	0	0	0	555	515	249	97	
5	0	0	0	0	537	508	248	96	
6	0	0	0	0	506	499	251	95	
7	0	0	0	0	514	500	249	95	
8	0	0	0	0	518	501	251	95	
9	0	0	0	0	517	507	251	94	
10	0	0	0	0	503	510	250	94	
11	0	0	0	0	520	508	251	95	
12	0	0	0	0	527	513	251	94	
13	0	0	0	0	492	512	251	95	
14	0	0	0	0	448	511	249	95	
15	0	0	0	0	445	512	250	95	
0	0	0	0	0	491	511	249	96	
1	0	0	0	0	491	511	249	94	
2	0	0	0	0	474	511	250	94	
3	0	0	0	0	491	510	251	94	
4	0	0	0	0	559	506	252	94	
5	0	0	0	0	531	505	251	94	
6	0	0	0	0	522	507	252	95	
7	0	0	0	0	580	510	252	95	
8	0	0	0	0	541	506	251	94	
9	0	0	0	0	512	507	252	94	
10	0	0	0	0	524	509	253	95	
11	0	0	0	0	508	509	252	95	
12	0	0	0	0	494	508	250	96	
13	0	0	0	0	477	507	250	97	
14	0	0	0	0	462	511	248	97	
15	0	0	0	0	488	510	249	97	
0	0	0	0	0	565	505	249	96	
1	0	0	0	0	582	505	252	97	
2	0	0	0	0	568	511	250	97	
3	0	0	0	0	500	505	248	97	
4	0	0	0	0	487	504	248	97	
5	0	0	0	0	531	508	248	97	
6	0	0	0	0	564	505	247	98	
7	0	0	0	0	587	505	247	98	
8	0	0	0	0	523	508	246	98	
9	0	0	0	0	475	507	246	99	
10	0	0	0	0	470	510	245	98	
11	0	0	0	0	453	513	245	99	
12	0	0	0	0	500	514	244	99	
13	0	0	0	0	515	506	244	99	
14	0	0	0	0	539	499	243	99	
15	0	0	0	0	516	507	243	99	
0	0	0	0	0	483	509	240	99	
1	0	0	0	0	409	507	240	98	
2	0	0	0	0	413	504	240	99	
3	0	0	0	0	488	507	239	100	
4	0	0	0	0	531	509	238	99	
5	0	0	0	0	493	511	238	99	
6	0	0	0	0	536	507	238	99	
7	0	0	0	0	512	511	241	99	
8	0	0	0	0	458	512	242	99	
9	0	0	0	0	532	514	242	99	
10	0	0	0	0	647	510	240	98	
11	0	0	0	0	566	513	239	99	
12	0	0	0	0	548	515	239	99	
13	0	0	0	0	535	506	238	99	
14	0	0	0	0	520	503	239	99	
15	0	0	0	0	525	505	242	100	
0	0	0	0	0	527	504	240	100	
1	0	0	0	0	524	498	240	100	
2	0	0	0	0	519	498	239	100	
3	0	0	0	0	507	499	238	99	
4	0	0	0	0	479	504	235	99	
5	0	0	0	0	422	506	235	99	
6	0	0	0	0	524	510	235	99	
7	0	0	0	0	594	519	233	100	
8	0	0	0	0	542	516	231	100	
9	0	0	0	0	475	515	231	101	
10	0	0	0	0	433	512	231	101	
11	0	0	0	0	454	516	221	101	
12	0	0	0	0	429	513	221	100	
13	0	0	0	0	411	505	222	101	
14	0	0	0	0	444	501	220	99	
15	0	0	0	0	489	500	217	99	
0	0	0	0	0	518	502	216	101	
1	0	0	0	0	640	509	215	101	
2	0	0	0	0	602	507	213	101	
3	0	0	0	0	556	513	212	100	
4	0	0	0	0	529	513	212	100	
5	0	0	0	0	499	506	211	100	
6	0	0	0	0	486	502	212	101	
7	0	0	0	0	483	498	211	99	
8	0	0	0	0	472	493	209	100	
9	0	0	0	0	527	507	207	99	
10	0	0	0	0	610	529	206	100	
11	0	0	0	0	561	531	205	99	
12	0	0	0	0	508	519	204	99	
13	0	0	0	0	537	504	204	99	
14	0	0	0	0	581	498	205	97	
15	0	0	0	0	519	492	203	98	
0	0	0	0	0	492	489	203	98	
1	0	0	0	0	472	489	202	98	
2	0	0	0	0	541	503	201	97	
3	0	0	0	0	506	520	200	95	
4	0	0	0	0	421	520	199	95	
5	0	0	0	0	483	527	200	93	
6	0	0	0	0	480	521	201	93	
7	0	0	0	0	459	512	196	93	
8	0	0	0	0	452	504	194	92	
9	0	0	0	0	463	501	193	92	
10	0	0	0	0	473	506	191	89	
11	0	0	0	0	534	511	187	88	
12	0	0	0	0	574	511	186	88	
13	0	0	0	0	531	509	183	88	
14	0	0	0	0	537	507	182	87	
15	0	0	0	0	627	512	180	85	
0	0	0	0	0	572	509	178	86	
1	0	0	0	0	522	500	176	85	
2	0	0	0	0	504	500	173	82	
3	0	0	0	0	479	504	172	82	
4	0	0	0	0	471	514	172	82	
5	0	0	0	0	492	509	170	82	
6	0	0	0	0	519	504	168	82	
7	0	0	0	0	539	503	166	81	
8	0	0	0	0	546	510	166	81	
9	0	0	0	0	518	513	167	81	
10	0	0	0	0	490	509	166	79	
11	0	0	0	0	492	510	165	77	
12	0	0	0	0	493	512	161	78	
13	0	0	0	0	449	507	161	78	
14	0	0	0	0	473	497	161	79	
15	0	0	0	0	491	503	158	79	
0	0	0	0	0	431	503	159	79	
1	0	0	0	0	443	502	160	79	
2	0	0	0	0	520	507	159	76	
3	0	0	0	0	541	507	160	75	
4	0	0	0	0	608	509	155	75	
5	0	0	0	0	723	508	154	73	
6	0	0	0	0	621	519	156	74	
7	0	0	0	0	484	518	155	73	
8	0	0	0	0	453	514	157	74	
9	0	0	0	0	471	511	154	75	
10	0	0	0	0	487	505	154	74	
11	0	0	0	0	487	500	154	74	
12	0	0	0	0	489	499	154	74	
13	0	0	0	0	508	504	154	74	
14	0	0	0	0	505	513	155	74	
15	0	0	0	0	523	514	156	74	
0	0	0	0	0	542	516	156	74	
1	0	0	0	0	529	513	154	74	
2	0	0	0	0	483	509	155	74	
3	0	0	0	0	466	508	155	75	
4	0	0	0	0	438	503	155	75	
5	0	0	0	0	472	510	156	75	
6	0	0	0	0	507	509	157	75	
7	0	0	0	0	508	501	158	75	
8	0	0	0	0	536	499	158	73	
9	0	0	0	0	518	510	159	76	
10	0	0	0	0	515	508	158	75	
11	0	0	0	0	549	509	157	75	
12	0	0	0	0	567	511	153	73	
13	0	0	0	0	524	511	154	73	
14	0	0	0	0	519	513	154	74	
15	0	0	0	0	524	510	154	75	
0	0	0	0	0	536	507	154	74	
1	0	0	0	0	544	505	153	73	
2	0	0	0	0	521	507	153	73	
3	0	0	0	0	488	508	154	73	
4	0	0	0	0	461	508	155	71	
5	0	0	0	0	462	508	155	72	
6	0	0	0	0	423	502	157	71	
7	0	0	0	0	447	502	158	71	
8	0	0	0	0	511	511	157	71	
9	0	0	0	0	579	510	158	69	
10	0	0	0	0	568	513	159	64	
11	0	0	0	0	519	506	158	65	
12	0	0	0	0	498	505	158	65	
13	0	0	0	0	490	504	158	65	
14	0	0	0	0	492	504	157	67	
15	0	0	0	0	482	511	156	67	
0	0	0	0	0	473	507	157	68	
1	0	0	0	0	478	499	158	68	
2	0	0	0	0	614	510	159	69	
3	0	0	0	0	612	519	158	70	
4	0	0	0	0	560	514	158	71	
5	0	0	0	0	535	508	158	71	
6	0	0	0	0	558	507	157	72	
7	0	0	0	0	533	508	158	72	
8	0	0	0	0	492	509	157	72	
9	0	0	0	0	466	507	157	71	
10	0	0	0	0	472	509	157	73	
11	0	0	0	0	475	509	156	73	
12	0	0	0	0	465	510	158	73	
13	0	0	0	0	486	510	156	74	
14	0	0	0	0	543	506	157	75	
15	0	0	0	0	506	505	157	75	
0	0	0	0	0	502	507	158	75	
1	0	0	0	0	497	508	159	76	
2	0	0	0	0	513	510	161	77	
3	0	0	0	0	519	510	163	78	
4	0	0	0	0	487	508	163	78	
5	0	0	0	0	485	513	164	77	
6	0	0	0	0	514	508	164	78	
7	0	0	0	0	540	505	166	78	
8	0	0	0	0	547	505	166	78	
9	0	0	0	0	538	504	166	79	
10	0	0	0	0	515	505	166	79	
11	0	0	0	0	515	508	167	80	
12	0	0	0	0	503	505	167	80	
13	0	0	0	0	462	507	167	82	
14	0	0	0	0	455	507	167	82	
15	0	0	0	0	456	505	167	82	
0	0	0	0	0	482	508	167	83	
1	0	0	0	0	494	507	166	83	
2	0	0	0	0	562	508	166	83	
3	0	0	0	0	624	508	165	83	
4	0	0	0	0	552	513	166	83	
5	0	0	0	0	523	513	165	83	
6	0	0	0	0	511	509	166	83	
7	0	0	0	0	507	508	166	83	
8	0	0	0	0	508	508	167	83	
9	0	0	0	0	508	508	167	83	
10	0	0	0	0	505	504	166	82	
11	0	0	0	0	501	509	167	81	
12	0	0	0	0	493	512	167	81	
13	0	0	0	0	495	507	167	82	
14	0	0	0	0	498	505	167	82	
15	0	0	0	0	495	509	167	82	
0	0	0	0	0	514	511	167	84	
1	0	0	0	0	550	511	167	84	
2	0	0	0	0	529	510	167	85	
3	0	0	0	0	532	510	167	83	
4	0	0	0	0	513	504	167	83	
5	0	0	0	0	504	507	167	85	
6	0	0	0	0	502	509	168	85	
7	0	0	0	0	498	508	169	85	
8	0	0	0	0	503	504	171	86	
9	0	0	0	0	503	506	172	86	
10	0	0	0	0	508	507	174	84	
11	0	0	0	0	509	508	172	85	
12	0	0	0	0	509	509	171	84	
13	0	0	0	0	505	509	172	85	
14	0	0	0	0	504	508	172	84	
15	0	0	0	0	510	510	172	84	
0	0	0	0	0	512	508	173	84	
1	0	0	0	0	522	509	174	83	
2	0	0	0	0	530	508	175	83	
3	0	0	0	0	517	507	174	83	
4	0	0	0	0	504	506	174	82	
5	0	0	0	0	507	509	175	79	
6	0	0	0	0	515	509	175	79	
7	0	0	0	0	526	508	176	79	
8	0	0	0	0	521	509	176	78	
9	0	0	0	0	513	506	176	79	
10	0	0	0	0	503	507	176	78	
11	0	0	0	0	484	508	177	77	
12	0	0	0	0	473	508	177	76	
13	0	0	0	0	478	508	179	76	
14	0	0	0	0	498	508	179	77	
15	0	0	0	0	519	512	179	78	
0	0	0	0	0	536	511	179	78	
1	0	0	0	0	543	504	180	78	
2	0	0	0	0	527	507	180	76	
3	0	0	0	0	541	508	180	73	
4	0	0	0	0	536	510	180	72	
5	0	0	0	0	525	511	182	71	
6	0	0	0	0	511	506	182	70	
7	0	0	0	0	499	507	181	69	
8	0	0	0	0	496	509	182	68	
9	0	0	0	0	499	510	180	68	
10	0	0	0	0	499	508	181	67	
11	0	0	0	0	505	507	179	66	
12	0	0	0	0	505	507	180	63	
13	0	0	0	0	515	508	181	61	
14	0	0	0	0	513	508	180	57	
15	0	0	0	0	521	507	180	50	
0	0	0	0	0	519	508	181	48	
1	0	0	0	0	508	511	180	41	
2	0	0	0	0	502	505	180	35	
3	0	0	0	0	509	504	179	35	
4	0	0	0	0	504	505	181	33	
5	0	0	0	0	498	508	180	31	
6	0	0	0	0	497	508	180	29	
7	0	0	0	0	505	508	179	21	
8	0	0	0	0	512	508	179	16	
9	0	0	0	0	523	505	177	0	
10	0	0	0	0	523	508	178	0	
11	0	0	0	0	539	508	180	0	
12	0	0	0	0	537	510	179	0	
13	0	0	0	0	511	510	179	0	
14	0	0	0	0	500	511	178	0	
15	0	0	0	0	504	510	181	0	
0	0	0	0	0	494	510	181	0	
1	0	0	0	0	499	508	181	0	
2	0	0	0	0	484	511	181	0	
3	0	0	0	0	507	508	180	0	
4	0	0	0	0	521	505	181	0	
5	0	0	0	0	513	507	180	0	
6	0	0	0	0	511	508	180	0	
7	0	0	0	0	506	509	181	0	
8	0	0	0	0	509	508	180	0	
9	0	0	0	0	511	507	183	0	
10	0	0	0	0	515	509	183	0	
11	0	0	0	0	521	509	183	0	
12	0	0	0	0	525	509	181	0	
13	0	0	0	0	524	508	182	0	
14	0	0	0	0	508	509	180	0	
15	0	0	0	0	507	507	180	0	
0	0	0	0	0	512	509	180	0	
1	0	0	0	0	519	507	181	0	
2	0	0	0	0	511	507	176	0	
3	0	0	0	0	512	506	174	0	
4	0	0	0	0	519	507	174	0	
5	0	0	0	0	512	508	175	0	
6	0	0	0	0	507	508	175	0	
7	0	0	0	0	502	508	176	0	
8	0	0	0	0	505	508	172	0	
9	0	0	0	0	506	508	170	0	
10	0	0	0	0	510	507	170	0	
11	0	0	0	0	510	509	172	0	
12	0	0	0	0	526	508	172	0	
13	0	0	0	0	522	508	171	0	
14	0	0	0	0	516	508	172	0	
15	0	0	0	0	501	509	171	0	
0	0	0	0	0	493	507	172	0	
1	0	0	0	0	494	508	170	0	
2	0	0	0	0	497	512	167	0	
3	0	0	0	0	515	509	166	0	
4	0	0	0	0	512	509	166	0	
5	0	0	0	0	514	508	165	0	
6	0	0	0	0	514	507	164	0	
7	0	0	0	0	513	506	164	0	
8	0	0	0	0	510	509	163	0	
9	0	0	0	0	513	510	162	0	
10	0	0	0	0	526	509	161	0	
11	0	0	0	0	520	508	162	0	
12	0	0	0	0	508	507	159	0	
13	0	0	0	0	508	508	156	0	
14	0	0	0	0	509	507	156	0	
15	0	0	0	0	510	507	157	0	
0	0	0	0	0	508	508	156	0	
1	0	0	0	0	508	507	156	0	
2	0	0	0	0	511	509	157	0	
3	0	0	0	0	513	509	155	0	
4	0	0	0	0	512	508	155	0	
5	0	0	0	0	510	510	156	0	
6	0	0	0	0	510	507	158	0	
7	0	0	0	0	512	508	159	0	
8	0	0	0	0	513	507	160	0	
9	0	0	0	0	512	508	159	0	
10	0	0	0	0	511	508	156	0	
11	0	0	0	0	511	509	156	0	
12	0	0	0	0	510	508	157	0	
13	0	0	0	0	511	508	159	0	
14	0	0	0	0	511	508	158	0	
15	0	0	0	0	512	507	156	0	
0	0	0	0	0	513	507	156	0	
1	0	0	0	0	513	507	156	0	
2	0	0	0	0	510	508	156	0	
3	0	0	0	0	508	508	155	0	
4	0	0	0	0	511	509	156	0	
5	0	0	0	0	511	508	156	0	
6	0	0	0	0	513	510	156	0	
7	0	0	0	0	512	508	156	0	
8	0	0	0	0	512	507	155	0	
9	0	0	0	0	509	508	155	0	
10	0	0	0	0	505	511	154	0	
11	0	0	0	0	507	509	154	0	
12	0	0	0	0	509	507	151	0	
13	0	0	0	0	512	506	152	0	
14	0	0	0	0	515	509	151	0	
15	0	0	0	0	529	506	150	0	
0	0	0	0	0	522	505	148	0	
1	0	0	0	0	511	508	142	0	
2	0	0	0	0	507	508	139	0	
3	0	0	0	0	508	510	138	0	
4	0	0	0	0	505	509	134	0	
5	0	0	0	0	509	510	129	0	
6	0	0	0	0	512	509	129	0	
7	0	0	0	0	511	507	123	0	
8	0	0	0	0	509	508	120	0	
9	0	0	0	0	508	507	115	0	
10	0	0	0	0	509	508	111	0	
11	0	0	0	0	508	507	107	0	
12	0	0	0	0	510	508	103	0	
13	0	0	0	0	510	508	101	0	
14	0	0	0	0	511	507	101	0	
15	0	0	0	0	510	509	100	0	
0	0	0	0	0	512	507	100	0	
1	0	0	0	0	509	507	98	0	
2	0	0	0	0	510	508	99	0	
3	0	0	0	0	510	509	97	0	
4	0	0	0	0	511	509	95	0	
5	0	0	0	0	511	507	95	0	
6	0	0	0	0	512	509	95	0	
7	0	0	0	0	516	508	94	0	
8	0	0	0	0	510	508	89	0	
9	0	0	0	0	508	508	90	0	
10	0	0	0	0	511	509	89	0	
11	0	0	0	0	512	507	89	0	
12	0	0	0	0	511	507	87	0	
13	0	0	0	0	512	508	87	0	
14	0	0	0	0	513	507	87	0	
15	0	0	0	0	511	508	84	0	
0	0	0	0	0	511	506	81	0	
1	0	0	0	0	510	511	80	0	
2	0	0	0	0	510	508	79	0	
3	0	0	0	0	511	509	78	0	
4	0	0	0	0	513	510	76	0	
5	0	0	0	0	512	508	79	0	
6	0	0	0	0	511	508	79	0	
7	0	0	0	0	511	508	78	0	
8	0	0	0	0	510	509	78	0	
9	0	0	0	0	509	508	80	0	
10	0	0	0	0	511	509	77	0	
11	0	0	0	0	511	507	77	0	
12	0	0	0	0	513	508	77	0	
13	0	0	0	0	512	508	78	0	
14	0	0	0	0	514	508	78	0	
15	0	0	0	0	512	507	78	0	
0	0	0	0	0	513	508	75	0	
1	0	0	0	0	511	507	73	0	
2	0	0	0	0	510	508	74	0	
3	0	0	0	0	501	509	75	0	
4	0	0	0	0	508	507	75	0	
5	0	0	0	0	515	508	74	0	
6	0	0	0	0	515	507	72	0	
7	0	0	0	0	516	508	74	0	
8	0	0	0	0	515	507	71	0	
9	0	0	0	0	512	509	68	0	
10	0	0	0	0	505	510	67	0	
11	0	0	0	0	500	509	69	0	
12	0	0	0	0	501	508	65	0	
13	0	0	0	0	505	508	64	0	
14	0	0	0	0	508	507	64	0	
15	0	0	0	0	512	508	62	0	
0	0	0	0	0	511	505	63	0	
1	0	0	0	0	513	507	62	0	
2	0	0	0	0	514	508	62	0	
3	0	0	0	0	518	509	62	0	
4	0	0	0	0	514	510	61	0	
5	0	0	0	0	515	509	59	0	
6	0	0	0	0	512	508	57	0	
7	0	0	0	0	512	508	56	0	
8	0	0	0	0	512	510	53	0	
9	0	0	0	0	513	510	52	0	
10	0	0	0	0	512	509	53	0	
11	0	0	0	0	515	508	51	0	
12	0	0	0	0	512	506	50	0	
13	0	0	0	0	511	507	47	0	
14	0	0	0	0	509	507	44	0	
15	0	0	0	0	510	507	43	0	
0	0	0	0	0	508	508	40	0	
1	0	0	0	0	510	509	36	0	
2	0	0	0	0	509	508	37	0	
3	0	0	0	0	511	507	38	0	
4	0	0	0	0	510	510	35	0	
5	0	0	0	0	510	509	33	0	
6	0	0	0	0	509	509	29	0	
7	0	0	0	0	509	507	28	0	
8	0	0	0	0	509	507	27	0	
9	0	0	0	0	511	509	25	0	
10	0	0	0	0	512	507	23	0	
11	0	0	0	0	512	507	21	0	
12	0	0	0	0	509	509	20	0	
13	0	0	0	0	511	509	19	0	
14	0	0	0	0	511	508	18	0	
15	0	0	0	0	512	507	17	0	
0	0	0	0	0	512	508	14	0	
1	0	0	0	0	513	509	13	0	
2	0	0	0	0	511	509	9	0	
3	0	0	0	0	515	506	3	0	
4	0	0	0	0	516	508	0	0	
5	0	0	0	0	510	508	0	0	
6	0	0	0	0	510	508	0	0	
7	0	0	0	0	509	507	0	0	
8	0	0	0	0	505	509	0	0	
9	0	0	0	0	505	506	0	0	
10	0	0	0	0	508	508	0	0	
11	0	0	0	0	512	508	0	0	
12	0	0	0	0	511	508	0	0	
13	0	0	0	0	512	508	0	0	
14	0	0	0	0	515	507	0	0	
15	0	0	0	0	516	505	0	0	
0	0	0	0	0	517	507	0	0	
1	0	0	0	0	514	508	0	0	
2	0	0	0	0	512	507	0	0	
3	0	0	0	0	512	508	0	0	
4	0	0	0	0	512	510	0	0	
5	0	0	0	0	509	509	0	0	
6	0	0	0	0	510	509	0	0	
7	0	0	0	0	513	509	0	0	
8	0	0	0	0	511	508	0	0	
9	0	0	0	0	513	510	0	0	
10	0	0	0	0	510	511	0	0	
11	0	0	0	0	506	506	0	0	
12	0	0	0	0	506	507	0	0	
13	0	0	0	0	509	506	0	0	
14	0	0	0	0	510	506	0	0	
15	0	0	0	0	511	506	0	0	
0	0	0	0	0	514	509	0	0	
1	0	0	0	0	511	508	0	0	
2	0	0	0	0	511	509	0	0	
3	0	0	0	0	510	506	0	0	
4	0	0	0	0	512	509	0	0	
5	0	0	0	0	513	512	0	0	
6	0	0	0	0	511	508	0	0	
7	0	0	0	0	512	507	0	0	
8	0	0	0	0	513	508	0	0	
9	0	0	0	0	511	508	0	0	
10	0	0	0	0	511	509	0	0	
11	0	0	0	0	511	510	0	0	
12	0	0	0	0	511	509	0	0	
13	0	0	0	0	511	507	0	0	
14	0	0	0	0	510	507	0	0	
15	0	0	0	0	511	509	0	0	
0	0	0	0	0	511	509	0	0	
1	0	0	0	0	510	506	0	0	
2	0	0	0	0	511	508	0	0	
3	0	0	0	0	510	507	0	0	
4	0	0	0	0	511	509	0	0	
5	0	0	0	0	512	508	0	0	
6	0	0	0	0	512	508	0	0	
7	0	0	0	0	511	508	0	0	
8	0	0	0	0	510	507	0	0	
9	0	0	0	0	513	509	0	0	
10	0	0	0	0	512	507	0	0	
11	0	0	0	0	511	508	0	0	
12	0	0	0	0	512	508	0	0	
13	0	0	0	0	511	509	0	0	
14	0	0	0	0	512	509	0	0	
15	0	0	0	0	509	508	0	0	
0	0	0	0	0	512	508	0	0	
1	0	0	0	0	509	507	0	0	
2	0	0	0	0	508	505	0	0	
3	0	0	0	0	508	507	0	0	
4	0	0	0	0	507	508	0	0	
5	0	0	0	0	509	509	0	0	
6	0	0	0	0	511	509	0	0	
7	0	0	0	0	511	507	0	0	
8	0	0	0	0	513	510	0	0	
9	0	0	0	0	514	510	0	0	
10	0	0	0	0	512	508	0	0	
11	0	0	0	0	511	508	0	0	
12	0	0	0	0	512	506	0	0	
13	0	0	0	0	513	508	0	0	
14	0	0	0	0	512	507	0	0	
15	0	0	0	0	513	509	0	0	
0	0	0	0	0	511	509	0	0	
1	0	0	0	0	511	508	0	0	
2	0	0	0	0	509	509	0	0	
3	0	0	0	0	511	507	0	0	
4	0	0	0	0	512	507	0	0	
5	0	0	0	0	510	509	0	0	
6	0	0	0	0	509	509	0	0	
7	0	0	0	0	509	507	0	0	
8	0	0	0	0	510	507	0	0	
9	0	0	0	0	511	508	0	0	
10	0	0	0	0	509	508	0	0	
11	0	0	0	0	510	507	0	0	
12	0	0	0	0	510	510	0	0	
13	0	0	0	0	511	510	0	0	
14	0	0	0	0	512	508	0	0	
15	0	0	0	0	513	509	0	0	
0	0	0	0	0	512	508	0	0	
1	0	0	0	0	512	508	0	0	
2	0	0	0	0	512	507	0	0	
3	0	0	0	0	512	508	0	0	
4	0	0	0	0	512	510	0	0	
5	0	0	0	0	511	509	0	0	
6	0	0	0	0	509	508	0	0	
7	0	0	0	0	508	508	0	0	
8	0	0	0	0	508	507	0	0	
9	0	0	0	0	511	508	0	0	
10	0	0	0	0	508	507	0	0	
11	0	0	0	0	509	508	0	0	
12	0	0	0	0	510	507	0	0	
13	0	0	0	0	511	508	0	0	
14	0	0	0	0	511	508	0	0	
15	0	0	0	0	512	508	0	0	
0	0	0	0	0	514	509	0	0	
1	0	0	0	0	511	508	0	0	
2	0	0	0	0	513	507	0	0	
3	0	0	0	0	515	509	0	0	
4	0	0	0	0	514	508	0	0	
5	0	0	0	0	511	509	0	0	
6	0	0	0	0	512	507	0	0	
7	0	0	0	0	513	506	0	0	
8	0	0	0	0	510	507	0	0	
9	0	0	0	0	510	507	0	0	
10	0	0	0	0	511	509	0	0	
11	0	0	0	0	508	510	0	0	
12	0	0	0	0	510	506	0	0	
13	0	0	0	0	510	509	0	0	
14	0	0	0	0	509	507	0	0	
15	0	0	0	0	511	507	0	0	
0	0	0	0	0	509	509	0	0	
1	0	0	0	0	510	508	0	0	
2	0	0	0	0	511	508	0	0	
3	0	0	0	0	510	506	0	0	
4	0	0	0	0	512	508	0	0	
5	0	0	0	0	514	509	0	0	
6	0	0	0	0	512	509	0	0	
7	0	0	0	0	512	508	0	0	
8	0	0	0	0	513	508	0	0	
9	0	0	0	0	514	508	0	0	
10	0	0	0	0	511	507	0	0	
11	0	0	0	0	512	506	0	0	
12	0	0	0	0	513	509	0	0	
13	0	0	0	0	511	508	0	0	
14	0	0	0	0	510	509	0	0	
15	0	0	0	0	509	507	0	0	
0	0	0	0	0	509	506	0	0	
1	0	0	0	0	510	507	0	0	
2	0	0	0	0	507	510	0	0	
3	0	0	0	0	511	508	0	0	
4	0	0	0	0	511	508	0	0	
5	0	0	0	0	510	508	0	0	
6	0	0	0	0	513	508	0	0	
7	0	0	0	0	511	507	0	0	
8	0	0	0	0	510	508	0	0	
9	0	0	0	0	511	507	0	0	
10	0	0	0	0	509	510	0	0	
11	0	0	0	0	512	509	0	0	
12	0	0	0	0	513	508	0	0	
13	0	0	0	0	515	507	0	0	
14	0	0	0	0	513	508	0	0	
15	0	0	0	0	513	509	0	0	
0	0	0	0	0	511	509	0	0	
1	0	0	0	0	511	507	0	0	
2	0	0	0	0	511	507	0	0	
3	0	0	0	0	509	508	0	0	
4	0	0	0	0	511	508	0	0	
5	0	0	0	0	510	510	0	0	
6	0	0	0	0	511	508	0	0	
7	0	0	0	0	509	507	0	0	
8	0	0	0	0	509	508	0	0	
9	0	0	0	0	509	508	0	0	
10	0	0	0	0	511	507	0	0	
11	0	0	0	0	511	507	0	0	
12	0	0	0	0	513	508	0	0	
13	0	0	0	0	512	508	0	0	
14	0	0	0	0	514	508	0	0	
15	0	0	0	0	511	507	0	0	
0	0	0	0	0	512	507	0	0	
1	0	0	0	0	510	509	0	0	
2	0	0	0	0	513	507	0	0	
3	0	0	0	0	513	508	0	0	
4	0	0	0	0	513	505	0	0	
5	0	0	0	0	510	508	0	0	
6	0	0	0	0	512	508	0	0	
7	0	0	0	0	510	508	0	0	
8	0	0	0	0	511	508	0	0	
9	0	0	0	0	510	508	0	0	
10	0	0	0	0	506	506	0	0	
11	0	0	0	0	508	510	0	0	
12	0	0	0	0	509	508	0	0	
13	0	0	0	0	510	509	0	0	
14	0	0	0	0	512	508	0	0	
15	0	0	0	0	511	507	0	0	
0	0	0	0	0	511	508	0	0	
1	0	0	0	0	511	507	0	0	
2	0	0	0	0	511	508	0	0	
3	0	0	0	0	511	509	0	0	
4	0	0	0	0	511	508	0	0	
5	0	0	0	0	512	510	0	0	
6	0	0	0	0	512	507	0	0	
7	0	0	0	0	515	507	0	0	
8	0	0	0	0	512	507	0	0	
9	0	0	0	0	512	509	0	0	
10	0	0	0	0	510	508	0	0	
11	0	0	0	0	511	507	0	0	
12	0	0	0	0	509	508	0	0	
13	0	0	0	0	509	507	0	0	
14	0	0	0	0	509	512	0	0	
15	0	0	0	0	509	508	0	0	
0	0	0	0	0	508	506	0	0	
1	0	0	0	0	510	509	0	0	
2	0	0	0	0	509	507	0	0	
3	0	0	0	0	512	506	0	0	
4	0	0	0	0	511	508	0	0	
5	0	0	0	0	512	508	0	0	
6	0	0	0	0	513	508	0	0	
7	0	0	0	0	513	508	0	0	
8	0	0	0	0	513	509	0	0	
9	0	0	0	0	513	508	0	0	
10	0	0	0	0	510	509	0	0	
11	0	0	0	0	512	507	0	0	
12	0	0	0	0	512	509	0	0	
13	0	0	0	0	512	507	0	0	
14	0	0	0	0	511	508	0	0	
15	0	0	0	0	508	508	0	0	
0	0	0	0	0	510	509	0	0	
1	0	0	0	0	511	509	0	0	
2	0	0	0	0	510	507	0	0	
3	0	0	0	0	509	507	0	0	
4	0	0	0	0	511	505	0	0	
5	0	0	0	0	511	508	0	0	
6	0	0	0	0	511	508	0	0	
7	0	0	0	0	511	508	0	0	
8	0	0	0	0	512	509	0	0	
9	0	0	0	0	511	508	0	0	
10	0	0	0	0	513	508	0	0	
11	0	0	0	0	511	509	0	0	
12	0	0	0	0	512	511	0	0	
13	0	0	0	0	512	509	0	0	
14	0	0	0	0	511	506	0	0	
15	0	0	0	0	513	508	0	0	
0	0	0	0	0	512	509	0	0	
1	0	0	0	0	511	508	0	0	
2	0	0	0	0	511	509	0	0	
3	0	0	0	0	511	507	0	0	
4	0	0	0	0	511	505	0	0	
5	0	0	0	0	510	508	0	0	
6	0	0	0	0	509	508	0	0	
7	0	0	0	0	510	508	0	0	
8	0	0	0	0	510	509	0	0	
9	0	0	0	0	510	509	0	0	
10	0	0	0	0	508	508	0	0	
11	0	0	0	0	511	509	0	0	
12	0	0	0	0	511	506	0	0	
13	0	0	0	0	511	506	0	0	
14	0	0	0	0	511	510	0	0	
15	0	0	0	0	514	507	0	0	
0	0	0	0	0	512	507	0	0	
1	0	0	0	0	514	508	0	0	
2	0	0	0	0	511	510	0	0	
3	0	0	0	0	512	507	0	0	
4	0	0	0	0	511	509	0	0	
5	0	0	0	0	513	508	0	0	
6	0	0	0	0	510	505	0	0	
7	0	0	0	0	511	509	0	0	
8	0	0	0	0	509	508	0	0	
9	0	0	0	0	510	507	0	0	
10	0	0	0	0	510	507	0	0	
11	0	0	0	0	511	508	0	0	
12	0	0	0	0	511	507	0	0	
13	0	0	0	0	508	509	0	0	
14	0	0	0	0	510	508	0	0	
15	0	0	0	0	512	508	0	0	
0	0	0	0	0	511	509	0	0	
1	0	0	0	0	513	508	0	0	
2	0	0	0	0	513	507	0	0	
3	0	0	0	0	513	506	0	0	
4	0	0	0	0	512	508	0	0	
5	0	0	0	0	510	507	0	0	
6	0	0	0	0	512	509	0	0	
7	0	0	0	0	512	508	0	0	
8	0	0	0	0	511	506	0	0	
9	0	0	0	0	511	508	0	0	
10	0	0	0	0	509	508	0	0	
11	0	0	0	0	510	508	0	0	
12	0	0	0	0	511	508	0	0	
13	0	0	0	0	506	508	0	0	
14	0	0	0	0	509	507	0	0	
15	0	0	0	0	511	510	0	0	
0	0	0	0	0	511	508	0	0	
1	0	0	0	0	510	508	0	0	
2	0	0	0	0	512	509	0	0	
3	0	0	0	0	511	507	0	0	
4	0	0	0	0	512	509	0	0	
5	0	0	0	0	512	508	0	0	
6	0	0	0	0	512	508	0	0	
7	0	0	0	0	513	508	0	0	
8	0	0	0	0	514	507	0	0	
9	0	0	0	0	512	507	0	0	
10	0	0	0	0	514	508	0	0	
11	0	0	0	0	511	508	0	0	
12	0	0	0	0	512	508	0	0	
13	0	0	0	0	512	506	0	0	
14	0	0	0	0	512	509	0	0	
15	0	0	0	0	509	508	0	0	
0	0	0	0	0	510	506	0	0	
1	0	0	0	0	512	507	0	0	
2	0	0	0	0	508	508	0	0	
3	0	0	0	0	510	508	0	0	
4	0	0	0	0	510	508	0	0	
5	0	0	0	0	510	508	0	0	
6	0	0	0	0	509	509	0	0	
7	0	0	0	0	509	509	0	0	
8	0	0	0	0	511	508	0	0	
9	0	0	0	0	511	509	0	0	
10	0	0	0	0	514	507	0	0	
11	0	0	0	0	512	508	0	0	
12	0	0	0	0	513	508	0	0	
13	0	0	0	0	513	508	0	0	
14	0	0	0	0	513	508	0	0	
15	0	0	0	0	511	507	0	0	
0	0	0	0	0	514	508	0	0	
1	0	0	0	0	511	507	0	0	
2	0	0	0	0	512	507	0	0	
3	0	0	0	0	510	510	0	0	
4	0	0	0	0	509	510	0	0	
5	0	0	0	0	509	509	0	0	
6	0	0	0	0	509	507	0	0	
7	0	0	0	0	511	507	0	0	
8	0	0	0	0	510	508	0	0	
9	0	0	0	0	511	508	0	0	
10	0	0	0	0	510	506	0	0	
11	0	0	0	0	510	507	0	0	
12	0	0	0	0	512	510	0	0	
13	0	0	0	0	512	509	0	0	
14	0	0	0	0	511	509	0	0	
15	0	0	0	0	511	508	0	0	
0	0	0	0	0	513	508	0	0	
1	0	0	0	0	513	508	0	0	
2	0	0	0	0	512	508	0	0	
3	0	0	0	0	514	506	0	0	
4	0	0	0	0	510	508	0	0	
5	0	0	0	0	511	509	0	0	
6	0	0	0	0	510	508	0	0	
7	0	0	0	0	511	506	0	0	
8	0	0	0	0	511	508	0	0	
9	0	0	0	0	511	508	0	0	
10	0	0	0	0	509	508	0	0	
11	0	0	0	0	508	507	0	0	
12	0	0	0	0	507	508	0	0	
13	0	0	0	0	510	508	0	0	
14	0	0	0	0	510	508	0	0	
15	0	0	0	0	510	509	0	0	
0	0	0	0	0	511	507	0	0	
1	0	0	0	0	512	508	0	0	
2	0	0	0	0	512	509	0	0	
3	0	0	0	0	514	508	0	0	
4	0	0	0	0	511	507	0	0	
5	0	0	0	0	512	509	0	0	
6	0	0	0	0	513	509	0	0	
7	0	0	0	0	513	508	0	0	
8	0	0	0	0	513	508	0	0	
9	0	0	0	0	511	505	0	0	
10	0	0	0	0	512	507	0	0	
11	0	0	0	0	510	509	0	0	
12	0	0	0	0	511	509	0	0	
13	0	0	0	0	509	508	0	0	
14	0	0	0	0	510	508	0	0	
15	0	0	0	0	511	507	0	0	
0	0	0	0	0	509	508	0	0	
1	0	0	0	0	509	509	0	0	
2	0	0	0	0	511	507	0	0	
3	0	0	0	0	511	507	0	0	
4	0	0	0	0	510	507	0	0	
5	0	0	0	0	510	508	0	0	
6	0	0	0	0	512	509	0	0	
7	0	0	0	0	511	508	0	0	
8	0	0	0	0	511	507	0	0	
9	0	0	0	0	511	508	0	0	
10	0	0	0	0	511	510	0	0	
11	0	0	0	0	513	508	0	0	
12	0	0	0	0	512	507	0	0	
13	0	0	0	0	511	509	0	0	
14	0	0	0	0	511	508	0	0	
15	0	0	0	0	511	507	0	0	
0	0	0	0	0	509	508	0	0	
1	0	0	0	0	511	509	0	0	
2	0	0	0	0	510	508	0	0	
3	0	0	0	0	510	507	0	0	
4	0	0	0	0	510	508	0	0	
5	0	0	0	0	511	507	0	0	
6	0	0	0	0	509	507	0	0	
7	0	0	0	0	510	508	0	0	
8	0	0	0	0	510	508	0	0	
9	0	0	0	0	513	510	0	0	
10	0	0	0	0	512	508	0	0	
11	0	0	0	0	513	508	0	0	
12	0	0	0	0	511	508	0	0	
13	0	0	0	0	512	507	0	0	
14	0	0	0	0	512	507	0	0	
15	0	0	0	0	512	509	0	0	
0	0	0	0	0	512	509	0	0	
1	0	0	0	0	511	508	0	0	
2	0	0	0	0	511	508	0	0	
3	0	0	0	0	511	509	0	0	
4	0	0	0	0	511	506	0	0	
5	0	0	0	0	512	508	0	0	
6	0	0	0	0	509	508	0	0	
7	0	0	0	0	510	508	0	0	
8	0	0	0	0	509	508	0	0	
9	0	0	0	0	510	508	0	0	
10	0	0	0	0	511	507	0	0	
11	0	0	0	0	511	509	0	0	
12	0	0	0	0	511	509	0	0	
13	0	0	0	0	510	508	0	0	
14	0	0	0	0	513	507	0	0	
15	0	0	0	0	511	509	0	0	
0	0	0	0	0	513	508	0	0	
1	0	0	0	0	513	508	0	0	
2	0	0	0	0	513	508	0	0	
3	0	0	0	0	512	509	0	0	
4	0	0	0	0	511	510	0	0	
5	0	0	0	0	511	506	0	0	
6	0	0	0	0	511	509	0	0	
7	0	0	0	0	510	508	0	0	
8	0	0	0	0	511	509	0	0	
9	0	0	0	0	510	507	0	0	
10	0	0	0	0	509	506	0	0	
11	0	0	0	0	509	508	0	0	
12	0	0	0	0	508	509	0	0	
13	0	0	0	0	510	506	0	0	
14	0	0	0	0	511	507	0	0	
15	0	0	0	0	512	508	0	0	
0	0	0	0	0	510	507	0	0	
1	0	0	0	0	511	509	0	0	
2	0	0	0	0	513	508	0	0	
3	0	0	0	0	511	508	0	0	
4	0	0	0	0	512	509	0	0	
5	0	0	0	0	512	508	0	0	
6	0	0	0	0	513	509	0	0	
7	0	0	0	0	513	508	0	0	
8	0	0	0	0	513	508	0	0	
9	0	0	0	0	511	507	0	0	
10	0	0	0	0	508	508	0	0	
11	0	0	0	0	511	508	0	0	
12	0	0	0	0	509	508	0	0	
13	0	0	0	0	510	509	0	0	
14	0	0	0	0	510	509	0	0	
15	0	0	0	0	509	508	0	0	
0	0	0	0	0	509	506	0	0	
1	0	0	0	0	512	508	0	0	
2	0	0	0	0	510	510	0	0	
3	0	0	0	0	509	508	0	0	
4	0	0	0	0	510	509	0	0	
5	0	0	0	0	512	508	0	0	
6	0	0	0	0	515	510	0	0	
7	0	0	0	0	512	507	0	0	
8	0	0	0	0	513	507	0	0	
9	0	0	0	0	514	508	0	0	
10	0	0	0	0	513	508	0	0	
11	0	0	0	0	512	510	0	0	
12	0	0	0	0	511	509	0	0	
13	0	0	0	0	511	508	0	0	
14	0	0	0	0	512	509	0	0	
15	0	0	0	0	508	508	0	0	
0	0	0	0	0	510	507	0	0	
1	0	0	0	0	510	508	0	0	
2	0	0	0	0	509	506	0	0	
3	0	0	0	0	507	509	0	0	
4	0	0	0	0	509	508	0	0	
5	0	0	0	0	510	507	0	0	
6	0	0	0	0	511	510	0	0	
7	0	0	0	0	511	509	0	0	
8	0	0	0	0	511	507	0	0	
9	0	0	0	0	512	508	0	0	
10	0	0	0	0	513	508	0	0	
11	0	0	0	0	513	508	0	0	
12	0	0	0	0	514	508	0	0	
13	0	0	0	0	514	509	0	0	
14	0	0	0	0	513	507	0	0	
15	0	0	0	0	514	507	0	0	
0	0	0	0	0	511	510	0	0	
1	0	0	0	0	511	506	0	0	
2	0	0	0	0	511	507	0	0	
3	0	0	0	0	508	508	0	0	
4	0	0	0	0	509	507	0	0	
5	0	0	0	0	508	509	0	0	
6	0	0	0	0	508	509	0	0	
7	0	0	0	0	509	508	0	0	
8	0	0	0	0	508	507	0	0	
9	0	0	0	0	508	508	0	0	
10	0	0	0	0	510	509	0	0	
11	0	0	0	0	510	508	0	0	
12	0	0	0	0	512	507	0	0	
13	0	0	0	0	512	509	0	0	
14	0	0	0	0	514	509	0	0	
15	0	0	0	0	515	509	0	0	
0	0	0	0	0	513	508	0	0	
1	0	0	0	0	512	507	0	0	
2	0	0	0	0	513	507	0	0	
3	0	0	0	0	511	508	0	0	
4	0	0	0	0	512	508	0	0	
5	0	0	0	0	514	508	0	0	
6	0	0	0	0	510	509	0	0	
7	0	0	0	0	509	508	0	0	
8	0	0	0	0	508	508	0	0	
9	0	0	0	0	508	508	0	0	
10	0	0	0	0	510	507	0	0	
11	0	0	0	0	509	507	0	0	
12	0	0	0	0	510	509	0	0	
13	0	0	0	0	510	506	0	0	
14	0	0	0	0	510	506	0	0	
15	0	0	0	0	512	510	0	0	
0	0	0	0	0	511	511	0	0	
1	0	0	0	0	511	508	0	0	
2	0	0	0	0	514	506	0	0	
3	0	0	0	0	512	507	0	0	
4	0	0	0	0	512	507	0	0	
5	0	0	0	0	511	508	0	0	
6	0	0	0	0	512	508	0	0	
7	0	0	0	0	512	510	0	0	
8	0	0	0	0	512	507	0	0	
9	0	0	0	0	511	508	0	0	
10	0	0	0	0	510	507	0	0	
11	0	0	0	0	510	508	0	0	
12	0	0	0	0	510	508	0	0	
13	0	0	0	0	510	507	0	0	
14	0	0	0	0	510	507	0	0	
15	0	0	0	0	511	508	0	0	
0	0	0	0	0	509	506	0	0	
1	0	0	0	0	511	508	0	0	
2	0	0	0	0	512	508	0	0	
3	0	0	0	0	511	508	0	0	
4	0	0	0	0	513	510	0	0	
5	0	0	0	0	513	508	0	0	
6	0	0	0	0	512	508	0	0	
7	0	0	0	0	513	508	0	0	
8	0	0	0	0	513	506	0	0	
9	0	0	0	0	513	508	0	0	
10	0	0	0	0	511	511	0	0	
11	0	0	0	0	512	508	0	0	
12	0	0	0	0	512	508	0	0	
13	0	0	0	0	513	508	0	0	
14	0	0	0	0	509	506	0	0	
15	0	0	0	0	511	507	0	0	
0	0	0	0	0	508	508	0	0	
1	0	0	0	0	511	509	0	0	
2	0	0	0	0	510	507	0	0	
3	0	0	0	0	506	508	0	0	
4	0	0	0	0	507	509	0	0	
5	0	0	0	0	509	506	0	0	
6	0	0	0	0	511	508	0	0	
7	0	0	0	0	512	508	0	0	
8	0	0	0	0	511	510	0	0	
9	0	0	0	0	511	508	0	0	
10	0	0	0	0	512	509	0	0	
11	0	0	0	0	512	507	0	0	
12	0	0	0	0	514	507	0	0	
13	0	0	0	0	512	509	0	0	
14	0	0	0	0	512	509	0	0	
15	0	0	0	0	512	508	0	0	
0	0	0	0	0	513	509	0	0	
1	0	0	0	0	509	507	0	0	
2	0	0	0	0	511	510	0	0	
3	0	0	0	0	510	507	0	0	
4	0	0	0	0	511	507	0	0	
5	0	0	0	0	510	507	0	0	
6	0	0	0	0	508	508	0	0	
7	0	0	0	0	509	508	0	0	
8	0	0	0	0	511	507	0	0	
9	0	0	0	0	511	508	0	0	
10	0	0	0	0	511	507	0	0	
11	0	0	0	0	510	508	0	0	
12	0	0	0	0	511	508	0	0	
13	0	0	0	0	510	507	0	0	
14	0	0	0	0	513	508	0	0	
15	0	0	0	0	512	508	0	0	
0	0	0	0	0	513	508	0	0	
1	0	0	0	0	512	510	0	0	
2	0	0	0	0	514	508	0	0	
3	0	0	0	0	513	508	0	0	
4	0	0	0	0	512	508	0	0	
5	0	0	0	0	512	507	0	0	
6	0	0	0	0	508	507	0	0	
7	0	0	0	0	511	508	0	0	
8	0	0	0	0	510	507	0	0	
9	0	0	0	0	510	508	0	0	
10	0	0	0	0	509	508	0	0	
11	0	0	0	0	509	508	0	0	
12	0	0	0	0	510	507	0	0	
13	0	0	0	0	510	508	0	0	
14	0	0	0	0	510	510	0	0	
15	0	0	0	0	510	508	0	0	
0	0	0	0	0	511	507	0	0	
1	0	0	0	0	511	506	0	0	
2	0	0	0	0	512	508	0	0	
3	0	0	0	0	512	509	0	0	
4	0	0	0	0	511	508	0	0	
5	0	0	0	0	513	508	0	0	
6	0	0	0	0	511	508	0	0	
7	0	0	0	0	513	507	0	0	
8	0	0	0	0	512	507	0	0	
9	0	0	0	0	513	510	0	0	
10	0	0	0	0	511	508	0	0	
11	0	0	0	0	510	509	0	0	
12	0	0	0	0	510	508	0	0	
13	0	0	0	0	511	508	0	0	
14	0	0	0	0	511	507	0	0	
15	0	0	0	0	512	508	0	0	
0	0	0	0	0	509	506	0	0	
1	0	0	0	0	513	507	0	0	
2	0	0	0	0	509	509	0	0	
3	0	0	0	0	511	507	0	0	
4	0	0	0	0	510	508	0	0	
5	0	0	0	0	511	509	0	0	
6	0	0	0	0	513	509	0	0	
7	0	0	0	0	512	508	0	0	
8	0	0	0	0	511	509	0	0	
9	0	0	0	0	511	510	0	0	
10	0	0	0	0	512	507	0	0	
11	0	0	0	0	511	509	0	0	
12	0	0	0	0	511	508	0	0	
13	0	0	0	0	513	508	0	0	
14	0	0	0	0	512	508	0	0	
15	0	0	0	0	511	508	0	0	
0	0	0	0	0	510	508	0	0	
1	0	0	0	0	511	509	0	0	
2	0	0	0	0	508	508	0	0	
3	0	0	0	0	510	507	0	0	
4	0	0	0	0	511	508	0	0	
5	0	0	0	0	511	508	0	0	
6	0	0	0	0	510	508	0	0	
7	0	0	0	0	510	507	0	0	
8	0	0	0	0	511	507	0	0	
9	0	0	0	0	511	508	0	0	
10	0	0	0	0	511	509	0	0	
11	0	0	0	0	514	507	0	0	
12	0	0	0	0	513	508	0	0	
13	0	0	0	0	513	510	0	0	
14	0	0	0	0	514	507	0	0	
15	0	0	0	0	514	508	0	0	
0	0	0	0	0	511	507	0	0	
1	0	0	0	0	512	507	0	0	
2	0	0	0	0	512	507	0	0	
3	0	0	0	0	510	508	0	0	
4	0	0	0	0	508	508	0	0	
5	0	0	0	0	509	507	0	0	
6	0	0	0	0	510	509	0	0	
7	0	0	0	0	509	508	0	0	
8	0	0	0	0	509	507	0	0	
9	0	0	0	0	509	508	0	0	
10	0	0	0	0	511	507	0	0	
11	0	0	0	0	508	510	0	0	
12	0	0	0	0	512	508	0	0	
13	0	0	0	0	512	505	0	0	
14	0	0	0	0	513	507	0	0	
15	0	0	0	0	513	506	0	0	
0	0	0	0	0	511	508	0	0	
1	0	0	0	0	511	510	0	0	
2	0	0	0	0	512	510	0	0	
3	0	0	0	0	511	507	0	0	
4	0	0	0	0	511	508	0	0	
5	0	0	0	0	510	508	0	0	
6	0	0	0	0	512	508	0	0	
7	0	0	0	0	510	508	0	0	
8	0	0	0	0	513	506	0	0	
9	0	0	0	0	510	508	0	0	
10	0	0	0	0	510	509	0	0	
11	0	0	0	0	509	510	0	0	
12	0	0	0	0	509	510	0	0	
13	0	0	0	0	511	508	0	0	
14	0	0	0	0	511	507	0	0	
15	0	0	0	0	511	507	0	0	
0	0	0	0	0	508	506	0	0	
1	0	0	0	0	511	507	0	0	
2	0	0	0	0	512	508	0	0	
3	0	0	0	0	511	507	0	0	
4	0	0	0	0	514	507	0	0	
5	0	0	0	0	514	509	0	0	
6	0	0	0	0	513	510	0	0	
7	0	0	0	0	511	510	0	0	
8	0	0	0	0	513	508	0	0	
9	0	0	0	0	512	508	0	0	
10	0	0	0	0	511	508	0	0	
11	0	0	0	0	510	509	0	0	
12	0	0	0	0	511	508	0	0	
13	0	0	0	0	507	507	0	0	
14	0	0	0	0	511	508	0	0	
15	0	0	0	0	511	508	0	0	
0	0	0	0	0	508	506	0	0	
1	0	0	0	0	511	508	0	0	
2	0	0	0	0	510	507	0	0	
3	0	0	0	0	507	508	0	0	
4	0	0	0	0	511	508	0	0	
5	0	0	0	0	511	508	0	0	
6	0	0	0	0	512	508	0	0	
7	0	0	0	0	513	508	0	0	
8	0	0	0	0	512	509	0	0	
9	0	0	0	0	512	508	0	0	
10	0	0	0	0	514	509	0	0	
11	0	0	0	0	513	507	0	0	
12	0	0	0	0	513	508	0	0	
13	0	0	0	0	510	507	0	0	
14	0	0	0	0	512	507	0	0	
15	0	0	0	0	510	509	0	0	
0	0	0	0	0	509	506	0	0	
1	0	0	0	0	510	507	0	0	
2	0	0	0	0	508	507	0	0	
3	0	0	0	0	508	509	0	0	
4	0	0	0	0	510	508	0	0	
5	0	0	0	0	511	508	0	0	
6	0	0	0	0	510	507	0	0	
7	0	0	0	0	511	509	0	0	
8	0	0	0	0	511	508	0	0	
9	0	0	0	0	511	508	0	0	
10	0	0	0	0	512	507	0	0	
11	0	0	0	0	513	508	0	0	
12	0	0	0	0	514	510	0	0	
13	0	0	0	0	513	508	0	0	
14	0	0	0	0	512	509	0	0	
15	0	0	0	0	511	508	0	0	
0	0	0	0	0	512	506	0	0	
1	0	0	0	0	512	507	0	0	
2	0	0	0	0	511	508	0	0	
3	0	0	0	0	511	509	0	0	
4	0	0	0	0	510	507	0	0	
5	0	0	0	0	510	508	0	0	
6	0	0	0	0	511	507	0	0	
7	0	0	0	0	509	510	0	0	
8	0	0	0	0	510	510	0	0	
9	0	0	0	0	510	508	0	0	
10	0	0	0	0	510	508	0	0	
11	0	0	0	0	511	507	0	0	
12	0	0	0	0	511	508	0	0	
13	0	0	0	0	513	507	0	0	
14	0	0	0	0	513	510	0	0	
15	0	0	0	0	513	507	0	0	
0	0	0	0	0	513	508	0	0	
1	0	0	0	0	513	508	0	0	
2	0	0	0	0	511	506	0	0	
3	0	0	0	0	512	507	0	0	
4	0	0	0	0	512	510	0	0	
5	0	0	0	0	512	509	0	0	
6	0	0	0	0	511	509	0	0	
7	0	0	0	0	512	510	0	0	
8	0	0	0	0	509	507	0	0	
9	0	0	0	0	510	506	0	0	
10	0	0	0	0	510	509	0	0	
11	0	0	0	0	508	508	0	0	
12	0	0	0	0	508	507	0	0	
13	0	0	0	0	509	509	0	0	
14	0	0	0	0	509	510	0	0	
15	0	0	0	0	509	507	0	0	
0	0	0	0	0	513	508	0	0	
1	0	0	0	0	511	507	0	0	
2	0	0	0	0	512	509	0	0	
3	0	0	0	0	511	508	0	0	
4	0	0	0	0	512	509	0	0	
5	0	0	0	0	514	508	0	0	
6	0	0	0	0	512	508	0	0	
7	0	0	0	0	511	509	0	0	
8	0	0	0	0	512	508	0	0	
9	0	0	0	0	512	506	0	0	
10	0	0	0	0	512	509	0	0	
11	0	0	0	0	508	508	0	0	
12	0	0	0	0	510	506	0	0	
13	0	0	0	0	508	507	0	0	
14	0	0	0	0	508	509	0	0	
15	0	0	0	0	510	508	0	0	
0	0	0	0	0	510	508	0	0	
1	0	0	0	0	509	508	0	0	
2	0	0	0	0	511	508	0	0	
3	0	0	0	0	510	508	0	0	
4	0	0	0	0	512	507	0	0	
5	0	0	0	0	512	508	0	0	
6	0	0	0	0	512	508	0	0	
7	0	0	0	0	515	508	0	0	
8	0	0	0	0	513	508	0	0	
9	0	0	0	0	511	508	0	0	
10	0	0	0	0	512	509	0	0	
11	0	0	0	0	512	508	0	0	
12	0	0	0	0	513	508	0	0	
13	0	0	0	0	512	508	0	0	
14	0	0	0	0	511	508	0	0	
15	0	0	0	0	512	508	0	0	
0	0	0	0	0	511	507	0	0	
1	0	0	0	0	510	506	0	0	
2	0	0	0	0	511	508	0	0	
3	0	0	0	0	511	508	0	0	
4	0	0	0	0	508	509	0	0	
5	0	0	0	0	508	508	0	0	
6	0	0	0	0	509	507	0	0	
7	0	0	0	0	511	509	0	0	
8	0	0	0	0	509	508	0	0	
9	0	0	0	0	511	508	0	0	
10	0	0	0	0	512	506	0	0	
11	0	0	0	0	512	507	0	0	
12	0	0	0	0	516	507	0	0	
13	0	0	0	0	514	508	0	0	
14	0	0	0	0	512	508	0	0	
15	0	0	0	0	514	507	0	0	
0	0	0	0	0	511	507	0	0	
1	0	0	0	0	512	509	0	0	
2	0	0	0	0	511	511	0	0	
3	0	0	0	0	508	508	0	0	
4	0	0	0	0	508	510	0	0	
5	0	0	0	0	508	508	0	0	
6	0	0	0	0	510	508	0	0	
7	0	0	0	0	509	507	0	0	
8	0	0	0	0	511	508	0	0	
9	0	0	0	0	510	508	0	0	
10	0	0	0	0	511	509	0	0	
11	0	0	0	0	510	507	0	0	
12	0	0	0	0	513	508	0	0	
13	0	0	0	0	511	507	0	0	
14	0	0	0	0	512	508	0	0	
15	0	0	0	0	513	506	0	0	
0	0	0	0	0	513	507	0	0	
1	0	0	0	0	513	508	0	0	
2	0	0	0	0	512	508	0	0	
3	0	0	0	0	513	507	0	0	
4	0	0	0	0	512	509	0	0	
5	0	0	0	0	512	508	0	0	
6	0	0	0	0	510	508	0	0	
7	0	0	0	0	511	508	0	0	
8	0	0	0	0	510	508	0	0	
9	0	0	0	0	509	508	0	0	
10	0	0	0	0	508	508	0	0	
11	0	0	0	0	508	508	0	0	
12	0	0	0	0	508	508	0	0	
13	0	0	0	0	511	508	0	0	
14	0	0	0	0	511	508	0	0	
15	0	0	0	0	511	508	0	0	
0	0	0	0	0	511	509	0	0	
1	0	0	0	0	512	507	0	0	
2	0	0	0	0	513	507	0	0	
3	0	0	0	0	512	507	0	0	
4	0	0	0	0	511	509	0	0	
5	0	0	0	0	512	507	0	0	
6	0	0	0	0	512	507	0	0	
7	0	0	0	0	511	508	0	0	
8	0	0	0	0	512	507	0	0	
9	0	0	0	0	511	508	0	0	
10	0	0	0	0	513	508	0	0	
11	0	0	0	0	511	510	0	0	
12	0	0	0	0	508	508	0	0	
13	0	0	0	0	509	508	0	0	
14	0	0	0	0	510	508	0	0	
15	0	0	0	0	508	508	0	0	
0	0	0	0	0	509	508	0	0	
1	0	0	0	0	510	508	0	0	
2	0	0	0	0	512	508	0	0	
3	0	0	0	0	512	508	0	0	
4	0	0	0	0	512	508	0	0	
5	0	0	0	0	513	507	0	0	
6	0	0	0	0	513	508	0	0	
7	0	0	0	0	512	509	0	0	
8	0	0	0	0	511	507	0	0	
9	0	0	0	0	513	508	0	0	
10	0	0	0	0	511	509	0	0	
11	0	0	0	0	509	507	0	0	
12	0	0	0	0	508	507	0	0	
13	0	0	0	0	510	508	0	0	
14	0	0	0	0	511	508	0	0	
15	0	0	0	0	508	505	0	0	
0	0	0	0	0	511	509	0	0	
1	0	0	0	0	509	507	0	0	
2	0	0	0	0	511	510	0	0	
3	0	0	0	0	512	509	0	0	
4	0	0	0	0	511	507	0	0	
5	0	0	0	0	510	508	0	0	
6	0	0	0	0	512	509	0	0	
7	0	0	0	0	512	509	0	0	
8	0	0	0	0	512	507	0	0	
9	0	0	0	0	511	508	0	0	
10	0	0	0	0	511	508	0	0	
11	0	0	0	0	510	508	0	0	
12	0	0	0	0	512	508	0	0	
13	0	0	0	0	511	508	0	0	
14	0	0	0	0	513	509	0	0	
15	0	0	0	0	512	509	0	0	
0	0	0	0	0	512	508	0	0	
1	0	0	0	0	514	505	0	0	
2	0	0	0	0	512	507	0	0	
3	0	0	0	0	512	508	0	0	
4	0	0	0	0	512	508	0	0	
5	0	0	0	0	509	508	0	0	
6	0	0	0	0	510	509	0	0	
7	0	0	0	0	509	508	0	0	
8	0	0	0	0	508	508	0	0	
9	0	0	0	0	509	507	0	0	
10	0	0	0	0	511	507	0	0	
11	0	0	0	0	511	508	0	0	
12	0	0	0	0	513	505	0	0	
13	0	0	0	0	512	506	0	0	
14	0	0	0	0	511	509	0	0	
15	0	0	0	0	512	509	0	0	
0	0	0	0	0	512	509	0	0	
1	0	0	0	0	512	508	0	0	
2	0	0	0	0	511	508	0	0	
3	0	0	0	0	511	508	0	0	
4	0	0	0	0	512	508	0	0	
5	0	0	0	0	512	510	0	0	
6	0	0	0	0	511	509	0	0	
7	0	0	0	0	511	508	0	0	
8	0	0	0	0	511	508	0	0	
9	0	0	0	0	509	508	0	0	
10	0	0	0	0	511	508	0	0	
11	0	0	0	0	509	508	0	0	
12	0	0	0	0	510	508	0	0	
13	0	0	0	0	509	508	0	0	
14	0	0	0	0	512	509	0	0	
15	0	0	0	0	511	509	0	0	
0	0	0	0	0	511	508	0	0	
1	0	0	0	0	511	508	0	0	
2	0	0	0	0	512	507	0	0	
3	0	0	0	0	513	508	0	0	
4	0	0	0	0	513	506	0	0	
5	0	0	0	0	512	507	0	0	
6	0	0	0	0	513	508	0	0	
7	0	0	0	0	512	508	0	0	
8	0	0	0	0	510	508	0	0	
9	0	0	0	0	512	510	0	0	
10	0	0	0	0	510	507	0	0	
11	0	0	0	0	509	507	0	0	
12	0	0	0	0	510	507	0	0	
13	0	0	0	0	510	508	0	0	
14	0	0	0	0	508	508	0	0	
15	0	0	0	0	511	508	0	0	
0	0	0	0	0	510	507	0	0	
1	0	0	0	0	509	505	0	0	
2	0	0	0	0	511	510	0	0	
3	0	0	0	0	512	509	0	0	
4	0	0	0	0	512	507	0	0	
5	0	0	0	0	512	507	0	0	
6	0	0	0	0	512	509	0	0	
7	0	0	0	0	512	507	0	0	
8	0	0	0	0	513	509	0	0	
9	0	0	0	0	513	508	0	0	
10	0	0	0	0	511	509	0	0	
11	0	0	0	0	511	508	0	0	
12	0	0	0	0	511	508	0	0	
13	0	0	0	0	511	510	0	0	
14	0	0	0	0	512	511	0	0	
15	0	0	0	0	511	509	0	0	
0	0	0	0	0	510	507	0	0	
1	0	0	0	0	509	508	0	0	
2	0	0	0	0	510	505	0	0	
3	0	0	0	0	510	507	0	0	
4	0	0	0	0	511	508	0	0	
5	0	0	0	0	509	508	0	0	
6	0	0	0	0	509	508	0	0	
7	0	0	0	0	508	509	0	0	
8	0	0	0	0	512	507	0	0	
9	0	0	0	0	513	508	0	0	
10	0	0	0	0	513	507	0	0	
11	0	0	0	0	514	509	0	0	
12	0	0	0	0	512	508	0	0	
13	0	0	0	0	512	510	0	0	
14	0	0	0	0	513	508	0	0	
15	0	0	0	0	512	507	0	0	
0	0	0	0	0	510	508	0	0	
1	0	0	0	0	511	508	0	0	
2	0	0	0	0	511	508	0	0	
3	0	0	0	0	509	508	0	0	
4	0	0	0	0	512	507	0	0	
5	0	0	0	0	511	507	0	0	
6	0	0	0	0	510	507	0	0	
7	0	0	0	0	507	508	0	0	
8	0	0	0	0	508	508	0	0	
9	0	0	0	0	510	508	0	0	
10	0	0	0	0	511	509	0	0	
11	0	0	0	0	512	507	0	0	
12	0	0	0	0	510	508	0	0	
13	0	0	0	0	511	507	0	0	
14	0	0	0	0	510	509	0	0	
15	0	0	0	0	512	510	0	0	
0	0	0	0	0	513	509	0	0	
1	0	0	0	0	513	509	0	0	
2	0	0	0	0	513	507	0	0	
3	0	0	0	0	513	508	0	0	
4	0	0	0	0	513	507	0	0	
5	0	0	0	0	512	509	0	0	
6	0	0	0	0	511	508	0	0	
7	0	0	0	0	510	508	0	0	
8	0	0	0	0	509	509	0	0	
9	0	0	0	0	508	508	0	0	
10	0	0	0	0	512	508	0	0	
11	0	0	0	0	508	507	0	0	
12	0	0	0	0	509	507	0	0	
13	0	0	0	0	509	507	0	0	
14	0	0	0	0	510	506	0	0	
15	0	0	0	0	511	509	0	0	
0	0	0	0	0	511	510	0	0	
1	0	0	0	0	511	507	0	0	
2	0	0	0	0	512	507	0	0	
3	0	0	0	0	513	509	0	0	
4	0	0	0	0	514	507	0	0	
5	0	0	0	0	514	508	0	0	
6	0	0	0	0	515	508	0	0	
7	0	0	0	0	511	508	0	0	
8	0	0	0	0	513	510	0	0	
9	0	0	0	0	512	509	0	0	
10	0	0	0	0	511	507	0	0	
11	0	0	0	0	510	508	0	0	
12	0	0	0	0	508	508	0	0	
13	0	0	0	0	510	508	0	0	
14	0	0	0	0	509	508	0	0	
15	0	0	0	0	510	508	0	0	
0	0	0	0	0	509	508	0	0	
1	0	0	0	0	509	508	0	0	
2	0	0	0	0	511	508	0	0	
3	0	0	0	0	511	507	0	0	
4	0	0	0	0	511	508	0	0	
5	0	0	0	0	510	509	0	0	
6	0	0	0	0	512	508	0	0	
7	0	0	0	0	512	508	0	0	
8	0	0	0	0	512	509	0	0	
9	0	0	0	0	512	509	0	0	
10	0	0	0	0	512	510	0	0	
11	0	0	0	0	514	508	0	0	
12	0	0	0	0	512	507	0	0	
13	0	0	0	0	512	509	0	0	
14	0	0	0	0	511	506	0	0	
15	0	0	0	0	511	508	0	0	
0	0	0	0	0	508	508	0	0	
1	0	0	0	0	510	506	0	0	
2	0	0	0	0	509	508	0	0	
3	0	0	0	0	509	508	0	0	
4	0	0	0	0	510	510	0	0	
5	0	0	0	0	510	509	0	0	
6	0	0	0	0	508	506	0	0	
7	0	0	0	0	511	507	0	0	
8	0	0	0	0	512	509	0	0	
9	0	0	0	0	510	508	0	0	
10	0	0	0	0	512	508	0	0	
11	0	0	0	0	512	509	0	0	
12	0	0	0	0	513	508	0	0	
13	0	0	0	0	515	508	0	0	
14	0	0	0	0	513	508	0	0	
15	0	0	0	0	511	508	0	0	
0	0	0	0	0	508	508	0	0	
1	0	0	0	0	510	508	0	0	
2	0	0	0	0	512	507	0	0	
3	0	0	0	0	511	509	0	0	
4	0	0	0	0	510	507	0	0	
5	0	0	0	0	509	506	0	0	
6	0	0	0	0	507	508	0	0	
7	0	0	0	0	511	510	0	0	
8	0	0	0	0	509	509	0	0	
9	0	0	0	0	509	507	0	0	
10	0	0	0	0	511	507	0	0	
