# OpenSignals Text File Format. Version 1
# {"20:18:06:13:21:78": {"position": 0, "device": "bitalino_rev", "device name": "20:18:06:13:21:78", "device connection": "BTH20:18:06:13:21:78", "sampling rate": 1000, "resolution": [4, 1, 1, 1, 1, 10, 10, 10, 10], "firmware version": 1281, "comments": "", "keywords": "", "mode": 0, "sync interval": 2, "date": "2023-6-5", "time": "19:36:6.274", "channels": [1, 2, 3, 4], "sensor": ["EMGBITREV", "EMGBITREV", "RAW", "RAW"], "label": ["A1", "A2", "A3", "A4"], "column": ["nSeq", "I1", "I2", "O1", "O2", "A1", "A2", "A3", "A4"], "special": [{}, {}, {}, {}], "digital IO": [0, 0, 1, 1]}}
# EndOfHeader
0	0	0	0	0	512	510	0	0	
1	0	0	0	0	511	508	0	0	
2	0	0	0	0	512	507	0	0	
3	0	0	0	0	511	508	0	0	
4	0	0	0	0	513	508	0	0	
5	0	0	0	0	511	508	0	0	
6	0	0	0	0	512	507	0	0	
7	0	0	0	0	513	506	0	0	
8	0	0	0	0	512	505	0	0	
9	0	0	0	0	514	507	0	0	
10	0	0	0	0	513	508	0	0	
11	0	0	0	0	512	507	0	0	
12	0	0	0	0	511	508	0	0	
13	0	0	0	0	510	510	0	0	
14	0	0	0	0	508	509	0	0	
15	0	0	0	0	509	508	0	0	
0	0	0	0	0	511	510	0	0	
1	0	0	0	0	508	509	0	0	
2	0	0	0	0	510	509	0	0	
3	0	0	0	0	509	508	0	0	
4	0	0	0	0	510	509	0	0	
5	0	0	0	0	510	507	0	0	
6	0	0	0	0	511	508	0	0	
7	0	0	0	0	511	507	0	0	
8	0	0	0	0	513	507	0	0	
9	0	0	0	0	513	507	0	0	
10	0	0	0	0	512	507	0	0	
11	0	0	0	0	511	507	0	0	
12	0	0	0	0	512	507	0	0	
13	0	0	0	0	513	507	0	0	
14	0	0	0	0	513	507	0	0	
15	0	0	0	0	513	508	0	0	
0	0	0	0	0	511	508	0	0	
1	0	0	0	0	507	508	0	0	
2	0	0	0	0	507	507	0	0	
3	0	0	0	0	510	510	0	0	
4	0	0	0	0	508	508	0	0	
5	0	0	0	0	508	509	0	0	
6	0	0	0	0	509	509	0	0	
7	0	0	0	0	510	509	0	0	
8	0	0	0	0	511	508	0	0	
9	0	0	0	0	512	508	0	0	
10	0	0	0	0	512	508	0	0	
11	0	0	0	0	513	509	0	0	
12	0	0	0	0	515	504	0	0	
13	0	0	0	0	515	508	0	0	
14	0	0	0	0	513	506	0	0	
15	0	0	0	0	514	507	0	0	
0	0	0	0	0	511	509	0	0	
1	0	0	0	0	514	506	0	0	
2	0	0	0	0	512	509	0	0	
3	0	0	0	0	510	508	0	0	
4	0	0	0	0	508	507	0	0	
5	0	0	0	0	509	509	0	0	
6	0	0	0	0	509	507	0	0	
7	0	0	0	0	509	508	0	0	
8	0	0	0	0	508	509	0	0	
9	0	0	0	0	508	509	0	0	
10	0	0	0	0	508	508	0	0	
11	0	0	0	0	508	509	0	0	
12	0	0	0	0	508	508	0	0	
13	0	0	0	0	511	509	0	0	
14	0	0	0	0	513	508	0	0	
15	0	0	0	0	512	507	0	0	
0	0	0	0	0	512	507	0	0	
1	0	0	0	0	512	508	0	0	
2	0	0	0	0	513	507	0	0	
3	0	0	0	0	512	507	0	0	
4	0	0	0	0	514	508	0	0	
5	0	0	0	0	512	506	0	0	
6	0	0	0	0	513	506	0	0	
7	0	0	0	0	511	509	0	0	
8	0	0	0	0	508	507	0	0	
9	0	0	0	0	509	511	0	0	
10	0	0	0	0	509	508	0	0	
11	0	0	0	0	510	508	0	0	
12	0	0	0	0	509	509	0	0	
13	0	0	0	0	509	510	0	0	
14	0	0	0	0	511	508	0	0	
15	0	0	0	0	510	509	0	0	
0	0	0	0	0	511	506	0	0	
1	0	0	0	0	513	510	0	0	
2	0	0	0	0	511	509	0	0	
3	0	0	0	0	512	505	0	0	
4	0	0	0	0	513	508	0	0	
5	0	0	0	0	512	508	0	0	
6	0	0	0	0	513	507	0	0	
7	0	0	0	0	513	507	0	0	
8	0	0	0	0	512	507	0	0	
9	0	0	0	0	511	507	0	0	
10	0	0	0	0	511	508	0	0	
11	0	0	0	0	512	510	0	0	
12	0	0	0	0	511	509	0	0	
13	0	0	0	0	511	508	0	0	
14	0	0	0	0	509	507	0	0	
15	0	0	0	0	510	509	0	0	
0	0	0	0	0	510	509	0	0	
1	0	0	0	0	509	509	0	0	
2	0	0	0	0	510	510	0	0	
3	0	0	0	0	509	509	0	0	
4	0	0	0	0	510	508	0	0	
5	0	0	0	0	511	507	0	0	
6	0	0	0	0	511	505	0	0	
7	0	0	0	0	515	508	0	0	
8	0	0	0	0	512	508	0	0	
9	0	0	0	0	512	507	0	0	
10	0	0	0	0	512	507	0	0	
11	0	0	0	0	514	510	0	0	
12	0	0	0	0	514	507	0	0	
13	0	0	0	0	512	508	0	0	
14	0	0	0	0	512	507	0	0	
15	0	0	0	0	512	505	0	0	
0	0	0	0	0	511	509	0	0	
1	0	0	0	0	507	507	0	0	
2	0	0	0	0	507	510	0	0	
3	0	0	0	0	508	510	0	0	
4	0	0	0	0	508	510	0	0	
5	0	0	0	0	508	509	0	0	
6	0	0	0	0	511	508	0	0	
7	0	0	0	0	510	507	0	0	
8	0	0	0	0	511	508	0	0	
9	0	0	0	0	511	510	0	0	
10	0	0	0	0	511	509	0	0	
11	0	0	0	0	513	507	0	0	
12	0	0	0	0	510	508	0	0	
13	0	0	0	0	512	508	0	0	
14	0	0	0	0	514	507	0	0	
15	0	0	0	0	515	507	0	0	
0	0	0	0	0	511	506	0	0	
1	0	0	0	0	512	508	0	0	
2	0	0	0	0	510	508	0	0	
3	0	0	0	0	511	507	0	0	
4	0	0	0	0	510	506	0	0	
5	0	0	0	0	509	508	0	0	
6	0	0	0	0	507	508	0	0	
7	0	0	0	0	509	508	0	0	
8	0	0	0	0	509	509	0	0	
9	0	0	0	0	512	511	0	0	
10	0	0	0	0	510	509	0	0	
11	0	0	0	0	512	508	0	0	
12	0	0	0	0	511	508	0	0	
13	0	0	0	0	512	509	0	0	
14	0	0	0	0	511	510	0	0	
15	0	0	0	0	511	508	0	0	
0	0	0	0	0	512	507	0	0	
1	0	0	0	0	512	507	0	0	
2	0	0	0	0	514	506	0	0	
3	0	0	0	0	515	506	0	0	
4	0	0	0	0	513	508	0	0	
5	0	0	0	0	515	509	0	0	
6	0	0	0	0	510	506	0	0	
7	0	0	0	0	512	508	0	0	
8	0	0	0	0	512	508	0	0	
9	0	0	0	0	510	508	0	0	
10	0	0	0	0	509	508	0	0	
11	0	0	0	0	508	509	0	0	
12	0	0	0	0	510	510	0	0	
13	0	0	0	0	510	509	0	0	
14	0	0	0	0	509	508	0	0	
15	0	0	0	0	511	507	0	0	
0	0	0	0	0	511	509	0	0	
1	0	0	0	0	510	508	0	0	
2	0	0	0	0	509	508	0	0	
3	0	0	0	0	513	506	0	0	
4	0	0	0	0	510	509	0	0	
5	0	0	0	0	512	508	0	0	
6	0	0	0	0	512	507	0	0	
7	0	0	0	0	512	507	0	0	
8	0	0	0	0	513	509	0	0	
9	0	0	0	0	514	509	0	0	
10	0	0	0	0	511	507	0	0	
11	0	0	0	0	510	507	0	0	
12	0	0	0	0	509	508	0	0	
13	0	0	0	0	510	507	0	0	
14	0	0	0	0	511	508	0	0	
15	0	0	0	0	509	508	0	0	
0	0	0	0	0	511	509	0	0	
1	0	0	0	0	508	509	0	0	
2	0	0	0	0	510	510	0	0	
3	0	0	0	0	511	508	0	0	
4	0	0	0	0	510	508	0	0	
5	0	0	0	0	512	505	0	0	
6	0	0	0	0	511	510	0	0	
7	0	0	0	0	513	507	0	0	
8	0	0	0	0	515	507	0	0	
9	0	0	0	0	514	508	0	0	
10	0	0	0	0	512	508	0	0	
11	0	0	0	0	514	507	0	0	
12	0	0	0	0	512	508	0	0	
13	0	0	0	0	513	507	0	0	
14	0	0	0	0	512	505	0	0	
15	0	0	0	0	510	507	0	0	
0	0	0	0	0	509	508	0	0	
1	0	0	0	0	510	510	0	0	
2	0	0	0	0	510	510	0	0	
3	0	0	0	0	510	510	0	0	
4	0	0	0	0	509	508	0	0	
5	0	0	0	0	510	509	0	0	
6	0	0	0	0	511	510	0	0	
7	0	0	0	0	512	508	0	0	
8	0	0	0	0	510	506	0	0	
9	0	0	0	0	510	508	0	0	
10	0	0	0	0	512	508	0	0	
11	0	0	0	0	511	510	0	0	
12	0	0	0	0	513	508	0	0	
13	0	0	0	0	511	506	0	0	
14	0	0	0	0	513	507	0	0	
15	0	0	0	0	512	508	0	0	
0	0	0	0	0	512	507	0	0	
1	0	0	0	0	511	507	0	0	
2	0	0	0	0	511	507	0	0	
3	0	0	0	0	511	508	0	0	
4	0	0	0	0	509	508	0	0	
5	0	0	0	0	510	508	0	0	
6	0	0	0	0	510	509	0	0	
7	0	0	0	0	511	509	0	0	
8	0	0	0	0	507	510	0	0	
9	0	0	0	0	509	507	0	0	
10	0	0	0	0	511	510	0	0	
11	0	0	0	0	511	509	0	0	
12	0	0	0	0	511	509	0	0	
13	0	0	0	0	509	509	0	0	
14	0	0	0	0	512	506	0	0	
15	0	0	0	0	512	508	0	0	
0	0	0	0	0	512	508	0	0	
1	0	0	0	0	512	506	0	0	
2	0	0	0	0	513	508	0	0	
3	0	0	0	0	513	505	0	0	
4	0	0	0	0	512	506	0	0	
5	0	0	0	0	511	508	0	0	
6	0	0	0	0	511	508	0	0	
7	0	0	0	0	512	507	0	0	
8	0	0	0	0	509	507	0	0	
9	0	0	0	0	509	508	0	0	
10	0	0	0	0	510	508	0	0	
11	0	0	0	0	511	509	0	0	
12	0	0	0	0	510	508	0	0	
13	0	0	0	0	511	509	0	0	
14	0	0	0	0	507	508	0	0	
15	0	0	0	0	511	510	0	0	
0	0	0	0	0	511	508	0	0	
1	0	0	0	0	512	509	0	0	
2	0	0	0	0	511	508	0	0	
3	0	0	0	0	511	508	0	0	
4	0	0	0	0	511	508	0	0	
5	0	0	0	0	513	507	0	0	
6	0	0	0	0	510	506	0	0	
7	0	0	0	0	512	507	0	0	
8	0	0	0	0	511	507	0	0	
9	0	0	0	0	512	507	0	0	
10	0	0	0	0	511	507	0	0	
11	0	0	0	0	511	507	0	0	
12	0	0	0	0	511	510	0	0	
13	0	0	0	0	511	507	0	0	
14	0	0	0	0	511	508	0	0	
15	0	0	0	0	509	508	0	0	
0	0	0	0	0	509	510	0	0	
1	0	0	0	0	509	510	0	0	
2	0	0	0	0	509	508	0	0	
3	0	0	0	0	510	510	0	0	
4	0	0	0	0	512	507	0	0	
5	0	0	0	0	513	507	0	0	
6	0	0	0	0	513	508	0	0	
7	0	0	0	0	511	508	0	0	
8	0	0	0	0	512	508	0	0	
9	0	0	0	0	513	507	0	0	
10	0	0	0	0	515	507	0	0	
11	0	0	0	0	513	506	0	0	
12	0	0	0	0	511	506	0	0	
13	0	0	0	0	513	509	0	0	
14	0	0	0	0	513	507	0	0	
15	0	0	0	0	510	508	0	0	
0	0	0	0	0	510	508	0	0	
1	0	0	0	0	511	509	0	0	
2	0	0	0	0	509	508	0	0	
3	0	0	0	0	509	510	0	0	
4	0	0	0	0	510	511	0	0	
5	0	0	0	0	509	510	0	0	
6	0	0	0	0	510	510	0	0	
7	0	0	0	0	510	509	0	0	
8	0	0	0	0	511	508	0	0	
9	0	0	0	0	511	508	0	0	
10	0	0	0	0	511	508	0	0	
11	0	0	0	0	513	507	0	0	
12	0	0	0	0	512	508	0	0	
13	0	0	0	0	511	506	0	0	
14	0	0	0	0	513	507	0	0	
15	0	0	0	0	513	506	0	0	
0	0	0	0	0	510	506	0	0	
1	0	0	0	0	511	506	0	0	
2	0	0	0	0	510	507	0	0	
3	0	0	0	0	511	508	0	0	
4	0	0	0	0	509	509	0	0	
5	0	0	0	0	510	510	0	0	
6	0	0	0	0	508	508	0	0	
7	0	0	0	0	509	509	0	0	
8	0	0	0	0	510	508	0	0	
9	0	0	0	0	510	512	0	0	
10	0	0	0	0	510	509	0	0	
11	0	0	0	0	509	509	0	0	
12	0	0	0	0	509	508	0	0	
13	0	0	0	0	511	507	0	0	
14	0	0	0	0	511	506	0	0	
15	0	0	0	0	511	508	0	0	
0	0	0	0	0	513	508	0	0	
1	0	0	0	0	511	508	0	0	
2	0	0	0	0	516	507	0	0	
3	0	0	0	0	514	507	0	0	
4	0	0	0	0	512	507	0	0	
5	0	0	0	0	514	506	0	0	
6	0	0	0	0	513	507	0	0	
7	0	0	0	0	510	507	0	0	
8	0	0	0	0	511	503	0	0	
9	0	0	0	0	512	509	0	0	
10	0	0	0	0	511	510	0	0	
11	0	0	0	0	509	510	0	0	
12	0	0	0	0	510	510	0	0	
13	0	0	0	0	510	510	0	0	
14	0	0	0	0	511	509	0	0	
15	0	0	0	0	509	509	0	0	
0	0	0	0	0	512	508	0	0	
1	0	0	0	0	511	507	0	0	
2	0	0	0	0	512	509	0	0	
3	0	0	0	0	511	508	0	0	
4	0	0	0	0	512	505	0	0	
5	0	0	0	0	514	508	0	0	
6	0	0	0	0	511	506	0	0	
7	0	0	0	0	513	506	0	0	
8	0	0	0	0	510	506	0	0	
9	0	0	0	0	512	505	0	0	
10	0	0	0	0	511	506	0	0	
11	0	0	0	0	511	508	0	0	
12	0	0	0	0	510	507	0	0	
13	0	0	0	0	511	510	0	0	
14	0	0	0	0	508	510	0	0	
15	0	0	0	0	508	508	0	0	
0	0	0	0	0	508	510	0	0	
1	0	0	0	0	508	509	0	0	
2	0	0	0	0	511	510	0	0	
3	0	0	0	0	510	509	0	0	
4	0	0	0	0	512	509	0	0	
5	0	0	0	0	509	509	0	0	
6	0	0	0	0	511	506	0	0	
7	0	0	0	0	513	507	0	0	
8	0	0	0	0	515	506	0	0	
9	0	0	0	0	511	508	0	0	
10	0	0	0	0	512	507	0	0	
11	0	0	0	0	513	507	0	0	
12	0	0	0	0	513	507	0	0	
13	0	0	0	0	513	508	0	0	
14	0	0	0	0	511	507	0	0	
15	0	0	0	0	512	508	0	0	
0	0	0	0	0	512	508	0	0	
1	0	0	0	0	510	507	0	0	
2	0	0	0	0	510	508	0	0	
3	0	0	0	0	508	508	0	0	
4	0	0	0	0	508	508	0	0	
5	0	0	0	0	509	509	0	0	
6	0	0	0	0	510	509	0	0	
7	0	0	0	0	512	509	0	0	
8	0	0	0	0	512	507	0	0	
9	0	0	0	0	510	510	0	0	
10	0	0	0	0	513	508	0	0	
11	0	0	0	0	513	508	0	0	
12	0	0	0	0	512	509	0	0	
13	0	0	0	0	512	507	0	0	
14	0	0	0	0	512	506	0	0	
15	0	0	0	0	513	508	0	0	
0	0	0	0	0	514	504	0	0	
1	0	0	0	0	512	505	0	0	
2	0	0	0	0	512	508	0	0	
3	0	0	0	0	512	506	0	0	
4	0	0	0	0	511	507	0	0	
5	0	0	0	0	508	508	0	0	
6	0	0	0	0	510	510	0	0	
7	0	0	0	0	506	511	0	0	
8	0	0	0	0	509	508	0	0	
9	0	0	0	0	511	510	0	0	
10	0	0	0	0	512	511	0	0	
11	0	0	0	0	511	509	0	0	
12	0	0	0	0	511	507	0	0	
13	0	0	0	0	512	509	0	0	
14	0	0	0	0	511	509	0	0	
15	0	0	0	0	511	508	0	0	
0	0	0	0	0	513	505	0	0	
1	0	0	0	0	511	505	0	0	
2	0	0	0	0	512	507	0	0	
3	0	0	0	0	512	507	0	0	
4	0	0	0	0	512	507	0	0	
5	0	0	0	0	511	506	0	0	
6	0	0	0	0	510	508	0	0	
7	0	0	0	0	511	508	0	0	
8	0	0	0	0	510	508	0	0	
9	0	0	0	0	511	508	0	0	
10	0	0	0	0	510	508	0	0	
11	0	0	0	0	509	508	0	0	
12	0	0	0	0	511	509	0	0	
13	0	0	0	0	511	510	0	0	
14	0	0	0	0	509	510	0	0	
15	0	0	0	0	510	508	0	0	
0	0	0	0	0	511	507	0	0	
1	0	0	0	0	511	508	0	0	
2	0	0	0	0	512	507	0	0	
3	0	0	0	0	513	509	0	0	
4	0	0	0	0	510	510	0	0	
5	0	0	0	0	510	508	0	0	
6	0	0	0	0	513	506	0	0	
7	0	0	0	0	513	507	0	0	
8	0	0	0	0	513	508	0	0	
9	0	0	0	0	512	507	0	0	
10	0	0	0	0	512	508	0	0	
11	0	0	0	0	510	506	0	0	
12	0	0	0	0	511	510	0	0	
13	0	0	0	0	510	510	0	0	
14	0	0	0	0	508	509	0	0	
15	0	0	0	0	509	509	0	0	
0	0	0	0	0	508	510	0	0	
1	0	0	0	0	508	508	0	0	
2	0	0	0	0	511	509	0	0	
3	0	0	0	0	510	507	0	0	
4	0	0	0	0	510	510	0	0	
5	0	0	0	0	511	509	0	0	
6	0	0	0	0	511	507	0	0	
7	0	0	0	0	513	508	0	0	
8	0	0	0	0	513	505	0	0	
9	0	0	0	0	515	507	0	0	
10	0	0	0	0	511	506	0	0	
11	0	0	0	0	511	508	0	0	
12	0	0	0	0	511	508	0	0	
13	0	0	0	0	512	507	0	0	
14	0	0	0	0	512	506	0	0	
15	0	0	0	0	510	508	0	0	
0	0	0	0	0	511	508	0	0	
1	0	0	0	0	510	508	0	0	
2	0	0	0	0	510	509	0	0	
3	0	0	0	0	510	508	0	0	
4	0	0	0	0	509	508	0	0	
5	0	0	0	0	508	509	0	0	
6	0	0	0	0	511	509	0	0	
7	0	0	0	0	510	508	0	0	
8	0	0	0	0	512	510	0	0	
9	0	0	0	0	509	510	0	0	
10	0	0	0	0	512	508	0	0	
11	0	0	0	0	514	508	0	0	
12	0	0	0	0	511	507	0	0	
13	0	0	0	0	514	508	0	0	
14	0	0	0	0	513	507	0	0	
15	0	0	0	0	511	505	0	0	
0	0	0	0	0	513	505	0	0	
1	0	0	0	0	511	507	0	0	
2	0	0	0	0	512	507	0	0	
3	0	0	0	0	510	508	0	0	
4	0	0	0	0	511	506	0	0	
5	0	0	0	0	512	509	0	0	
6	0	0	0	0	510	509	0	0	
7	0	0	0	0	508	508	0	0	
8	0	0	0	0	508	510	0	0	
9	0	0	0	0	509	510	0	0	
10	0	0	0	0	510	507	0	0	
11	0	0	0	0	510	510	0	0	
12	0	0	0	0	513	511	0	0	
13	0	0	0	0	514	510	0	0	
14	0	0	0	0	513	510	0	0	
15	0	0	0	0	511	509	0	0	
0	0	0	0	0	512	508	0	0	
1	0	0	0	0	511	506	0	0	
2	0	0	0	0	511	506	0	0	
3	0	0	0	0	513	504	0	0	
4	0	0	0	0	514	506	0	0	
5	0	0	0	0	512	506	0	0	
6	0	0	0	0	511	508	0	0	
7	0	0	0	0	509	510	0	0	
8	0	0	0	0	511	507	0	0	
9	0	0	0	0	510	510	0	0	
10	0	0	0	0	508	508	0	0	
11	0	0	0	0	510	509	0	0	
12	0	0	0	0	509	510	0	0	
13	0	0	0	0	509	509	0	0	
14	0	0	0	0	510	508	0	0	
15	0	0	0	0	511	508	0	0	
0	0	0	0	0	510	507	0	0	
1	0	0	0	0	512	509	0	0	
2	0	0	0	0	512	508	0	0	
3	0	0	0	0	511	506	0	0	
4	0	0	0	0	509	508	0	0	
5	0	0	0	0	512	508	0	0	
6	0	0	0	0	512	508	0	0	
7	0	0	0	0	512	505	0	0	
8	0	0	0	0	513	508	0	0	
9	0	0	0	0	511	507	0	0	
10	0	0	0	0	511	508	0	0	
11	0	0	0	0	512	508	0	0	
12	0	0	0	0	510	509	0	0	
13	0	0	0	0	509	508	0	0	
14	0	0	0	0	508	510	0	0	
15	0	0	0	0	510	508	0	0	
0	0	0	0	0	510	511	0	0	
1	0	0	0	0	510	510	0	0	
2	0	0	0	0	512	508	0	0	
3	0	0	0	0	511	509	0	0	
4	0	0	0	0	511	508	0	0	
5	0	0	0	0	513	508	0	0	
6	0	0	0	0	511	508	0	0	
7	0	0	0	0	512	508	0	0	
8	0	0	0	0	510	508	0	0	
9	0	0	0	0	514	508	0	0	
10	0	0	0	0	512	505	0	0	
11	0	0	0	0	512	505	0	0	
12	0	0	0	0	514	507	0	0	
13	0	0	0	0	513	505	0	0	
14	0	0	0	0	513	506	0	0	
15	0	0	0	0	511	510	0	0	
0	0	0	0	0	510	508	0	0	
1	0	0	0	0	509	508	0	0	
2	0	0	0	0	508	508	0	0	
3	0	0	0	0	508	510	0	0	
4	0	0	0	0	510	509	0	0	
5	0	0	0	0	512	510	0	0	
6	0	0	0	0	512	508	0	0	
7	0	0	0	0	510	508	0	0	
8	0	0	0	0	511	508	0	0	
9	0	0	0	0	510	509	0	0	
10	0	0	0	0	511	509	0	0	
11	0	0	0	0	511	508	0	0	
12	0	0	0	0	509	507	0	0	
13	0	0	0	0	512	507	0	0	
14	0	0	0	0	513	508	0	0	
15	0	0	0	0	513	508	0	0	
0	0	0	0	0	512	506	0	0	
1	0	0	0	0	513	504	0	0	
2	0	0	0	0	511	506	0	0	
3	0	0	0	0	509	508	0	0	
4	0	0	0	0	511	509	0	0	
5	0	0	0	0	510	510	0	0	
6	0	0	0	0	509	511	0	0	
7	0	0	0	0	508	509	0	0	
8	0	0	0	0	509	508	0	0	
9	0	0	0	0	508	509	0	0	
10	0	0	0	0	510	509	0	0	
11	0	0	0	0	511	510	0	0	
12	0	0	0	0	512	508	0	0	
13	0	0	0	0	511	508	0	0	
14	0	0	0	0	513	509	0	0	
15	0	0	0	0	513	508	0	0	
0	0	0	0	0	514	507	0	0	
1	0	0	0	0	511	506	0	0	
2	0	0	0	0	513	508	0	0	
3	0	0	0	0	512	507	0	0	
4	0	0	0	0	511	505	0	0	
5	0	0	0	0	512	507	0	0	
6	0	0	0	0	512	508	0	0	
7	0	0	0	0	511	508	0	0	
8	0	0	0	0	510	509	0	0	
9	0	0	0	0	510	507	0	0	
10	0	0	0	0	510	508	0	0	
11	0	0	0	0	510	508	0	0	
12	0	0	0	0	511	511	0	0	
13	0	0	0	0	509	510	0	0	
14	0	0	0	0	511	511	0	0	
15	0	0	0	0	511	508	0	0	
0	0	0	0	0	510	510	0	0	
1	0	0	0	0	512	509	0	0	
2	0	0	0	0	513	508	0	0	
3	0	0	0	0	513	508	0	0	
4	0	0	0	0	513	507	0	0	
5	0	0	0	0	514	507	0	0	
6	0	0	0	0	511	506	0	0	
7	0	0	0	0	512	505	0	0	
8	0	0	0	0	513	507	0	0	
9	0	0	0	0	513	505	0	0	
10	0	0	0	0	510	507	0	0	
11	0	0	0	0	508	509	0	0	
12	0	0	0	0	509	509	0	0	
13	0	0	0	0	511	510	0	0	
14	0	0	0	0	508	510	0	0	
15	0	0	0	0	510	508	0	0	
0	0	0	0	0	507	508	0	0	
1	0	0	0	0	511	508	0	0	
2	0	0	0	0	509	508	0	0	
3	0	0	0	0	509	510	0	0	
4	0	0	0	0	511	509	0	0	
5	0	0	0	0	511	508	0	0	
6	0	0	0	0	511	507	0	0	
7	0	0	0	0	512	506	0	0	
8	0	0	0	0	513	508	0	0	
9	0	0	0	0	511	505	0	0	
10	0	0	0	0	515	505	0	0	
11	0	0	0	0	515	506	0	0	
12	0	0	0	0	513	508	0	0	
13	0	0	0	0	514	509	0	0	
14	0	0	0	0	511	507	0	0	
15	0	0	0	0	510	508	0	0	
0	0	0	0	0	510	508	0	0	
1	0	0	0	0	510	510	0	0	
2	0	0	0	0	510	510	0	0	
3	0	0	0	0	510	510	0	0	
4	0	0	0	0	508	510	0	0	
5	0	0	0	0	509	507	0	0	
6	0	0	0	0	510	509	0	0	
7	0	0	0	0	511	508	0	0	
8	0	0	0	0	511	507	0	0	
9	0	0	0	0	511	509	0	0	
10	0	0	0	0	512	509	0	0	
11	0	0	0	0	514	508	0	0	
12	0	0	0	0	511	506	0	0	
13	0	0	0	0	511	508	0	0	
14	0	0	0	0	513	507	0	0	
15	0	0	0	0	512	506	0	0	
0	0	0	0	0	513	507	0	0	
1	0	0	0	0	512	508	0	0	
2	0	0	0	0	511	508	0	0	
3	0	0	0	0	507	509	0	0	
4	0	0	0	0	509	509	0	0	
5	0	0	0	0	510	508	0	0	
6	0	0	0	0	509	507	0	0	
7	0	0	0	0	509	509	0	0	
8	0	0	0	0	509	510	0	0	
9	0	0	0	0	512	509	0	0	
10	0	0	0	0	509	510	0	0	
11	0	0	0	0	511	510	0	0	
12	0	0	0	0	511	508	0	0	
13	0	0	0	0	511	508	0	0	
14	0	0	0	0	511	508	0	0	
15	0	0	0	0	512	508	0	0	
0	0	0	0	0	512	507	0	0	
1	0	0	0	0	513	507	0	0	
2	0	0	0	0	515	506	0	0	
3	0	0	0	0	513	505	0	0	
4	0	0	0	0	513	507	0	0	
5	0	0	0	0	514	505	0	0	
6	0	0	0	0	514	508	0	0	
7	0	0	0	0	512	508	0	0	
8	0	0	0	0	511	508	0	0	
9	0	0	0	0	507	508	0	0	
10	0	0	0	0	507	510	0	0	
11	0	0	0	0	511	510	0	0	
12	0	0	0	0	509	509	0	0	
13	0	0	0	0	508	511	0	0	
14	0	0	0	0	509	509	0	0	
15	0	0	0	0	511	509	0	0	
0	0	0	0	0	510	508	0	0	
1	0	0	0	0	512	505	0	0	
2	0	0	0	0	512	508	0	0	
3	0	0	0	0	512	508	0	0	
4	0	0	0	0	512	508	0	0	
5	0	0	0	0	512	505	0	0	
6	0	0	0	0	512	507	0	0	
7	0	0	0	0	513	508	0	0	
8	0	0	0	0	511	507	0	0	
9	0	0	0	0	511	505	0	0	
10	0	0	0	0	510	505	0	0	
11	0	0	0	0	510	506	0	0	
12	0	0	0	0	510	509	0	0	
13	0	0	0	0	510	508	0	0	
14	0	0	0	0	511	507	0	0	
15	0	0	0	0	510	510	0	0	
0	0	0	0	0	508	508	0	0	
1	0	0	0	0	511	510	0	0	
2	0	0	0	0	511	510	0	0	
3	0	0	0	0	509	509	0	0	
4	0	0	0	0	512	507	0	0	
5	0	0	0	0	512	507	0	0	
6	0	0	0	0	512	508	0	0	
7	0	0	0	0	513	509	0	0	
8	0	0	0	0	513	510	0	0	
9	0	0	0	0	512	506	0	0	
10	0	0	0	0	511	506	0	0	
11	0	0	0	0	511	507	0	0	
12	0	0	0	0	512	509	0	0	
13	0	0	0	0	513	506	0	0	
14	0	0	0	0	513	506	0	0	
15	0	0	0	0	510	507	0	0	
0	0	0	0	0	509	508	0	0	
1	0	0	0	0	509	510	0	0	
2	0	0	0	0	508	509	0	0	
3	0	0	0	0	510	508	0	0	
4	0	0	0	0	510	510	0	0	
5	0	0	0	0	511	508	0	0	
6	0	0	0	0	511	508	0	0	
7	0	0	0	0	512	509	0	0	
8	0	0	0	0	513	507	0	0	
9	0	0	0	0	509	507	0	0	
10	0	0	0	0	510	509	0	0	
11	0	0	0	0	511	508	0	0	
12	0	0	0	0	513	507	0	0	
13	0	0	0	0	513	508	0	0	
14	0	0	0	0	513	508	0	0	
15	0	0	0	0	514	509	0	0	
0	0	0	0	0	512	505	0	0	
1	0	0	0	0	511	505	0	0	
2	0	0	0	0	510	507	0	0	
3	0	0	0	0	510	507	0	0	
4	0	0	0	0	509	508	0	0	
5	0	0	0	0	512	509	0	0	
6	0	0	0	0	509	509	0	0	
7	0	0	0	0	510	507	0	0	
8	0	0	0	0	507	510	0	0	
9	0	0	0	0	508	508	0	0	
10	0	0	0	0	511	510	0	0	
11	0	0	0	0	512	508	0	0	
12	0	0	0	0	511	508	0	0	
13	0	0	0	0	513	507	0	0	
14	0	0	0	0	513	509	0	0	
15	0	0	0	0	513	509	0	0	
0	0	0	0	0	512	509	0	0	
1	0	0	0	0	512	507	0	0	
2	0	0	0	0	515	506	0	0	
3	0	0	0	0	512	506	0	0	
4	0	0	0	0	511	506	0	0	
5	0	0	0	0	510	508	0	0	
6	0	0	0	0	511	508	0	0	
7	0	0	0	0	512	507	0	0	
8	0	0	0	0	509	509	0	0	
9	0	0	0	0	508	509	0	0	
10	0	0	0	0	508	510	0	0	
11	0	0	0	0	508	510	0	0	
12	0	0	0	0	510	509	0	0	
13	0	0	0	0	510	510	0	0	
14	0	0	0	0	511	508	0	0	
15	0	0	0	0	511	510	0	0	
0	0	0	0	0	512	510	0	0	
1	0	0	0	0	511	507	0	0	
2	0	0	0	0	512	507	0	0	
3	0	0	0	0	513	508	0	0	
4	0	0	0	0	513	507	0	0	
5	0	0	0	0	514	505	0	0	
6	0	0	0	0	513	506	0	0	
7	0	0	0	0	513	505	0	0	
8	0	0	0	0	512	507	0	0	
9	0	0	0	0	512	506	0	0	
10	0	0	0	0	511	507	0	0	
11	0	0	0	0	511	507	0	0	
12	0	0	0	0	509	507	0	0	
13	0	0	0	0	511	510	0	0	
14	0	0	0	0	508	509	0	0	
15	0	0	0	0	508	508	0	0	
0	0	0	0	0	508	509	0	0	
1	0	0	0	0	510	509	0	0	
2	0	0	0	0	512	508	0	0	
3	0	0	0	0	511	509	0	0	
4	0	0	0	0	511	509	0	0	
5	0	0	0	0	512	509	0	0	
6	0	0	0	0	512	507	0	0	
7	0	0	0	0	513	507	0	0	
8	0	0	0	0	513	508	0	0	
9	0	0	0	0	512	508	0	0	
10	0	0	0	0	511	508	0	0	
11	0	0	0	0	512	505	0	0	
12	0	0	0	0	512	505	0	0	
13	0	0	0	0	512	507	0	0	
14	0	0	0	0	511	509	0	0	
15	0	0	0	0	510	507	0	0	
0	0	0	0	0	509	509	0	0	
1	0	0	0	0	509	508	0	0	
2	0	0	0	0	510	510	0	0	
3	0	0	0	0	510	508	0	0	
4	0	0	0	0	507	510	0	0	
5	0	0	0	0	508	508	0	0	
6	0	0	0	0	509	509	0	0	
7	0	0	0	0	512	510	0	0	
8	0	0	0	0	512	508	0	0	
9	0	0	0	0	511	508	0	0	
10	0	0	0	0	513	508	0	0	
11	0	0	0	0	513	509	0	0	
12	0	0	0	0	513	508	0	0	
13	0	0	0	0	512	508	0	0	
14	0	0	0	0	512	506	0	0	
15	0	0	0	0	513	506	0	0	
0	0	0	0	0	511	505	0	0	
1	0	0	0	0	511	506	0	0	
2	0	0	0	0	510	507	0	0	
3	0	0	0	0	510	505	0	0	
4	0	0	0	0	512	507	0	0	
5	0	0	0	0	507	508	0	0	
6	0	0	0	0	511	509	0	0	
7	0	0	0	0	510	510	0	0	
8	0	0	0	0	510	510	0	0	
9	0	0	0	0	510	510	0	0	
10	0	0	0	0	511	508	0	0	
11	0	0	0	0	510	508	0	0	
12	0	0	0	0	511	508	0	0	
13	0	0	0	0	511	511	0	0	
14	0	0	0	0	512	508	0	0	
15	0	0	0	0	514	508	0	0	
0	0	0	0	0	508	508	0	0	
1	0	0	0	0	512	507	0	0	
2	0	0	0	0	512	506	0	0	
3	0	0	0	0	513	507	0	0	
4	0	0	0	0	514	507	0	0	
5	0	0	0	0	512	508	0	0	
6	0	0	0	0	512	507	0	0	
7	0	0	0	0	511	506	0	0	
8	0	0	0	0	509	508	0	0	
9	0	0	0	0	508	508	0	0	
10	0	0	0	0	510	507	0	0	
11	0	0	0	0	509	510	0	0	
12	0	0	0	0	508	509	0	0	
13	0	0	0	0	511	510	0	0	
14	0	0	0	0	511	509	0	0	
15	0	0	0	0	510	510	0	0	
0	0	0	0	0	512	508	0	0	
1	0	0	0	0	513	505	0	0	
2	0	0	0	0	512	509	0	0	
3	0	0	0	0	511	507	0	0	
4	0	0	0	0	512	507	0	0	
5	0	0	0	0	514	507	0	0	
6	0	0	0	0	513	507	0	0	
7	0	0	0	0	512	505	0	0	
8	0	0	0	0	511	505	0	0	
9	0	0	0	0	513	507	0	0	
10	0	0	0	0	511	508	0	0	
11	0	0	0	0	510	508	0	0	
12	0	0	0	0	511	510	0	0	
13	0	0	0	0	508	508	0	0	
14	0	0	0	0	508	510	0	0	
15	0	0	0	0	509	511	0	0	
0	0	0	0	0	511	511	0	0	
1	0	0	0	0	510	510	0	0	
2	0	0	0	0	509	509	0	0	
3	0	0	0	0	511	508	0	0	
4	0	0	0	0	512	508	0	0	
5	0	0	0	0	512	508	0	0	
6	0	0	0	0	511	508	0	0	
7	0	0	0	0	513	508	0	0	
8	0	0	0	0	513	508	0	0	
9	0	0	0	0	512	507	0	0	
10	0	0	0	0	515	505	0	0	
11	0	0	0	0	511	505	0	0	
12	0	0	0	0	512	508	0	0	
13	0	0	0	0	510	509	0	0	
14	0	0	0	0	510	505	0	0	
15	0	0	0	0	511	508	0	0	
0	0	0	0	0	510	508	0	0	
1	0	0	0	0	511	509	0	0	
2	0	0	0	0	509	509	0	0	
3	0	0	0	0	511	509	0	0	
4	0	0	0	0	508	508	0	0	
5	0	0	0	0	510	508	0	0	
6	0	0	0	0	510	509	0	0	
7	0	0	0	0	511	509	0	0	
8	0	0	0	0	511	509	0	0	
9	0	0	0	0	511	509	0	0	
10	0	0	0	0	512	507	0	0	
11	0	0	0	0	513	508	0	0	
12	0	0	0	0	512	506	0	0	
13	0	0	0	0	513	508	0	0	
14	0	0	0	0	514	507	0	0	
15	0	0	0	0	514	507	0	0	
0	0	0	0	0	511	508	0	0	
1	0	0	0	0	514	507	0	0	
2	0	0	0	0	512	506	0	0	
3	0	0	0	0	511	509	0	0	
4	0	0	0	0	508	506	0	0	
5	0	0	0	0	510	509	0	0	
6	0	0	0	0	509	509	0	0	
7	0	0	0	0	509	508	0	0	
8	0	0	0	0	510	508	0	0	
9	0	0	0	0	508	510	0	0	
10	0	0	0	0	509	509	0	0	
11	0	0	0	0	511	509	0	0	
12	0	0	0	0	509	508	0	0	
13	0	0	0	0	511	508	0	0	
14	0	0	0	0	511	507	0	0	
15	0	0	0	0	512	507	0	0	
0	0	0	0	0	511	507	0	0	
1	0	0	0	0	512	508	0	0	
2	0	0	0	0	515	506	0	0	
3	0	0	0	0	514	507	0	0	
4	0	0	0	0	515	507	0	0	
5	0	0	0	0	512	506	0	0	
6	0	0	0	0	511	507	0	0	
7	0	0	0	0	511	508	0	0	
8	0	0	0	0	511	510	0	0	
9	0	0	0	0	510	508	0	0	
10	0	0	0	0	507	508	0	0	
11	0	0	0	0	509	508	0	0	
12	0	0	0	0	509	510	0	0	
13	0	0	0	0	511	509	0	0	
14	0	0	0	0	509	510	0	0	
15	0	0	0	0	510	508	0	0	
0	0	0	0	0	508	506	0	0	
1	0	0	0	0	511	508	0	0	
2	0	0	0	0	511	508	0	0	
3	0	0	0	0	512	508	0	0	
4	0	0	0	0	515	511	0	0	
5	0	0	0	0	512	507	0	0	
6	0	0	0	0	515	505	0	0	
7	0	0	0	0	513	507	0	0	
8	0	0	0	0	513	506	0	0	
9	0	0	0	0	512	507	0	0	
10	0	0	0	0	512	506	0	0	
11	0	0	0	0	511	508	0	0	
12	0	0	0	0	509	510	0	0	
13	0	0	0	0	509	508	0	0	
14	0	0	0	0	506	508	0	0	
15	0	0	0	0	508	507	0	0	
0	0	0	0	0	511	510	0	0	
1	0	0	0	0	510	511	0	0	
2	0	0	0	0	510	511	0	0	
3	0	0	0	0	514	510	0	0	
4	0	0	0	0	511	508	0	0	
5	0	0	0	0	512	511	0	0	
6	0	0	0	0	511	507	0	0	
7	0	0	0	0	512	506	0	0	
8	0	0	0	0	511	506	0	0	
9	0	0	0	0	513	507	0	0	
10	0	0	0	0	512	508	0	0	
11	0	0	0	0	512	504	0	0	
12	0	0	0	0	510	507	0	0	
13	0	0	0	0	512	507	0	0	
14	0	0	0	0	512	509	0	0	
15	0	0	0	0	511	509	0	0	
0	0	0	0	0	511	508	0	0	
1	0	0	0	0	510	509	0	0	
2	0	0	0	0	509	509	0	0	
3	0	0	0	0	507	510	0	0	
4	0	0	0	0	511	509	0	0	
5	0	0	0	0	510	508	0	0	
6	0	0	0	0	510	508	0	0	
7	0	0	0	0	508	509	0	0	
8	0	0	0	0	510	509	0	0	
9	0	0	0	0	512	505	0	0	
10	0	0	0	0	512	511	0	0	
11	0	0	0	0	513	508	0	0	
12	0	0	0	0	513	505	0	0	
13	0	0	0	0	513	507	0	0	
14	0	0	0	0	514	508	0	0	
15	0	0	0	0	514	507	0	0	
0	0	0	0	0	511	505	0	0	
1	0	0	0	0	511	505	0	0	
2	0	0	0	0	509	507	0	0	
3	0	0	0	0	511	510	0	0	
4	0	0	0	0	510	508	0	0	
5	0	0	0	0	508	508	0	0	
6	0	0	0	0	509	508	0	0	
7	0	0	0	0	510	511	0	0	
8	0	0	0	0	508	510	0	0	
9	0	0	0	0	509	508	0	0	
10	0	0	0	0	510	508	0	0	
11	0	0	0	0	510	510	0	0	
12	0	0	0	0	512	507	0	0	
13	0	0	0	0	512	509	0	0	
14	0	0	0	0	512	508	0	0	
15	0	0	0	0	512	510	0	0	
0	0	0	0	0	513	507	0	0	
1	0	0	0	0	514	507	0	0	
2	0	0	0	0	513	507	0	0	
3	0	0	0	0	513	506	0	0	
4	0	0	0	0	512	507	0	0	
5	0	0	0	0	513	507	0	0	
6	0	0	0	0	511	506	0	0	
7	0	0	0	0	511	508	0	0	
8	0	0	0	0	511	507	0	0	
9	0	0	0	0	509	508	0	0	
10	0	0	0	0	510	509	0	0	
11	0	0	0	0	508	511	0	0	
12	0	0	0	0	507	511	0	0	
13	0	0	0	0	508	508	0	0	
14	0	0	0	0	510	508	0	0	
15	0	0	0	0	510	510	0	0	
0	0	0	0	0	510	508	0	0	
1	0	0	0	0	513	510	0	0	
2	0	0	0	0	512	506	0	0	
3	0	0	0	0	511	509	0	0	
4	0	0	0	0	513	509	0	0	
5	0	0	0	0	512	509	0	0	
6	0	0	0	0	515	506	0	0	
7	0	0	0	0	511	506	0	0	
8	0	0	0	0	513	507	0	0	
9	0	0	0	0	513	506	0	0	
10	0	0	0	0	510	507	0	0	
11	0	0	0	0	510	507	0	0	
12	0	0	0	0	510	508	0	0	
13	0	0	0	0	508	508	0	0	
14	0	0	0	0	507	509	0	0	
15	0	0	0	0	509	509	0	0	
0	0	0	0	0	510	508	0	0	
1	0	0	0	0	511	510	0	0	
2	0	0	0	0	511	510	0	0	
3	0	0	0	0	511	507	0	0	
4	0	0	0	0	510	509	0	0	
5	0	0	0	0	512	509	0	0	
6	0	0	0	0	511	508	0	0	
7	0	0	0	0	512	506	0	0	
8	0	0	0	0	511	508	0	0	
9	0	0	0	0	512	509	0	0	
10	0	0	0	0	513	507	0	0	
11	0	0	0	0	512	506	0	0	
12	0	0	0	0	511	505	0	0	
13	0	0	0	0	513	507	0	0	
14	0	0	0	0	513	508	0	0	
15	0	0	0	0	510	508	0	0	
0	0	0	0	0	511	507	0	0	
1	0	0	0	0	507	509	0	0	
2	0	0	0	0	508	510	0	0	
3	0	0	0	0	507	511	0	0	
4	0	0	0	0	511	511	0	0	
5	0	0	0	0	511	508	0	0	
6	0	0	0	0	510	508	0	0	
7	0	0	0	0	511	508	0	0	
8	0	0	0	0	511	509	0	0	
9	0	0	0	0	512	510	0	0	
10	0	0	0	0	512	507	0	0	
11	0	0	0	0	512	508	0	0	
12	0	0	0	0	511	505	0	0	
13	0	0	0	0	513	507	0	0	
14	0	0	0	0	512	507	0	0	
15	0	0	0	0	512	508	0	0	
0	0	0	0	0	511	507	0	0	
1	0	0	0	0	514	506	0	0	
2	0	0	0	0	511	508	0	0	
3	0	0	0	0	511	508	0	0	
4	0	0	0	0	508	507	0	0	
5	0	0	0	0	510	507	0	0	
6	0	0	0	0	509	510	0	0	
7	0	0	0	0	509	507	0	0	
8	0	0	0	0	510	509	0	0	
9	0	0	0	0	511	507	0	0	
10	0	0	0	0	511	510	0	0	
11	0	0	0	0	512	510	0	0	
12	0	0	0	0	511	511	0	0	
13	0	0	0	0	512	506	0	0	
14	0	0	0	0	511	507	0	0	
15	0	0	0	0	511	509	0	0	
0	0	0	0	0	512	508	0	0	
1	0	0	0	0	511	507	0	0	
2	0	0	0	0	513	506	0	0	
3	0	0	0	0	513	506	0	0	
4	0	0	0	0	513	507	0	0	
5	0	0	0	0	511	507	0	0	
6	0	0	0	0	510	508	0	0	
7	0	0	0	0	510	507	0	0	
8	0	0	0	0	511	508	0	0	
9	0	0	0	0	510	508	0	0	
10	0	0	0	0	508	510	0	0	
11	0	0	0	0	508	509	0	0	
12	0	0	0	0	508	511	0	0	
13	0	0	0	0	509	509	0	0	
14	0	0	0	0	509	509	0	0	
15	0	0	0	0	509	510	0	0	
0	0	0	0	0	513	508	0	0	
1	0	0	0	0	510	508	0	0	
2	0	0	0	0	511	508	0	0	
3	0	0	0	0	510	507	0	0	
4	0	0	0	0	513	507	0	0	
5	0	0	0	0	512	509	0	0	
6	0	0	0	0	513	507	0	0	
7	0	0	0	0	513	506	0	0	
8	0	0	0	0	512	507	0	0	
9	0	0	0	0	513	508	0	0	
10	0	0	0	0	511	506	0	0	
11	0	0	0	0	510	507	0	0	
12	0	0	0	0	510	508	0	0	
13	0	0	0	0	511	509	0	0	
14	0	0	0	0	508	509	0	0	
15	0	0	0	0	509	510	0	0	
0	0	0	0	0	511	510	0	0	
1	0	0	0	0	511	508	0	0	
2	0	0	0	0	512	509	0	0	
3	0	0	0	0	511	507	0	0	
4	0	0	0	0	511	507	0	0	
5	0	0	0	0	511	510	0	0	
6	0	0	0	0	509	508	0	0	
7	0	0	0	0	512	506	0	0	
8	0	0	0	0	512	510	0	0	
9	0	0	0	0	515	507	0	0	
10	0	0	0	0	514	507	0	0	
11	0	0	0	0	513	507	0	0	
12	0	0	0	0	512	507	0	0	
13	0	0	0	0	511	507	0	0	
14	0	0	0	0	510	507	0	0	
15	0	0	0	0	510	506	0	0	
0	0	0	0	0	508	509	0	0	
1	0	0	0	0	510	507	0	0	
2	0	0	0	0	510	510	0	0	
3	0	0	0	0	510	509	0	0	
4	0	0	0	0	510	510	0	0	
5	0	0	0	0	508	510	0	0	
6	0	0	0	0	511	508	0	0	
7	0	0	0	0	510	508	0	0	
8	0	0	0	0	511	510	0	0	
9	0	0	0	0	512	511	0	0	
10	0	0	0	0	511	508	0	0	
11	0	0	0	0	511	507	0	0	
12	0	0	0	0	513	508	0	0	
13	0	0	0	0	512	507	0	0	
14	0	0	0	0	513	507	0	0	
15	0	0	0	0	512	506	0	0	
0	0	0	0	0	513	505	0	0	
1	0	0	0	0	513	505	0	0	
2	0	0	0	0	511	509	0	0	
3	0	0	0	0	511	507	0	0	
4	0	0	0	0	510	507	0	0	
5	0	0	0	0	510	508	0	0	
6	0	0	0	0	510	508	0	0	
7	0	0	0	0	509	510	0	0	
8	0	0	0	0	510	510	0	0	
9	0	0	0	0	511	507	0	0	
10	0	0	0	0	511	508	0	0	
11	0	0	0	0	512	509	0	0	
12	0	0	0	0	512	510	0	0	
13	0	0	0	0	514	511	0	0	
14	0	0	0	0	511	508	0	0	
15	0	0	0	0	511	510	0	0	
0	0	0	0	0	511	507	0	0	
1	0	0	0	0	512	507	0	0	
2	0	0	0	0	515	507	0	0	
3	0	0	0	0	513	505	0	0	
4	0	0	0	0	511	505	0	0	
5	0	0	0	0	511	507	0	0	
6	0	0	0	0	513	506	0	0	
7	0	0	0	0	511	507	0	0	
8	0	0	0	0	510	508	0	0	
9	0	0	0	0	510	508	0	0	
10	0	0	0	0	509	508	0	0	
11	0	0	0	0	509	511	0	0	
12	0	0	0	0	510	511	0	0	
13	0	0	0	0	507	510	0	0	
14	0	0	0	0	508	508	0	0	
15	0	0	0	0	510	508	0	0	
0	0	0	0	0	511	509	0	0	
1	0	0	0	0	511	507	0	0	
2	0	0	0	0	511	507	0	0	
3	0	0	0	0	511	507	0	0	
4	0	0	0	0	514	509	0	0	
5	0	0	0	0	515	507	0	0	
6	0	0	0	0	511	507	0	0	
7	0	0	0	0	514	506	0	0	
8	0	0	0	0	512	505	0	0	
9	0	0	0	0	513	508	0	0	
10	0	0	0	0	513	507	0	0	
11	0	0	0	0	511	507	0	0	
12	0	0	0	0	510	508	0	0	
13	0	0	0	0	509	508	0	0	
14	0	0	0	0	509	509	0	0	
15	0	0	0	0	507	510	0	0	
0	0	0	0	0	508	508	0	0	
1	0	0	0	0	511	508	0	0	
2	0	0	0	0	511	509	0	0	
3	0	0	0	0	511	510	0	0	
4	0	0	0	0	512	508	0	0	
5	0	0	0	0	510	510	0	0	
6	0	0	0	0	511	508	0	0	
7	0	0	0	0	515	510	0	0	
8	0	0	0	0	513	508	0	0	
9	0	0	0	0	513	507	0	0	
10	0	0	0	0	515	506	0	0	
11	0	0	0	0	511	505	0	0	
12	0	0	0	0	512	508	0	0	
13	0	0	0	0	511	505	0	0	
14	0	0	0	0	511	506	0	0	
15	0	0	0	0	511	508	0	0	
0	0	0	0	0	511	509	0	0	
1	0	0	0	0	509	509	0	0	
2	0	0	0	0	508	508	0	0	
3	0	0	0	0	511	510	0	0	
4	0	0	0	0	509	508	0	0	
5	0	0	0	0	511	509	0	0	
6	0	0	0	0	511	507	0	0	
7	0	0	0	0	511	508	0	0	
8	0	0	0	0	511	509	0	0	
9	0	0	0	0	511	510	0	0	
10	0	0	0	0	512	509	0	0	
11	0	0	0	0	512	508	0	0	
12	0	0	0	0	513	509	0	0	
13	0	0	0	0	514	507	0	0	
14	0	0	0	0	511	507	0	0	
15	0	0	0	0	513	508	0	0	
0	0	0	0	0	512	507	0	0	
1	0	0	0	0	513	505	0	0	
2	0	0	0	0	510	504	0	0	
3	0	0	0	0	509	508	0	0	
4	0	0	0	0	510	507	0	0	
5	0	0	0	0	508	510	0	0	
6	0	0	0	0	508	508	0	0	
7	0	0	0	0	507	510	0	0	
8	0	0	0	0	509	508	0	0	
9	0	0	0	0	508	510	0	0	
10	0	0	0	0	509	509	0	0	
11	0	0	0	0	510	509	0	0	
12	0	0	0	0	510	510	0	0	
13	0	0	0	0	513	508	0	0	
14	0	0	0	0	514	507	0	0	
15	0	0	0	0	513	508	0	0	
0	0	0	0	0	511	508	0	0	
1	0	0	0	0	514	506	0	0	
2	0	0	0	0	513	506	0	0	
3	0	0	0	0	512	505	0	0	
4	0	0	0	0	515	507	0	0	
5	0	0	0	0	511	507	0	0	
6	0	0	0	0	512	506	0	0	
7	0	0	0	0	510	507	0	0	
8	0	0	0	0	509	509	0	0	
9	0	0	0	0	508	509	0	0	
10	0	0	0	0	508	510	0	0	
11	0	0	0	0	507	507	0	0	
12	0	0	0	0	509	507	0	0	
13	0	0	0	0	508	510	0	0	
14	0	0	0	0	510	510	0	0	
15	0	0	0	0	510	511	0	0	
0	0	0	0	0	511	510	0	0	
1	0	0	0	0	512	507	0	0	
2	0	0	0	0	511	509	0	0	
3	0	0	0	0	512	508	0	0	
4	0	0	0	0	513	506	0	0	
5	0	0	0	0	511	507	0	0	
6	0	0	0	0	512	507	0	0	
7	0	0	0	0	511	507	0	0	
8	0	0	0	0	511	507	0	0	
9	0	0	0	0	512	507	0	0	
10	0	0	0	0	510	507	0	0	
11	0	0	0	0	508	507	0	0	
12	0	0	0	0	510	508	0	0	
13	0	0	0	0	509	509	0	0	
14	0	0	0	0	511	510	0	0	
15	0	0	0	0	510	511	0	0	
0	0	0	0	0	508	510	0	0	
1	0	0	0	0	509	508	0	0	
2	0	0	0	0	510	508	0	0	
3	0	0	0	0	510	508	0	0	
4	0	0	0	0	511	508	0	0	
5	0	0	0	0	510	509	0	0	
6	0	0	0	0	513	508	0	0	
7	0	0	0	0	513	505	0	0	
8	0	0	0	0	511	508	0	0	
9	0	0	0	0	512	509	0	0	
10	0	0	0	0	513	508	0	0	
11	0	0	0	0	513	505	0	0	
12	0	0	0	0	513	508	0	0	
13	0	0	0	0	513	506	0	0	
14	0	0	0	0	511	507	0	0	
15	0	0	0	0	511	506	0	0	
0	0	0	0	0	507	509	0	0	
1	0	0	0	0	510	510	0	0	
2	0	0	0	0	509	509	0	0	
3	0	0	0	0	508	511	0	0	
4	0	0	0	0	508	510	0	0	
5	0	0	0	0	509	508	0	0	
6	0	0	0	0	510	510	0	0	
7	0	0	0	0	510	507	0	0	
8	0	0	0	0	510	508	0	0	
9	0	0	0	0	511	507	0	0	
10	0	0	0	0	515	507	0	0	
11	0	0	0	0	514	507	0	0	
12	0	0	0	0	511	508	0	0	
13	0	0	0	0	513	509	0	0	
14	0	0	0	0	512	507	0	0	
15	0	0	0	0	515	507	0	0	
0	0	0	0	0	512	508	0	0	
1	0	0	0	0	511	506	0	0	
2	0	0	0	0	511	505	0	0	
3	0	0	0	0	511	507	0	0	
4	0	0	0	0	511	510	0	0	
5	0	0	0	0	511	510	0	0	
6	0	0	0	0	510	508	0	0	
7	0	0	0	0	507	508	0	0	
8	0	0	0	0	508	509	0	0	
9	0	0	0	0	509	511	0	0	
10	0	0	0	0	509	510	0	0	
11	0	0	0	0	510	508	0	0	
12	0	0	0	0	512	508	0	0	
13	0	0	0	0	510	507	0	0	
14	0	0	0	0	510	510	0	0	
15	0	0	0	0	512	507	0	0	
0	0	0	0	0	511	508	0	0	
1	0	0	0	0	512	506	0	0	
2	0	0	0	0	513	504	0	0	
3	0	0	0	0	512	508	0	0	
4	0	0	0	0	511	507	0	0	
5	0	0	0	0	512	506	0	0	
6	0	0	0	0	510	507	0	0	
7	0	0	0	0	512	508	0	0	
8	0	0	0	0	510	509	0	0	
9	0	0	0	0	513	511	0	0	
10	0	0	0	0	509	508	0	0	
11	0	0	0	0	509	509	0	0	
12	0	0	0	0	509	511	0	0	
13	0	0	0	0	510	508	0	0	
14	0	0	0	0	511	509	0	0	
15	0	0	0	0	511	510	0	0	
0	0	0	0	0	511	509	0	0	
1	0	0	0	0	511	509	0	0	
2	0	0	0	0	510	508	0	0	
3	0	0	0	0	512	507	0	0	
4	0	0	0	0	510	509	0	0	
5	0	0	0	0	512	506	0	0	
6	0	0	0	0	513	506	0	0	
7	0	0	0	0	515	508	0	0	
8	0	0	0	0	512	507	0	0	
9	0	0	0	0	510	506	0	0	
10	0	0	0	0	512	509	0	0	
11	0	0	0	0	511	507	0	0	
12	0	0	0	0	509	504	0	0	
13	0	0	0	0	509	508	0	0	
14	0	0	0	0	510	510	0	0	
15	0	0	0	0	509	508	0	0	
0	0	0	0	0	510	509	0	0	
1	0	0	0	0	512	510	0	0	
2	0	0	0	0	511	506	0	0	
3	0	0	0	0	510	509	0	0	
4	0	0	0	0	511	509	0	0	
5	0	0	0	0	512	509	0	0	
6	0	0	0	0	512	508	0	0	
7	0	0	0	0	513	509	0	0	
8	0	0	0	0	513	509	0	0	
9	0	0	0	0	512	507	0	0	
10	0	0	0	0	513	507	0	0	
11	0	0	0	0	512	507	0	0	
12	0	0	0	0	511	506	0	0	
13	0	0	0	0	511	507	0	0	
14	0	0	0	0	511	507	0	0	
15	0	0	0	0	511	509	0	0	
0	0	0	0	0	510	509	0	0	
1	0	0	0	0	509	509	0	0	
2	0	0	0	0	510	508	0	0	
3	0	0	0	0	511	507	0	0	
4	0	0	0	0	509	509	0	0	
5	0	0	0	0	508	510	0	0	
6	0	0	0	0	510	510	0	0	
7	0	0	0	0	510	508	0	0	
8	0	0	0	0	510	511	0	0	
9	0	0	0	0	513	510	0	0	
10	0	0	0	0	512	509	0	0	
11	0	0	0	0	511	508	0	0	
12	0	0	0	0	511	507	0	0	
13	0	0	0	0	511	508	0	0	
14	0	0	0	0	514	504	0	0	
15	0	0	0	0	514	506	0	0	
0	0	0	0	0	512	507	0	0	
1	0	0	0	0	513	505	0	0	
2	0	0	0	0	510	505	0	0	
3	0	0	0	0	510	510	0	0	
4	0	0	0	0	509	508	0	0	
5	0	0	0	0	511	510	0	0	
6	0	0	0	0	508	511	0	0	
7	0	0	0	0	510	511	0	0	
8	0	0	0	0	509	511	0	0	
9	0	0	0	0	509	510	0	0	
10	0	0	0	0	509	509	0	0	
11	0	0	0	0	512	509	0	0	
12	0	0	0	0	513	507	0	0	
13	0	0	0	0	511	508	0	0	
14	0	0	0	0	512	508	0	0	
15	0	0	0	0	512	506	0	0	
0	0	0	0	0	510	508	0	0	
1	0	0	0	0	512	505	0	0	
2	0	0	0	0	513	506	0	0	
3	0	0	0	0	511	506	0	0	
4	0	0	0	0	513	507	0	0	
5	0	0	0	0	513	507	0	0	
6	0	0	0	0	511	507	0	0	
7	0	0	0	0	509	508	0	0	
8	0	0	0	0	509	506	0	0	
9	0	0	0	0	509	509	0	0	
10	0	0	0	0	508	507	0	0	
11	0	0	0	0	510	508	0	0	
12	0	0	0	0	510	510	0	0	
13	0	0	0	0	511	510	0	0	
14	0	0	0	0	511	510	0	0	
15	0	0	0	0	511	509	0	0	
0	0	0	0	0	511	508	0	0	
1	0	0	0	0	511	508	0	0	
2	0	0	0	0	511	507	0	0	
3	0	0	0	0	510	509	0	0	
4	0	0	0	0	512	509	0	0	
5	0	0	0	0	511	506	0	0	
6	0	0	0	0	512	507	0	0	
7	0	0	0	0	514	507	0	0	
8	0	0	0	0	513	506	0	0	
9	0	0	0	0	511	507	0	0	
10	0	0	0	0	511	507	0	0	
11	0	0	0	0	512	508	0	0	
12	0	0	0	0	511	507	0	0	
13	0	0	0	0	509	509	0	0	
14	0	0	0	0	507	510	0	0	
15	0	0	0	0	509	512	0	0	
0	0	0	0	0	507	510	0	0	
1	0	0	0	0	511	508	0	0	
2	0	0	0	0	512	508	0	0	
3	0	0	0	0	511	509	0	0	
4	0	0	0	0	512	511	0	0	
5	0	0	0	0	513	508	0	0	
6	0	0	0	0	512	508	0	0	
7	0	0	0	0	512	507	0	0	
8	0	0	0	0	511	507	0	0	
9	0	0	0	0	512	506	0	0	
10	0	0	0	0	511	506	0	0	
11	0	0	0	0	512	506	0	0	
12	0	0	0	0	513	508	0	0	
13	0	0	0	0	514	508	0	0	
14	0	0	0	0	513	508	0	0	
15	0	0	0	0	511	507	0	0	
0	0	0	0	0	510	507	0	0	
1	0	0	0	0	510	508	0	0	
2	0	0	0	0	511	512	0	0	
3	0	0	0	0	509	509	0	0	
4	0	0	0	0	509	510	0	0	
5	0	0	0	0	510	508	0	0	
6	0	0	0	0	508	510	0	0	
7	0	0	0	0	512	508	0	0	
8	0	0	0	0	512	509	0	0	
9	0	0	0	0	511	508	0	0	
10	0	0	0	0	511	508	0	0	
11	0	0	0	0	511	508	0	0	
12	0	0	0	0	512	507	0	0	
13	0	0	0	0	515	507	0	0	
14	0	0	0	0	513	506	0	0	
15	0	0	0	0	512	506	0	0	
0	0	0	0	0	514	505	0	0	
1	0	0	0	0	511	507	0	0	
2	0	0	0	0	511	508	0	0	
3	0	0	0	0	510	508	0	0	
4	0	0	0	0	510	508	0	0	
5	0	0	0	0	511	507	0	0	
6	0	0	0	0	509	510	0	0	
7	0	0	0	0	510	509	0	0	
8	0	0	0	0	509	509	0	0	
9	0	0	0	0	510	510	0	0	
10	0	0	0	0	509	511	0	0	
11	0	0	0	0	511	511	0	0	
12	0	0	0	0	510	510	0	0	
13	0	0	0	0	511	508	0	0	
14	0	0	0	0	513	508	0	0	
15	0	0	0	0	511	508	0	0	
0	0	0	0	0	509	505	0	0	
1	0	0	0	0	512	507	0	0	
2	0	0	0	0	513	506	0	0	
3	0	0	0	0	512	506	0	0	
4	0	0	0	0	513	506	0	0	
5	0	0	0	0	512	508	0	0	
6	0	0	0	0	513	507	0	0	
7	0	0	0	0	513	507	0	0	
8	0	0	0	0	508	508	0	0	
9	0	0	0	0	507	508	0	0	
10	0	0	0	0	509	509	0	0	
11	0	0	0	0	509	511	0	0	
12	0	0	0	0	510	510	0	0	
13	0	0	0	0	508	510	0	0	
14	0	0	0	0	511	510	0	0	
15	0	0	0	0	510	510	0	0	
0	0	0	0	0	512	507	0	0	
1	0	0	0	0	512	507	0	0	
2	0	0	0	0	512	508	0	0	
3	0	0	0	0	512	507	0	0	
4	0	0	0	0	513	508	0	0	
5	0	0	0	0	513	507	0	0	
6	0	0	0	0	512	507	0	0	
7	0	0	0	0	515	504	0	0	
8	0	0	0	0	513	506	0	0	
9	0	0	0	0	512	508	0	0	
10	0	0	0	0	511	507	0	0	
11	0	0	0	0	511	507	0	0	
12	0	0	0	0	511	508	0	0	
13	0	0	0	0	511	508	0	0	
14	0	0	0	0	508	511	0	0	
15	0	0	0	0	507	508	0	0	
0	0	0	0	0	508	510	0	0	
1	0	0	0	0	510	510	0	0	
2	0	0	0	0	509	511	0	0	
3	0	0	0	0	511	510	0	0	
4	0	0	0	0	512	508	0	0	
5	0	0	0	0	512	508	0	0	
6	0	0	0	0	510	508	0	0	
7	0	0	0	0	511	508	0	0	
8	0	0	0	0	513	508	0	0	
9	0	0	0	0	511	504	0	0	
10	0	0	0	0	514	508	0	0	
11	0	0	0	0	515	506	0	0	
12	0	0	0	0	514	505	0	0	
13	0	0	0	0	513	506	0	0	
14	0	0	0	0	512	506	0	0	
15	0	0	0	0	509	505	0	0	
0	0	0	0	0	511	510	0	0	
1	0	0	0	0	507	509	0	0	
2	0	0	0	0	506	510	0	0	
3	0	0	0	0	507	510	0	0	
4	0	0	0	0	509	508	0	0	
5	0	0	0	0	510	509	0	0	
6	0	0	0	0	510	508	0	0	
7	0	0	0	0	511	508	0	0	
8	0	0	0	0	510	508	0	0	
9	0	0	0	0	512	510	0	0	
10	0	0	0	0	514	507	0	0	
11	0	0	0	0	512	509	0	0	
12	0	0	0	0	515	508	0	0	
13	0	0	0	0	511	508	0	0	
14	0	0	0	0	515	505	0	0	
15	0	0	0	0	514	505	0	0	
0	0	0	0	0	512	506	0	0	
1	0	0	0	0	512	506	0	0	
2	0	0	0	0	511	506	0	0	
3	0	0	0	0	510	509	0	0	
4	0	0	0	0	508	509	0	0	
5	0	0	0	0	511	507	0	0	
6	0	0	0	0	509	510	0	0	
7	0	0	0	0	508	511	0	0	
8	0	0	0	0	509	509	0	0	
9	0	0	0	0	508	510	0	0	
10	0	0	0	0	509	508	0	0	
11	0	0	0	0	510	508	0	0	
12	0	0	0	0	511	508	0	0	
13	0	0	0	0	511	508	0	0	
14	0	0	0	0	513	507	0	0	
15	0	0	0	0	515	507	0	0	
0	0	0	0	0	513	508	0	0	
1	0	0	0	0	514	505	0	0	
2	0	0	0	0	513	507	0	0	
3	0	0	0	0	512	507	0	0	
4	0	0	0	0	513	508	0	0	
5	0	0	0	0	514	507	0	0	
6	0	0	0	0	513	507	0	0	
7	0	0	0	0	509	506	0	0	
8	0	0	0	0	511	505	0	0	
9	0	0	0	0	511	511	0	0	
10	0	0	0	0	508	508	0	0	
11	0	0	0	0	509	508	0	0	
12	0	0	0	0	509	509	0	0	
13	0	0	0	0	510	509	0	0	
14	0	0	0	0	511	510	0	0	
15	0	0	0	0	513	510	0	0	
0	0	0	0	0	512	508	0	0	
1	0	0	0	0	510	509	0	0	
2	0	0	0	0	511	506	0	0	
3	0	0	0	0	509	507	0	0	
4	0	0	0	0	510	507	0	0	
5	0	0	0	0	511	507	0	0	
6	0	0	0	0	513	506	0	0	
7	0	0	0	0	513	507	0	0	
8	0	0	0	0	512	507	0	0	
9	0	0	0	0	512	508	0	0	
10	0	0	0	0	511	508	0	0	
11	0	0	0	0	511	508	0	0	
12	0	0	0	0	511	507	0	0	
13	0	0	0	0	509	509	0	0	
14	0	0	0	0	510	509	0	0	
15	0	0	0	0	509	509	0	0	
0	0	0	0	0	508	508	0	0	
1	0	0	0	0	508	508	0	0	
2	0	0	0	0	508	511	0	0	
3	0	0	0	0	510	508	0	0	
4	0	0	0	0	510	509	0	0	
5	0	0	0	0	512	509	0	0	
6	0	0	0	0	512	510	0	0	
7	0	0	0	0	512	508	0	0	
8	0	0	0	0	515	509	0	0	
9	0	0	0	0	513	507	0	0	
10	0	0	0	0	517	507	0	0	
11	0	0	0	0	514	506	0	0	
12	0	0	0	0	512	506	0	0	
13	0	0	0	0	513	507	0	0	
14	0	0	0	0	511	508	0	0	
15	0	0	0	0	510	506	0	0	
0	0	0	0	0	510	506	0	0	
1	0	0	0	0	509	507	0	0	
2	0	0	0	0	507	510	0	0	
3	0	0	0	0	508	512	0	0	
4	0	0	0	0	505	509	0	0	
5	0	0	0	0	508	510	0	0	
6	0	0	0	0	510	510	0	0	
7	0	0	0	0	510	508	0	0	
8	0	0	0	0	511	508	0	0	
9	0	0	0	0	513	509	0	0	
10	0	0	0	0	512	508	0	0	
11	0	0	0	0	512	508	0	0	
12	0	0	0	0	513	507	0	0	
13	0	0	0	0	513	507	0	0	
14	0	0	0	0	513	506	0	0	
15	0	0	0	0	513	505	0	0	
0	0	0	0	0	514	507	0	0	
1	0	0	0	0	512	506	0	0	
2	0	0	0	0	512	506	0	0	
3	0	0	0	0	511	508	0	0	
4	0	0	0	0	510	509	0	0	
5	0	0	0	0	510	509	0	0	
6	0	0	0	0	509	509	0	0	
7	0	0	0	0	508	509	0	0	
8	0	0	0	0	510	508	0	0	
9	0	0	0	0	509	508	0	0	
10	0	0	0	0	510	509	0	0	
11	0	0	0	0	511	511	0	0	
12	0	0	0	0	511	509	0	0	
13	0	0	0	0	511	508	0	0	
14	0	0	0	0	512	508	0	0	
15	0	0	0	0	511	508	0	0	
0	0	0	0	0	510	508	0	0	
1	0	0	0	0	513	507	0	0	
2	0	0	0	0	514	505	0	0	
3	0	0	0	0	514	506	0	0	
4	0	0	0	0	511	505	0	0	
5	0	0	0	0	512	506	0	0	
6	0	0	0	0	511	506	0	0	
7	0	0	0	0	512	508	0	0	
8	0	0	0	0	510	508	0	0	
9	0	0	0	0	508	509	0	0	
10	0	0	0	0	506	511	0	0	
11	0	0	0	0	509	510	0	0	
12	0	0	0	0	507	509	0	0	
13	0	0	0	0	508	510	0	0	
14	0	0	0	0	511	508	0	0	
15	0	0	0	0	511	508	0	0	
0	0	0	0	0	511	507	0	0	
1	0	0	0	0	511	508	0	0	
2	0	0	0	0	513	509	0	0	
3	0	0	0	0	513	508	0	0	
4	0	0	0	0	513	508	0	0	
5	0	0	0	0	513	506	0	0	
6	0	0	0	0	512	505	0	0	
7	0	0	0	0	514	506	0	0	
8	0	0	0	0	513	507	0	0	
9	0	0	0	0	512	507	0	0	
10	0	0	0	0	509	508	0	0	
11	0	0	0	0	511	507	0	0	
12	0	0	0	0	510	508	0	0	
13	0	0	0	0	508	508	0	0	
14	0	0	0	0	511	509	0	0	
15	0	0	0	0	511	508	0	0	
0	0	0	0	0	508	512	0	0	
1	0	0	0	0	508	510	0	0	
2	0	0	0	0	511	510	0	0	
3	0	0	0	0	511	508	0	0	
4	0	0	0	0	511	509	0	0	
5	0	0	0	0	515	508	0	0	
6	0	0	0	0	513	510	0	0	
7	0	0	0	0	513	507	0	0	
8	0	0	0	0	515	505	0	0	
9	0	0	0	0	514	508	0	0	
10	0	0	0	0	514	508	0	0	
11	0	0	0	0	511	505	0	0	
12	0	0	0	0	511	505	0	0	
13	0	0	0	0	512	508	0	0	
14	0	0	0	0	510	505	0	0	
15	0	0	0	0	512	508	0	0	
0	0	0	0	0	507	509	0	0	
1	0	0	0	0	509	508	0	0	
2	0	0	0	0	508	511	0	0	
3	0	0	0	0	510	509	0	0	
4	0	0	0	0	509	509	0	0	
5	0	0	0	0	512	508	0	0	
6	0	0	0	0	510	510	0	0	
7	0	0	0	0	510	508	0	0	
8	0	0	0	0	511	510	0	0	
9	0	0	0	0	513	508	0	0	
10	0	0	0	0	514	510	0	0	
11	0	0	0	0	514	508	0	0	
12	0	0	0	0	510	508	0	0	
13	0	0	0	0	512	507	0	0	
14	0	0	0	0	512	507	0	0	
15	0	0	0	0	513	506	0	0	
0	0	0	0	0	513	507	0	0	
1	0	0	0	0	513	507	0	0	
2	0	0	0	0	511	506	0	0	
3	0	0	0	0	511	505	0	0	
4	0	0	0	0	511	509	0	0	
5	0	0	0	0	509	510	0	0	
6	0	0	0	0	510	508	0	0	
7	0	0	0	0	509	508	0	0	
8	0	0	0	0	510	509	0	0	
9	0	0	0	0	510	509	0	0	
10	0	0	0	0	510	509	0	0	
11	0	0	0	0	510	509	0	0	
12	0	0	0	0	512	509	0	0	
13	0	0	0	0	512	509	0	0	
14	0	0	0	0	512	506	0	0	
15	0	0	0	0	513	509	0	0	
0	0	0	0	0	511	505	0	0	
1	0	0	0	0	511	508	0	0	
2	0	0	0	0	510	508	0	0	
3	0	0	0	0	513	506	0	0	
4	0	0	0	0	513	508	0	0	
5	0	0	0	0	511	508	0	0	
6	0	0	0	0	511	507	0	0	
7	0	0	0	0	511	507	0	0	
8	0	0	0	0	512	508	0	0	
9	0	0	0	0	511	508	0	0	
10	0	0	0	0	509	510	0	0	
11	0	0	0	0	508	510	0	0	
12	0	0	0	0	510	508	0	0	
13	0	0	0	0	511	509	0	0	
14	0	0	0	0	510	510	0	0	
15	0	0	0	0	511	510	0	0	
0	0	0	0	0	512	507	0	0	
1	0	0	0	0	511	507	0	0	
2	0	0	0	0	511	508	0	0	
3	0	0	0	0	511	508	0	0	
4	0	0	0	0	513	507	0	0	
5	0	0	0	0	513	508	0	0	
6	0	0	0	0	514	507	0	0	
7	0	0	0	0	513	506	0	0	
8	0	0	0	0	513	507	0	0	
9	0	0	0	0	513	505	0	0	
10	0	0	0	0	511	505	0	0	
11	0	0	0	0	510	511	0	0	
12	0	0	0	0	511	508	0	0	
13	0	0	0	0	507	510	0	0	
14	0	0	0	0	508	507	0	0	
15	0	0	0	0	509	509	0	0	
0	0	0	0	0	510	510	0	0	
1	0	0	0	0	511	509	0	0	
2	0	0	0	0	511	511	0	0	
3	0	0	0	0	511	508	0	0	
4	0	0	0	0	512	510	0	0	
5	0	0	0	0	512	508	0	0	
6	0	0	0	0	512	507	0	0	
7	0	0	0	0	514	507	0	0	
8	0	0	0	0	512	505	0	0	
9	0	0	0	0	515	509	0	0	
10	0	0	0	0	513	507	0	0	
11	0	0	0	0	512	508	0	0	
12	0	0	0	0	513	507	0	0	
13	0	0	0	0	511	506	0	0	
14	0	0	0	0	511	508	0	0	
15	0	0	0	0	511	507	0	0	
0	0	0	0	0	507	509	0	0	
1	0	0	0	0	508	508	0	0	
2	0	0	0	0	508	510	0	0	
3	0	0	0	0	508	509	0	0	
4	0	0	0	0	508	508	0	0	
5	0	0	0	0	511	509	0	0	
6	0	0	0	0	512	509	0	0	
7	0	0	0	0	511	511	0	0	
8	0	0	0	0	511	509	0	0	
9	0	0	0	0	511	510	0	0	
10	0	0	0	0	512	506	0	0	
11	0	0	0	0	512	507	0	0	
12	0	0	0	0	513	507	0	0	
13	0	0	0	0	513	504	0	0	
14	0	0	0	0	513	507	0	0	
15	0	0	0	0	513	506	0	0	
0	0	0	0	0	514	507	0	0	
1	0	0	0	0	512	507	0	0	
2	0	0	0	0	511	507	0	0	
3	0	0	0	0	512	508	0	0	
4	0	0	0	0	511	508	0	0	
5	0	0	0	0	508	507	0	0	
6	0	0	0	0	508	509	0	0	
7	0	0	0	0	508	510	0	0	
8	0	0	0	0	508	509	0	0	
9	0	0	0	0	509	509	0	0	
10	0	0	0	0	511	509	0	0	
11	0	0	0	0	510	510	0	0	
12	0	0	0	0	511	509	0	0	
13	0	0	0	0	512	508	0	0	
14	0	0	0	0	511	508	0	0	
15	0	0	0	0	514	508	0	0	
0	0	0	0	0	512	509	0	0	
1	0	0	0	0	512	508	0	0	
2	0	0	0	0	513	507	0	0	
3	0	0	0	0	511	506	0	0	
4	0	0	0	0	514	505	0	0	
5	0	0	0	0	512	507	0	0	
6	0	0	0	0	511	508	0	0	
7	0	0	0	0	510	508	0	0	
8	0	0	0	0	509	510	0	0	
9	0	0	0	0	509	509	0	0	
10	0	0	0	0	508	508	0	0	
11	0	0	0	0	506	508	0	0	
12	0	0	0	0	507	507	0	0	
13	0	0	0	0	510	508	0	0	
14	0	0	0	0	511	509	0	0	
15	0	0	0	0	512	507	0	0	
0	0	0	0	0	513	510	0	0	
1	0	0	0	0	513	509	0	0	
2	0	0	0	0	512	509	0	0	
3	0	0	0	0	515	508	0	0	
4	0	0	0	0	514	507	0	0	
5	0	0	0	0	512	507	0	0	
6	0	0	0	0	512	507	0	0	
7	0	0	0	0	510	507	0	0	
8	0	0	0	0	512	506	0	0	
9	0	0	0	0	511	508	0	0	
10	0	0	0	0	512	506	0	0	
11	0	0	0	0	509	507	0	0	
12	0	0	0	0	509	509	0	0	
13	0	0	0	0	508	508	0	0	
14	0	0	0	0	510	509	0	0	
15	0	0	0	0	509	510	0	0	
0	0	0	0	0	509	509	0	0	
1	0	0	0	0	508	508	0	0	
2	0	0	0	0	512	509	0	0	
3	0	0	0	0	511	511	0	0	
4	0	0	0	0	509	508	0	0	
5	0	0	0	0	511	508	0	0	
6	0	0	0	0	511	508	0	0	
7	0	0	0	0	511	506	0	0	
8	0	0	0	0	514	508	0	0	
9	0	0	0	0	514	506	0	0	
10	0	0	0	0	513	507	0	0	
11	0	0	0	0	515	506	0	0	
12	0	0	0	0	512	508	0	0	
13	0	0	0	0	513	508	0	0	
14	0	0	0	0	515	506	0	0	
15	0	0	0	0	511	507	0	0	
0	0	0	0	0	512	509	0	0	
1	0	0	0	0	510	508	0	0	
2	0	0	0	0	509	510	0	0	
3	0	0	0	0	508	508	0	0	
4	0	0	0	0	508	508	0	0	
5	0	0	0	0	508	509	0	0	
6	0	0	0	0	510	508	0	0	
7	0	0	0	0	510	508	0	0	
8	0	0	0	0	512	509	0	0	
9	0	0	0	0	513	507	0	0	
10	0	0	0	0	512	508	0	0	
11	0	0	0	0	512	504	0	0	
12	0	0	0	0	513	508	0	0	
13	0	0	0	0	513	506	0	0	
14	0	0	0	0	511	507	0	0	
15	0	0	0	0	511	507	0	0	
0	0	0	0	0	511	506	0	0	
1	0	0	0	0	512	508	0	0	
2	0	0	0	0	510	510	0	0	
3	0	0	0	0	511	508	0	0	
4	0	0	0	0	509	508	0	0	
5	0	0	0	0	511	509	0	0	
6	0	0	0	0	511	509	0	0	
7	0	0	0	0	510	508	0	0	
8	0	0	0	0	510	508	0	0	
9	0	0	0	0	512	507	0	0	
10	0	0	0	0	511	508	0	0	
11	0	0	0	0	510	509	0	0	
12	0	0	0	0	511	507	0	0	
13	0	0	0	0	511	510	0	0	
14	0	0	0	0	512	509	0	0	
15	0	0	0	0	512	508	0	0	
0	0	0	0	0	513	510	0	0	
1	0	0	0	0	512	507	0	0	
2	0	0	0	0	513	507	0	0	
3	0	0	0	0	513	507	0	0	
4	0	0	0	0	512	508	0	0	
5	0	0	0	0	512	504	0	0	
6	0	0	0	0	511	508	0	0	
7	0	0	0	0	511	509	0	0	
8	0	0	0	0	509	505	0	0	
9	0	0	0	0	507	508	0	0	
10	0	0	0	0	511	510	0	0	
11	0	0	0	0	509	508	0	0	
12	0	0	0	0	511	509	0	0	
13	0	0	0	0	510	511	0	0	
14	0	0	0	0	511	511	0	0	
15	0	0	0	0	510	508	0	0	
0	0	0	0	0	512	507	0	0	
1	0	0	0	0	511	508	0	0	
2	0	0	0	0	510	509	0	0	
3	0	0	0	0	511	505	0	0	
4	0	0	0	0	511	507	0	0	
5	0	0	0	0	513	508	0	0	
6	0	0	0	0	513	507	0	0	
7	0	0	0	0	512	509	0	0	
8	0	0	0	0	512	508	0	0	
9	0	0	0	0	512	507	0	0	
10	0	0	0	0	512	507	0	0	
11	0	0	0	0	511	507	0	0	
12	0	0	0	0	511	507	0	0	
13	0	0	0	0	509	508	0	0	
14	0	0	0	0	510	508	0	0	
15	0	0	0	0	509	510	0	0	
0	0	0	0	0	509	510	0	0	
1	0	0	0	0	508	509	0	0	
2	0	0	0	0	511	509	0	0	
3	0	0	0	0	509	509	0	0	
4	0	0	0	0	510	508	0	0	
5	0	0	0	0	510	508	0	0	
6	0	0	0	0	511	509	0	0	
7	0	0	0	0	513	510	0	0	
8	0	0	0	0	513	507	0	0	
9	0	0	0	0	512	507	0	0	
10	0	0	0	0	512	505	0	0	
11	0	0	0	0	512	505	0	0	
12	0	0	0	0	513	508	0	0	
13	0	0	0	0	514	508	0	0	
14	0	0	0	0	512	507	0	0	
15	0	0	0	0	510	508	0	0	
0	0	0	0	0	509	508	0	0	
1	0	0	0	0	511	508	0	0	
2	0	0	0	0	509	508	0	0	
3	0	0	0	0	509	508	0	0	
4	0	0	0	0	508	510	0	0	
5	0	0	0	0	509	510	0	0	
6	0	0	0	0	510	509	0	0	
7	0	0	0	0	510	510	0	0	
8	0	0	0	0	511	509	0	0	
9	0	0	0	0	512	510	0	0	
10	0	0	0	0	511	508	0	0	
11	0	0	0	0	512	507	0	0	
12	0	0	0	0	511	507	0	0	
13	0	0	0	0	512	506	0	0	
14	0	0	0	0	515	508	0	0	
15	0	0	0	0	512	507	0	0	
0	0	0	0	0	511	507	0	0	
1	0	0	0	0	515	505	0	0	
2	0	0	0	0	511	508	0	0	
3	0	0	0	0	510	506	0	0	
4	0	0	0	0	510	508	0	0	
5	0	0	0	0	510	507	0	0	
6	0	0	0	0	509	508	0	0	
7	0	0	0	0	509	509	0	0	
8	0	0	0	0	509	508	0	0	
9	0	0	0	0	509	510	0	0	
10	0	0	0	0	510	510	0	0	
11	0	0	0	0	512	509	0	0	
12	0	0	0	0	512	510	0	0	
13	0	0	0	0	512	509	0	0	
14	0	0	0	0	512	509	0	0	
15	0	0	0	0	511	508	0	0	
0	0	0	0	0	511	505	0	0	
1	0	0	0	0	512	507	0	0	
2	0	0	0	0	512	507	0	0	
3	0	0	0	0	513	505	0	0	
4	0	0	0	0	513	506	0	0	
5	0	0	0	0	513	506	0	0	
6	0	0	0	0	510	507	0	0	
7	0	0	0	0	511	509	0	0	
8	0	0	0	0	507	508	0	0	
9	0	0	0	0	508	506	0	0	
10	0	0	0	0	510	509	0	0	
11	0	0	0	0	510	510	0	0	
12	0	0	0	0	508	511	0	0	
13	0	0	0	0	510	510	0	0	
14	0	0	0	0	511	509	0	0	
15	0	0	0	0	511	508	0	0	
0	0	0	0	0	510	508	0	0	
1	0	0	0	0	513	511	0	0	
2	0	0	0	0	513	508	0	0	
3	0	0	0	0	511	507	0	0	
4	0	0	0	0	513	507	0	0	
5	0	0	0	0	511	507	0	0	
6	0	0	0	0	514	507	0	0	
7	0	0	0	0	515	507	0	0	
8	0	0	0	0	512	508	0	0	
9	0	0	0	0	512	507	0	0	
10	0	0	0	0	511	507	0	0	
11	0	0	0	0	512	508	0	0	
12	0	0	0	0	511	507	0	0	
13	0	0	0	0	511	509	0	0	
14	0	0	0	0	511	507	0	0	
15	0	0	0	0	508	511	0	0	
0	0	0	0	0	508	510	0	0	
1	0	0	0	0	507	508	0	0	
2	0	0	0	0	510	508	0	0	
3	0	0	0	0	509	509	0	0	
4	0	0	0	0	509	509	0	0	
5	0	0	0	0	513	508	0	0	
6	0	0	0	0	513	508	0	0	
7	0	0	0	0	513	508	0	0	
8	0	0	0	0	513	507	0	0	
9	0	0	0	0	513	507	0	0	
10	0	0	0	0	514	507	0	0	
11	0	0	0	0	510	507	0	0	
12	0	0	0	0	514	506	0	0	
13	0	0	0	0	512	505	0	0	
14	0	0	0	0	510	505	0	0	
15	0	0	0	0	511	508	0	0	
0	0	0	0	0	510	508	0	0	
1	0	0	0	0	510	508	0	0	
2	0	0	0	0	507	509	0	0	
3	0	0	0	0	508	509	0	0	
4	0	0	0	0	506	510	0	0	
5	0	0	0	0	510	509	0	0	
6	0	0	0	0	509	510	0	0	
7	0	0	0	0	511	511	0	0	
8	0	0	0	0	508	508	0	0	
9	0	0	0	0	511	506	0	0	
10	0	0	0	0	511	507	0	0	
11	0	0	0	0	513	508	0	0	
12	0	0	0	0	513	505	0	0	
13	0	0	0	0	513	508	0	0	
14	0	0	0	0	513	507	0	0	
15	0	0	0	0	515	506	0	0	
0	0	0	0	0	514	509	0	0	
1	0	0	0	0	515	505	0	0	
2	0	0	0	0	512	507	0	0	
3	0	0	0	0	510	510	0	0	
4	0	0	0	0	510	508	0	0	
5	0	0	0	0	510	510	0	0	
6	0	0	0	0	510	508	0	0	
7	0	0	0	0	510	509	0	0	
8	0	0	0	0	510	510	0	0	
9	0	0	0	0	508	509	0	0	
10	0	0	0	0	508	508	0	0	
11	0	0	0	0	510	508	0	0	
12	0	0	0	0	508	508	0	0	
13	0	0	0	0	511	508	0	0	
14	0	0	0	0	512	508	0	0	
15	0	0	0	0	511	508	0	0	
0	0	0	0	0	513	508	0	0	
1	0	0	0	0	515	508	0	0	
2	0	0	0	0	513	508	0	0	
3	0	0	0	0	514	507	0	0	
4	0	0	0	0	511	508	0	0	
5	0	0	0	0	511	508	0	0	
6	0	0	0	0	512	506	0	0	
7	0	0	0	0	510	508	0	0	
8	0	0	0	0	511	508	0	0	
9	0	0	0	0	508	507	0	0	
10	0	0	0	0	507	508	0	0	
11	0	0	0	0	510	510	0	0	
12	0	0	0	0	511	511	0	0	
13	0	0	0	0	511	510	0	0	
14	0	0	0	0	508	510	0	0	
15	0	0	0	0	512	510	0	0	
0	0	0	0	0	509	508	0	0	
1	0	0	0	0	511	508	0	0	
2	0	0	0	0	512	507	0	0	
3	0	0	0	0	512	507	0	0	
4	0	0	0	0	511	506	0	0	
5	0	0	0	0	512	507	0	0	
6	0	0	0	0	516	508	0	0	
7	0	0	0	0	514	508	0	0	
8	0	0	0	0	511	507	0	0	
9	0	0	0	0	513	508	0	0	
10	0	0	0	0	512	507	0	0	
11	0	0	0	0	512	509	0	0	
12	0	0	0	0	511	507	0	0	
13	0	0	0	0	509	505	0	0	
14	0	0	0	0	509	510	0	0	
15	0	0	0	0	509	509	0	0	
0	0	0	0	0	507	510	0	0	
1	0	0	0	0	508	509	0	0	
2	0	0	0	0	511	510	0	0	
3	0	0	0	0	508	509	0	0	
4	0	0	0	0	510	507	0	0	
5	0	0	0	0	509	508	0	0	
6	0	0	0	0	511	509	0	0	
7	0	0	0	0	513	508	0	0	
8	0	0	0	0	514	509	0	0	
9	0	0	0	0	511	506	0	0	
10	0	0	0	0	514	506	0	0	
11	0	0	0	0	514	507	0	0	
12	0	0	0	0	511	506	0	0	
13	0	0	0	0	513	507	0	0	
14	0	0	0	0	512	507	0	0	
15	0	0	0	0	512	510	0	0	
0	0	0	0	0	510	507	0	0	
1	0	0	0	0	509	508	0	0	
2	0	0	0	0	509	510	0	0	
3	0	0	0	0	509	508	0	0	
4	0	0	0	0	509	509	0	0	
5	0	0	0	0	508	507	0	0	
6	0	0	0	0	508	510	0	0	
7	0	0	0	0	510	511	0	0	
8	0	0	0	0	511	510	0	0	
9	0	0	0	0	513	507	0	0	
10	0	0	0	0	512	510	0	0	
11	0	0	0	0	512	507	0	0	
12	0	0	0	0	515	506	0	0	
13	0	0	0	0	513	506	0	0	
14	0	0	0	0	514	508	0	0	
15	0	0	0	0	513	506	0	0	
0	0	0	0	0	511	507	0	0	
1	0	0	0	0	513	508	0	0	
2	0	0	0	0	512	507	0	0	
3	0	0	0	0	512	508	0	0	
4	0	0	0	0	510	508	0	0	
5	0	0	0	0	512	507	0	0	
6	0	0	0	0	510	509	0	0	
7	0	0	0	0	508	509	0	0	
8	0	0	0	0	509	508	0	0	
9	0	0	0	0	508	510	0	0	
10	0	0	0	0	509	509	0	0	
11	0	0	0	0	509	509	0	0	
12	0	0	0	0	508	507	0	0	
13	0	0	0	0	511	509	0	0	
14	0	0	0	0	510	508	0	0	
15	0	0	0	0	511	508	0	0	
0	0	0	0	0	511	508	0	0	
1	0	0	0	0	512	507	0	0	
2	0	0	0	0	514	507	0	0	
3	0	0	0	0	514	507	0	0	
4	0	0	0	0	513	508	0	0	
5	0	0	0	0	514	506	0	0	
6	0	0	0	0	511	506	0	0	
7	0	0	0	0	512	507	0	0	
8	0	0	0	0	508	508	0	0	
9	0	0	0	0	509	508	0	0	
10	0	0	0	0	510	509	0	0	
11	0	0	0	0	509	510	0	0	
12	0	0	0	0	508	509	0	0	
13	0	0	0	0	511	510	0	0	
14	0	0	0	0	510	511	0	0	
15	0	0	0	0	511	508	0	0	
0	0	0	0	0	511	506	0	0	
1	0	0	0	0	512	509	0	0	
2	0	0	0	0	514	508	0	0	
3	0	0	0	0	513	508	0	0	
4	0	0	0	0	512	507	0	0	
5	0	0	0	0	511	505	0	0	
6	0	0	0	0	513	507	0	0	
7	0	0	0	0	512	505	0	0	
8	0	0	0	0	513	508	0	0	
9	0	0	0	0	512	508	0	0	
10	0	0	0	0	511	508	0	0	
11	0	0	0	0	510	508	0	0	
12	0	0	0	0	510	508	0	0	
13	0	0	0	0	510	509	0	0	
14	0	0	0	0	511	508	0	0	
15	0	0	0	0	506	509	0	0	
0	0	0	0	0	507	508	0	0	
1	0	0	0	0	509	508	0	0	
2	0	0	0	0	511	511	0	0	
3	0	0	0	0	511	509	0	0	
4	0	0	0	0	511	508	0	0	
5	0	0	0	0	510	510	0	0	
6	0	0	0	0	511	510	0	0	
7	0	0	0	0	512	507	0	0	
8	0	0	0	0	513	508	0	0	
9	0	0	0	0	515	506	0	0	
10	0	0	0	0	513	506	0	0	
11	0	0	0	0	515	505	0	0	
12	0	0	0	0	514	506	0	0	
13	0	0	0	0	514	506	0	0	
14	0	0	0	0	512	507	0	0	
15	0	0	0	0	511	508	0	0	
0	0	0	0	0	510	508	0	0	
1	0	0	0	0	508	508	0	0	
2	0	0	0	0	508	507	0	0	
3	0	0	0	0	509	509	0	0	
4	0	0	0	0	508	510	0	0	
5	0	0	0	0	509	508	0	0	
6	0	0	0	0	510	510	0	0	
7	0	0	0	0	509	510	0	0	
8	0	0	0	0	511	510	0	0	
9	0	0	0	0	511	508	0	0	
10	0	0	0	0	511	508	0	0	
11	0	0	0	0	510	507	0	0	
12	0	0	0	0	514	505	0	0	
13	0	0	0	0	512	505	0	0	
14	0	0	0	0	515	508	0	0	
15	0	0	0	0	514	507	0	0	
0	0	0	0	0	514	507	0	0	
1	0	0	0	0	514	508	0	0	
2	0	0	0	0	513	507	0	0	
3	0	0	0	0	512	506	0	0	
4	0	0	0	0	510	508	0	0	
5	0	0	0	0	509	508	0	0	
6	0	0	0	0	508	508	0	0	
7	0	0	0	0	508	510	0	0	
8	0	0	0	0	508	511	0	0	
9	0	0	0	0	510	508	0	0	
10	0	0	0	0	509	506	0	0	
11	0	0	0	0	509	510	0	0	
12	0	0	0	0	511	510	0	0	
13	0	0	0	0	512	507	0	0	
14	0	0	0	0	510	508	0	0	
15	0	0	0	0	515	507	0	0	
0	0	0	0	0	514	505	0	0	
1	0	0	0	0	515	508	0	0	
2	0	0	0	0	515	508	0	0	
3	0	0	0	0	512	507	0	0	
4	0	0	0	0	513	508	0	0	
5	0	0	0	0	513	508	0	0	
6	0	0	0	0	511	508	0	0	
7	0	0	0	0	510	507	0	0	
8	0	0	0	0	510	508	0	0	
9	0	0	0	0	510	507	0	0	
10	0	0	0	0	508	509	0	0	
11	0	0	0	0	508	508	0	0	
12	0	0	0	0	510	508	0	0	
13	0	0	0	0	511	508	0	0	
14	0	0	0	0	511	510	0	0	
15	0	0	0	0	508	508	0	0	
0	0	0	0	0	511	508	0	0	
1	0	0	0	0	511	506	0	0	
2	0	0	0	0	510	509	0	0	
3	0	0	0	0	511	508	0	0	
4	0	0	0	0	509	507	0	0	
5	0	0	0	0	514	508	0	0	
6	0	0	0	0	514	505	0	0	
7	0	0	0	0	514	508	0	0	
8	0	0	0	0	513	507	0	0	
9	0	0	0	0	513	506	0	0	
10	0	0	0	0	513	509	0	0	
11	0	0	0	0	510	507	0	0	
12	0	0	0	0	511	508	0	0	
13	0	0	0	0	510	510	0	0	
14	0	0	0	0	509	508	0	0	
15	0	0	0	0	510	508	0	0	
0	0	0	0	0	509	509	0	0	
1	0	0	0	0	509	510	0	0	
2	0	0	0	0	510	508	0	0	
3	0	0	0	0	511	509	0	0	
4	0	0	0	0	510	508	0	0	
5	0	0	0	0	512	510	0	0	
6	0	0	0	0	512	508	0	0	
7	0	0	0	0	515	510	0	0	
8	0	0	0	0	512	507	0	0	
9	0	0	0	0	513	508	0	0	
10	0	0	0	0	513	505	0	0	
11	0	0	0	0	513	505	0	0	
12	0	0	0	0	514	508	0	0	
13	0	0	0	0	512	507	0	0	
14	0	0	0	0	511	507	0	0	
15	0	0	0	0	512	509	0	0	
0	0	0	0	0	511	507	0	0	
1	0	0	0	0	509	508	0	0	
2	0	0	0	0	509	507	0	0	
3	0	0	0	0	510	507	0	0	
4	0	0	0	0	508	509	0	0	
5	0	0	0	0	507	509	0	0	
6	0	0	0	0	510	509	0	0	
7	0	0	0	0	508	509	0	0	
8	0	0	0	0	508	510	0	0	
9	0	0	0	0	511	509	0	0	
10	0	0	0	0	513	508	0	0	
11	0	0	0	0	513	510	0	0	
12	0	0	0	0	511	508	0	0	
13	0	0	0	0	511	508	0	0	
14	0	0	0	0	514	504	0	0	
15	0	0	0	0	513	506	0	0	
0	0	0	0	0	512	505	0	0	
1	0	0	0	0	511	507	0	0	
2	0	0	0	0	512	508	0	0	
3	0	0	0	0	511	508	0	0	
4	0	0	0	0	509	506	0	0	
5	0	0	0	0	509	508	0	0	
6	0	0	0	0	508	510	0	0	
7	0	0	0	0	509	511	0	0	
8	0	0	0	0	509	508	0	0	
9	0	0	0	0	510	510	0	0	
10	0	0	0	0	510	508	0	0	
11	0	0	0	0	511	510	0	0	
12	0	0	0	0	510	507	0	0	
13	0	0	0	0	509	508	0	0	
14	0	0	0	0	513	507	0	0	
15	0	0	0	0	514	505	0	0	
0	0	0	0	0	514	508	0	0	
1	0	0	0	0	513	507	0	0	
2	0	0	0	0	511	505	0	0	
3	0	0	0	0	515	507	0	0	
4	0	0	0	0	511	507	0	0	
5	0	0	0	0	513	507	0	0	
6	0	0	0	0	513	508	0	0	
7	0	0	0	0	512	508	0	0	
8	0	0	0	0	508	506	0	0	
9	0	0	0	0	510	510	0	0	
10	0	0	0	0	508	510	0	0	
11	0	0	0	0	510	509	0	0	
12	0	0	0	0	506	510	0	0	
13	0	0	0	0	509	508	0	0	
14	0	0	0	0	509	510	0	0	
15	0	0	0	0	511	508	0	0	
0	0	0	0	0	509	508	0	0	
1	0	0	0	0	512	507	0	0	
2	0	0	0	0	511	508	0	0	
3	0	0	0	0	513	508	0	0	
4	0	0	0	0	514	507	0	0	
5	0	0	0	0	513	505	0	0	
6	0	0	0	0	512	506	0	0	
7	0	0	0	0	512	505	0	0	
8	0	0	0	0	512	506	0	0	
9	0	0	0	0	512	508	0	0	
10	0	0	0	0	511	507	0	0	
11	0	0	0	0	510	508	0	0	
12	0	0	0	0	511	507	0	0	
13	0	0	0	0	510	509	0	0	
14	0	0	0	0	509	508	0	0	
15	0	0	0	0	509	509	0	0	
0	0	0	0	0	509	509	0	0	
1	0	0	0	0	510	509	0	0	
2	0	0	0	0	511	510	0	0	
3	0	0	0	0	511	510	0	0	
4	0	0	0	0	510	507	0	0	
5	0	0	0	0	510	508	0	0	
6	0	0	0	0	511	508	0	0	
7	0	0	0	0	513	508	0	0	
8	0	0	0	0	513	508	0	0	
9	0	0	0	0	514	508	0	0	
10	0	0	0	0	514	505	0	0	
11	0	0	0	0	513	509	0	0	
12	0	0	0	0	514	507	0	0	
13	0	0	0	0	513	506	0	0	
14	0	0	0	0	513	508	0	0	
15	0	0	0	0	510	505	0	0	
0	0	0	0	0	510	508	0	0	
1	0	0	0	0	510	510	0	0	
2	0	0	0	0	510	507	0	0	
3	0	0	0	0	509	509	0	0	
4	0	0	0	0	508	510	0	0	
5	0	0	0	0	507	509	0	0	
6	0	0	0	0	509	509	0	0	
7	0	0	0	0	508	509	0	0	
8	0	0	0	0	510	508	0	0	
9	0	0	0	0	512	510	0	0	
10	0	0	0	0	512	508	0	0	
11	0	0	0	0	511	507	0	0	
12	0	0	0	0	511	505	0	0	
13	0	0	0	0	515	508	0	0	
14	0	0	0	0	516	506	0	0	
15	0	0	0	0	512	508	0	0	
0	0	0	0	0	514	507	0	0	
1	0	0	0	0	514	508	0	0	
2	0	0	0	0	510	508	0	0	
3	0	0	0	0	510	507	0	0	
4	0	0	0	0	511	508	0	0	
5	0	0	0	0	509	508	0	0	
6	0	0	0	0	509	510	0	0	
7	0	0	0	0	509	510	0	0	
8	0	0	0	0	508	509	0	0	
9	0	0	0	0	509	511	0	0	
10	0	0	0	0	510	509	0	0	
11	0	0	0	0	510	509	0	0	
12	0	0	0	0	512	509	0	0	
13	0	0	0	0	511	507	0	0	
14	0	0	0	0	511	508	0	0	
15	0	0	0	0	511	508	0	0	
0	0	0	0	0	514	508	0	0	
1	0	0	0	0	513	508	0	0	
2	0	0	0	0	512	506	0	0	
3	0	0	0	0	512	505	0	0	
4	0	0	0	0	512	505	0	0	
5	0	0	0	0	511	505	0	0	
6	0	0	0	0	513	507	0	0	
7	0	0	0	0	512	511	0	0	
8	0	0	0	0	511	508	0	0	
9	0	0	0	0	510	510	0	0	
10	0	0	0	0	510	508	0	0	
11	0	0	0	0	507	508	0	0	
12	0	0	0	0	506	509	0	0	
13	0	0	0	0	507	508	0	0	
14	0	0	0	0	511	509	0	0	
15	0	0	0	0	510	508	0	0	
0	0	0	0	0	510	507	0	0	
1	0	0	0	0	511	508	0	0	
2	0	0	0	0	512	509	0	0	
3	0	0	0	0	513	509	0	0	
4	0	0	0	0	514	506	0	0	
5	0	0	0	0	513	508	0	0	
6	0	0	0	0	515	505	0	0	
7	0	0	0	0	513	507	0	0	
8	0	0	0	0	513	506	0	0	
9	0	0	0	0	515	508	0	0	
10	0	0	0	0	511	506	0	0	
11	0	0	0	0	511	507	0	0	
12	0	0	0	0	509	508	0	0	
13	0	0	0	0	508	509	0	0	
14	0	0	0	0	508	508	0	0	
15	0	0	0	0	508	507	0	0	
0	0	0	0	0	511	510	0	0	
1	0	0	0	0	508	509	0	0	
2	0	0	0	0	510	510	0	0	
3	0	0	0	0	511	510	0	0	
4	0	0	0	0	510	507	0	0	
5	0	0	0	0	510	508	0	0	
6	0	0	0	0	512	509	0	0	
7	0	0	0	0	513	509	0	0	
8	0	0	0	0	512	508	0	0	
9	0	0	0	0	511	505	0	0	
10	0	0	0	0	514	508	0	0	
11	0	0	0	0	514	507	0	0	
12	0	0	0	0	512	508	0	0	
13	0	0	0	0	512	507	0	0	
14	0	0	0	0	512	507	0	0	
15	0	0	0	0	511	509	0	0	
0	0	0	0	0	509	507	0	0	
1	0	0	0	0	508	508	0	0	
2	0	0	0	0	511	510	0	0	
3	0	0	0	0	509	507	0	0	
4	0	0	0	0	509	507	0	0	
5	0	0	0	0	508	510	0	0	
6	0	0	0	0	509	510	0	0	
7	0	0	0	0	510	511	0	0	
8	0	0	0	0	512	508	0	0	
9	0	0	0	0	510	508	0	0	
10	0	0	0	0	511	511	0	0	
11	0	0	0	0	512	506	0	0	
12	0	0	0	0	513	505	0	0	
13	0	0	0	0	512	507	0	0	
14	0	0	0	0	514	507	0	0	
15	0	0	0	0	514	507	0	0	
0	0	0	0	0	514	507	0	0	
1	0	0	0	0	513	507	0	0	
2	0	0	0	0	512	508	0	0	
3	0	0	0	0	511	509	0	0	
4	0	0	0	0	512	508	0	0	
5	0	0	0	0	510	508	0	0	
6	0	0	0	0	507	509	0	0	
7	0	0	0	0	507	508	0	0	
8	0	0	0	0	507	509	0	0	
9	0	0	0	0	510	510	0	0	
10	0	0	0	0	509	509	0	0	
11	0	0	0	0	509	510	0	0	
12	0	0	0	0	510	508	0	0	
13	0	0	0	0	509	510	0	0	
14	0	0	0	0	513	508	0	0	
15	0	0	0	0	512	508	0	0	
0	0	0	0	0	512	508	0	0	
1	0	0	0	0	513	507	0	0	
2	0	0	0	0	513	506	0	0	
3	0	0	0	0	515	508	0	0	
4	0	0	0	0	513	507	0	0	
5	0	0	0	0	511	506	0	0	
6	0	0	0	0	512	507	0	0	
7	0	0	0	0	510	509	0	0	
8	0	0	0	0	509	506	0	0	
9	0	0	0	0	510	509	0	0	
10	0	0	0	0	510	510	0	0	
11	0	0	0	0	508	508	0	0	
12	0	0	0	0	510	508	0	0	
13	0	0	0	0	506	510	0	0	
14	0	0	0	0	509	508	0	0	
15	0	0	0	0	511	507	0	0	
0	0	0	0	0	511	508	0	0	
1	0	0	0	0	512	508	0	0	
2	0	0	0	0	512	508	0	0	
3	0	0	0	0	515	508	0	0	
4	0	0	0	0	515	508	0	0	
5	0	0	0	0	511	507	0	0	
6	0	0	0	0	513	507	0	0	
7	0	0	0	0	513	505	0	0	
8	0	0	0	0	513	508	0	0	
9	0	0	0	0	511	505	0	0	
10	0	0	0	0	512	506	0	0	
11	0	0	0	0	510	509	0	0	
12	0	0	0	0	511	509	0	0	
13	0	0	0	0	510	507	0	0	
14	0	0	0	0	508	511	0	0	
15	0	0	0	0	510	507	0	0	
0	0	0	0	0	508	508	0	0	
1	0	0	0	0	507	509	0	0	
2	0	0	0	0	508	508	0	0	
3	0	0	0	0	508	507	0	0	
4	0	0	0	0	508	509	0	0	
5	0	0	0	0	510	509	0	0	
6	0	0	0	0	511	510	0	0	
7	0	0	0	0	513	508	0	0	
8	0	0	0	0	513	509	0	0	
9	0	0	0	0	515	507	0	0	
10	0	0	0	0	515	506	0	0	
11	0	0	0	0	514	504	0	0	
12	0	0	0	0	515	508	0	0	
13	0	0	0	0	515	506	0	0	
14	0	0	0	0	511	508	0	0	
15	0	0	0	0	510	509	0	0	
0	0	0	0	0	510	508	0	0	
1	0	0	0	0	509	508	0	0	
2	0	0	0	0	510	508	0	0	
3	0	0	0	0	507	507	0	0	
4	0	0	0	0	507	509	0	0	
5	0	0	0	0	508	509	0	0	
6	0	0	0	0	507	509	0	0	
7	0	0	0	0	511	509	0	0	
8	0	0	0	0	511	509	0	0	
9	0	0	0	0	512	510	0	0	
10	0	0	0	0	513	510	0	0	
11	0	0	0	0	515	506	0	0	
12	0	0	0	0	512	507	0	0	
13	0	0	0	0	513	507	0	0	
14	0	0	0	0	517	509	0	0	
15	0	0	0	0	513	506	0	0	
0	0	0	0	0	512	508	0	0	
1	0	0	0	0	512	506	0	0	
2	0	0	0	0	512	505	0	0	
3	0	0	0	0	511	508	0	0	
4	0	0	0	0	511	508	0	0	
5	0	0	0	0	507	507	0	0	
6	0	0	0	0	508	508	0	0	
7	0	0	0	0	508	507	0	0	
8	0	0	0	0	508	507	0	0	
9	0	0	0	0	505	509	0	0	
10	0	0	0	0	509	508	0	0	
11	0	0	0	0	511	508	0	0	
12	0	0	0	0	512	510	0	0	
13	0	0	0	0	513	510	0	0	
14	0	0	0	0	512	510	0	0	
15	0	0	0	0	511	508	0	0	
0	0	0	0	0	511	510	0	0	
1	0	0	0	0	515	509	0	0	
2	0	0	0	0	514	508	0	0	
3	0	0	0	0	513	508	0	0	
4	0	0	0	0	512	507	0	0	
5	0	0	0	0	511	508	0	0	
6	0	0	0	0	512	506	0	0	
7	0	0	0	0	511	507	0	0	
8	0	0	0	0	510	508	0	0	
9	0	0	0	0	509	507	0	0	
10	0	0	0	0	509	508	0	0	
11	0	0	0	0	509	509	0	0	
12	0	0	0	0	508	507	0	0	
13	0	0	0	0	507	509	0	0	
14	0	0	0	0	507	510	0	0	
15	0	0	0	0	510	509	0	0	
0	0	0	0	0	512	508	0	0	
1	0	0	0	0	512	508	0	0	
2	0	0	0	0	512	508	0	0	
3	0	0	0	0	514	507	0	0	
4	0	0	0	0	511	508	0	0	
5	0	0	0	0	512	508	0	0	
6	0	0	0	0	514	508	0	0	
7	0	0	0	0	511	505	0	0	
8	0	0	0	0	515	507	0	0	
9	0	0	0	0	512	508	0	0	
10	0	0	0	0	512	508	0	0	
11	0	0	0	0	514	507	0	0	
12	0	0	0	0	509	506	0	0	
13	0	0	0	0	505	506	0	0	
14	0	0	0	0	507	507	0	0	
15	0	0	0	0	507	510	0	0	
0	0	0	0	0	508	509	0	0	
1	0	0	0	0	508	509	0	0	
2	0	0	0	0	511	511	0	0	
3	0	0	0	0	511	509	0	0	
4	0	0	0	0	511	507	0	0	
5	0	0	0	0	511	508	0	0	
6	0	0	0	0	511	508	0	0	
7	0	0	0	0	511	508	0	0	
8	0	0	0	0	515	510	0	0	
9	0	0	0	0	515	508	0	0	
10	0	0	0	0	513	506	0	0	
11	0	0	0	0	512	505	0	0	
12	0	0	0	0	514	508	0	0	
13	0	0	0	0	512	508	0	0	
14	0	0	0	0	511	509	0	0	
15	0	0	0	0	506	506	0	0	
0	0	0	0	0	505	508	0	0	
1	0	0	0	0	507	508	0	0	
2	0	0	0	0	507	506	0	0	
3	0	0	0	0	506	507	0	0	
4	0	0	0	0	507	508	0	0	
5	0	0	0	0	514	510	0	0	
6	0	0	0	0	513	507	0	0	
7	0	0	0	0	510	507	0	0	
8	0	0	0	0	510	510	0	0	
9	0	0	0	0	516	511	0	0	
10	0	0	0	0	514	509	0	0	
11	0	0	0	0	515	507	0	0	
12	0	0	0	0	518	506	0	0	
13	0	0	0	0	520	507	0	0	
14	0	0	0	0	517	508	0	0	
15	0	0	0	0	516	508	0	0	
0	0	0	0	0	515	508	0	0	
1	0	0	0	0	511	507	0	0	
2	0	0	0	0	511	506	0	0	
3	0	0	0	0	508	507	0	0	
4	0	0	0	0	508	506	0	0	
5	0	0	0	0	507	508	0	0	
6	0	0	0	0	508	510	0	0	
7	0	0	0	0	507	510	0	0	
8	0	0	0	0	508	508	0	0	
9	0	0	0	0	507	510	0	0	
10	0	0	0	0	510	508	0	0	
11	0	0	0	0	512	510	0	0	
12	0	0	0	0	508	507	0	0	
13	0	0	0	0	510	507	0	0	
14	0	0	0	0	509	506	0	0	
15	0	0	0	0	513	510	0	0	
0	0	0	0	0	512	508	0	0	
1	0	0	0	0	513	507	1	0	
2	0	0	0	0	512	505	0	0	
3	0	0	0	0	517	505	1	0	
4	0	0	0	0	511	508	1	0	
5	0	0	0	0	503	510	3	0	
6	0	0	0	0	503	509	2	0	
7	0	0	0	0	502	508	3	0	
8	0	0	0	0	508	510	6	0	
9	0	0	0	0	508	508	7	0	
10	0	0	0	0	511	508	7	0	
11	0	0	0	0	508	507	8	0	
12	0	0	0	0	518	510	9	0	
13	0	0	0	0	525	512	12	0	
14	0	0	0	0	526	511	14	0	
15	0	0	0	0	511	510	15	0	
0	0	0	0	0	507	508	17	0	
1	0	0	0	0	501	508	18	0	
2	0	0	0	0	501	508	19	0	
3	0	0	0	0	502	507	20	0	
4	0	0	0	0	509	506	21	0	
5	0	0	0	0	518	506	21	0	
6	0	0	0	0	522	507	22	0	
7	0	0	0	0	519	506	23	0	
8	0	0	0	0	520	507	22	0	
9	0	0	0	0	523	506	23	0	
10	0	0	0	0	515	509	28	0	
11	0	0	0	0	506	508	30	0	
12	0	0	0	0	504	505	31	0	
13	0	0	0	0	505	507	32	0	
14	0	0	0	0	510	508	32	0	
15	0	0	0	0	515	511	32	0	
0	0	0	0	0	514	514	32	0	
1	0	0	0	0	513	516	33	0	
2	0	0	0	0	512	513	33	0	
3	0	0	0	0	510	508	34	0	
4	0	0	0	0	505	506	33	0	
5	0	0	0	0	503	504	33	0	
6	0	0	0	0	503	506	34	0	
7	0	0	0	0	507	507	34	0	
8	0	0	0	0	511	508	33	0	
9	0	0	0	0	511	505	34	0	
10	0	0	0	0	514	504	40	0	
11	0	0	0	0	514	507	40	0	
12	0	0	0	0	512	507	45	0	
13	0	0	0	0	514	503	41	0	
14	0	0	0	0	512	503	39	0	
15	0	0	0	0	509	506	36	0	
0	0	0	0	0	512	513	40	0	
1	0	0	0	0	507	517	40	0	
2	0	0	0	0	508	515	38	0	
3	0	0	0	0	504	508	39	0	
4	0	0	0	0	510	507	39	0	
5	0	0	0	0	512	505	47	0	
6	0	0	0	0	510	508	47	0	
7	0	0	0	0	509	509	43	0	
8	0	0	0	0	513	508	49	0	
9	0	0	0	0	511	510	51	0	
10	0	0	0	0	516	511	58	0	
11	0	0	0	0	515	506	65	0	
12	0	0	0	0	507	507	60	0	
13	0	0	0	0	504	508	59	0	
14	0	0	0	0	507	508	65	0	
15	0	0	0	0	514	508	71	0	
0	0	0	0	0	524	509	72	0	
1	0	0	0	0	522	505	77	0	
2	0	0	0	0	516	507	78	0	
3	0	0	0	0	510	505	79	0	
4	0	0	0	0	508	505	81	0	
5	0	0	0	0	507	508	82	0	
6	0	0	0	0	505	510	84	0	
7	0	0	0	0	503	509	87	0	
8	0	0	0	0	503	511	83	0	
9	0	0	0	0	496	508	82	0	
10	0	0	0	0	499	506	82	0	
11	0	0	0	0	508	509	83	0	
12	0	0	0	0	518	509	80	0	
13	0	0	0	0	528	508	80	0	
14	0	0	0	0	531	509	80	0	
15	0	0	0	0	512	507	80	0	
0	0	0	0	0	510	508	78	0	
1	0	0	0	0	509	506	78	0	
2	0	0	0	0	504	506	79	0	
3	0	0	0	0	505	507	79	0	
4	0	0	0	0	511	505	81	0	
5	0	0	0	0	536	505	91	0	
6	0	0	0	0	540	508	89	0	
7	0	0	0	0	527	509	90	0	
8	0	0	0	0	520	511	92	0	
9	0	0	0	0	504	509	97	0	
10	0	0	0	0	499	507	99	0	
11	0	0	0	0	504	507	99	0	
12	0	0	0	0	502	511	99	0	
13	0	0	0	0	507	509	99	0	
14	0	0	0	0	506	504	103	0	
15	0	0	0	0	507	509	105	0	
0	0	0	0	0	504	508	105	0	
1	0	0	0	0	510	511	108	0	
2	0	0	0	0	503	511	110	0	
3	0	0	0	0	507	510	107	0	
4	0	0	0	0	515	511	107	0	
5	0	0	0	0	511	504	107	0	
6	0	0	0	0	507	505	108	0	
7	0	0	0	0	504	505	110	0	
8	0	0	0	0	508	506	112	0	
9	0	0	0	0	515	507	114	0	
10	0	0	0	0	516	505	111	0	
11	0	0	0	0	512	504	113	0	
12	0	0	0	0	511	507	112	0	
13	0	0	0	0	512	510	115	0	
14	0	0	0	0	518	513	118	0	
15	0	0	0	0	511	513	117	0	
0	0	0	0	0	514	513	115	0	
1	0	0	0	0	515	513	119	0	
2	0	0	0	0	507	508	116	0	
3	0	0	0	0	508	507	117	0	
4	0	0	0	0	507	505	119	0	
5	0	0	0	0	511	507	120	0	
6	0	0	0	0	509	501	120	0	
7	0	0	0	0	510	508	125	0	
8	0	0	0	0	512	511	127	0	
9	0	0	0	0	515	507	119	0	
10	0	0	0	0	517	507	115	0	
11	0	0	0	0	518	509	117	0	
12	0	0	0	0	515	510	115	0	
13	0	0	0	0	513	508	117	0	
14	0	0	0	0	507	505	122	0	
15	0	0	0	0	504	509	125	0	
0	0	0	0	0	504	505	127	0	
1	0	0	0	0	505	511	128	0	
2	0	0	0	0	504	511	129	0	
3	0	0	0	0	510	511	131	0	
4	0	0	0	0	507	505	135	0	
5	0	0	0	0	509	504	134	0	
6	0	0	0	0	508	507	137	0	
7	0	0	0	0	505	507	137	0	
8	0	0	0	0	507	506	138	0	
9	0	0	0	0	506	508	136	0	
10	0	0	0	0	512	509	140	0	
11	0	0	0	0	522	515	143	0	
12	0	0	0	0	524	512	145	0	
13	0	0	0	0	517	506	147	0	
14	0	0	0	0	520	506	149	0	
15	0	0	0	0	518	504	147	0	
0	0	0	0	0	521	508	149	0	
1	0	0	0	0	517	509	150	0	
2	0	0	0	0	512	505	149	0	
3	0	0	0	0	505	505	149	0	
4	0	0	0	0	508	504	151	0	
5	0	0	0	0	520	507	152	0	
6	0	0	0	0	512	507	152	0	
7	0	0	0	0	506	507	152	0	
8	0	0	0	0	501	513	154	0	
9	0	0	0	0	494	510	157	0	
10	0	0	0	0	503	515	159	0	
11	0	0	0	0	499	516	159	0	
12	0	0	0	0	505	512	161	0	
13	0	0	0	0	508	509	160	0	
14	0	0	0	0	511	505	161	0	
15	0	0	0	0	511	502	164	0	
0	0	0	0	0	515	504	166	0	
1	0	0	0	0	526	506	168	0	
2	0	0	0	0	524	511	167	0	
3	0	0	0	0	515	513	169	0	
4	0	0	0	0	516	508	171	0	
5	0	0	0	0	513	501	173	0	
6	0	0	0	0	524	503	173	0	
7	0	0	0	0	514	510	171	0	
8	0	0	0	0	506	509	172	0	
9	0	0	0	0	501	508	175	0	
10	0	0	0	0	508	508	178	0	
11	0	0	0	0	501	507	180	0	
12	0	0	0	0	495	504	181	0	
13	0	0	0	0	497	505	184	0	
14	0	0	0	0	497	505	184	0	
15	0	0	0	0	498	510	181	0	
0	0	0	0	0	503	510	184	0	
1	0	0	0	0	513	514	186	0	
2	0	0	0	0	512	513	186	0	
3	0	0	0	0	513	508	187	0	
4	0	0	0	0	534	513	188	0	
5	0	0	0	0	537	506	188	0	
6	0	0	0	0	523	507	188	0	
7	0	0	0	0	519	510	191	0	
8	0	0	0	0	518	508	188	0	
9	0	0	0	0	507	504	192	0	
10	0	0	0	0	508	508	197	0	
11	0	0	0	0	520	506	199	0	
12	0	0	0	0	529	502	204	0	
13	0	0	0	0	515	509	204	0	
14	0	0	0	0	502	505	205	0	
15	0	0	0	0	506	507	207	0	
0	0	0	0	0	507	512	211	0	
1	0	0	0	0	515	505	213	0	
2	0	0	0	0	519	501	215	0	
3	0	0	0	0	521	508	216	0	
4	0	0	0	0	514	507	221	0	
5	0	0	0	0	503	513	227	0	
6	0	0	0	0	500	518	226	0	
7	0	0	0	0	499	515	227	0	
8	0	0	0	0	502	510	227	0	
9	0	0	0	0	506	507	229	0	
10	0	0	0	0	513	504	230	0	
11	0	0	0	0	525	499	228	0	
12	0	0	0	0	516	505	230	0	
13	0	0	0	0	504	513	231	0	
14	0	0	0	0	499	504	234	0	
15	0	0	0	0	501	505	237	0	
0	0	0	0	0	502	503	236	0	
1	0	0	0	0	509	511	237	0	
2	0	0	0	0	512	514	240	0	
3	0	0	0	0	505	515	240	0	
4	0	0	0	0	512	507	245	0	
5	0	0	0	0	510	507	249	0	
6	0	0	0	0	508	514	248	0	
7	0	0	0	0	512	511	251	0	
8	0	0	0	0	518	510	252	0	
9	0	0	0	0	523	508	257	0	
10	0	0	0	0	524	503	265	0	
11	0	0	0	0	512	500	267	0	
12	0	0	0	0	515	504	271	0	
13	0	0	0	0	520	510	272	0	
14	0	0	0	0	509	506	273	0	
15	0	0	0	0	511	507	276	0	
0	0	0	0	0	514	509	278	0	
1	0	0	0	0	519	512	280	0	
2	0	0	0	0	508	509	286	0	
3	0	0	0	0	493	503	289	0	
4	0	0	0	0	487	504	287	0	
5	0	0	0	0	496	515	288	0	
6	0	0	0	0	516	518	293	0	
7	0	0	0	0	524	513	294	0	
8	0	0	0	0	530	499	293	0	
9	0	0	0	0	519	501	295	0	
10	0	0	0	0	512	499	295	0	
11	0	0	0	0	502	506	296	1	
12	0	0	0	0	510	509	299	5	
13	0	0	0	0	506	498	300	6	
14	0	0	0	0	507	502	302	6	
15	0	0	0	0	520	508	303	7	
0	0	0	0	0	525	509	304	7	
1	0	0	0	0	518	505	305	8	
2	0	0	0	0	509	508	309	9	
3	0	0	0	0	508	501	310	9	
4	0	0	0	0	517	510	310	11	
5	0	0	0	0	516	515	312	13	
6	0	0	0	0	519	514	318	14	
7	0	0	0	0	508	511	321	11	
8	0	0	0	0	504	506	321	13	
9	0	0	0	0	499	514	322	21	
10	0	0	0	0	494	517	323	20	
11	0	0	0	0	490	509	323	23	
12	0	0	0	0	492	508	325	26	
13	0	0	0	0	499	510	329	31	
14	0	0	0	0	495	516	332	31	
15	0	0	0	0	501	515	332	31	
0	0	0	0	0	507	519	332	31	
1	0	0	0	0	498	513	332	37	
2	0	0	0	0	506	512	333	44	
3	0	0	0	0	525	509	333	46	
4	0	0	0	0	547	498	336	45	
5	0	0	0	0	532	492	337	43	
6	0	0	0	0	508	496	337	43	
7	0	0	0	0	518	511	339	46	
8	0	0	0	0	510	511	341	48	
9	0	0	0	0	512	511	342	47	
10	0	0	0	0	518	507	342	51	
11	0	0	0	0	513	511	345	71	
12	0	0	0	0	510	511	344	76	
13	0	0	0	0	510	504	346	73	
14	0	0	0	0	512	516	347	77	
15	0	0	0	0	519	520	348	72	
0	0	0	0	0	521	510	347	68	
1	0	0	0	0	523	506	346	69	
2	0	0	0	0	511	504	346	76	
3	0	0	0	0	508	509	347	69	
4	0	0	0	0	504	507	348	73	
5	0	0	0	0	502	498	349	89	
6	0	0	0	0	503	505	347	96	
7	0	0	0	0	503	513	348	94	
8	0	0	0	0	513	517	349	96	
9	0	0	0	0	514	508	353	105	
10	0	0	0	0	517	508	354	113	
11	0	0	0	0	521	505	356	116	
12	0	0	0	0	534	504	356	120	
13	0	0	0	0	516	497	358	119	
14	0	0	0	0	504	497	360	124	
15	0	0	0	0	496	509	366	125	
0	0	0	0	0	501	506	369	125	
1	0	0	0	0	503	504	371	129	
2	0	0	0	0	511	512	373	133	
3	0	0	0	0	510	511	376	133	
4	0	0	0	0	501	511	379	140	
5	0	0	0	0	500	513	379	142	
6	0	0	0	0	511	511	378	146	
7	0	0	0	0	507	507	378	152	
8	0	0	0	0	517	502	379	152	
9	0	0	0	0	535	503	381	159	
10	0	0	0	0	528	504	383	160	
11	0	0	0	0	526	507	384	159	
12	0	0	0	0	520	509	383	164	
13	0	0	0	0	521	511	385	171	
14	0	0	0	0	515	518	384	174	
15	0	0	0	0	506	515	385	178	
0	0	0	0	0	510	507	384	188	
1	0	0	0	0	512	507	387	203	
2	0	0	0	0	505	510	388	204	
3	0	0	0	0	488	505	391	198	
4	0	0	0	0	492	493	395	201	
5	0	0	0	0	505	508	394	201	
6	0	0	0	0	507	505	394	204	
7	0	0	0	0	527	520	394	204	
8	0	0	0	0	504	516	395	204	
9	0	0	0	0	513	508	392	209	
10	0	0	0	0	513	503	393	213	
11	0	0	0	0	514	504	395	218	
12	0	0	0	0	510	500	398	220	
13	0	0	0	0	505	508	396	223	
14	0	0	0	0	507	521	395	243	
15	0	0	0	0	514	519	397	273	
0	0	0	0	0	519	503	397	277	
1	0	0	0	0	520	504	397	277	
2	0	0	0	0	510	503	399	276	
3	0	0	0	0	505	502	397	278	
4	0	0	0	0	508	503	403	278	
5	0	0	0	0	525	505	404	278	
6	0	0	0	0	525	505	405	278	
7	0	0	0	0	518	502	405	280	
8	0	0	0	0	518	508	406	283	
9	0	0	0	0	516	513	408	285	
10	0	0	0	0	515	515	408	286	
11	0	0	0	0	510	510	409	288	
12	0	0	0	0	505	510	409	292	
13	0	0	0	0	505	505	408	293	
14	0	0	0	0	509	510	407	297	
15	0	0	0	0	503	513	407	299	
0	0	0	0	0	504	503	409	299	
1	0	0	0	0	509	500	409	299	
2	0	0	0	0	513	503	410	299	
3	0	0	0	0	515	522	409	302	
4	0	0	0	0	511	511	409	300	
5	0	0	0	0	509	508	411	301	
6	0	0	0	0	508	514	412	300	
7	0	0	0	0	513	515	411	300	
8	0	0	0	0	504	511	411	301	
9	0	0	0	0	503	502	414	311	
10	0	0	0	0	505	498	413	312	
11	0	0	0	0	512	507	414	318	
12	0	0	0	0	520	515	413	322	
13	0	0	0	0	509	508	412	322	
14	0	0	0	0	504	501	413	321	
15	0	0	0	0	505	500	412	320	
0	0	0	0	0	507	508	412	321	
1	0	0	0	0	505	505	413	319	
2	0	0	0	0	502	504	417	320	
3	0	0	0	0	494	511	421	323	
4	0	0	0	0	509	511	420	326	
5	0	0	0	0	527	514	421	327	
6	0	0	0	0	529	512	423	327	
7	0	0	0	0	519	506	423	326	
8	0	0	0	0	506	502	423	324	
9	0	0	0	0	516	515	422	327	
10	0	0	0	0	527	516	422	327	
11	0	0	0	0	528	513	422	329	
12	0	0	0	0	516	506	423	329	
13	0	0	0	0	503	503	428	332	
14	0	0	0	0	503	504	425	332	
15	0	0	0	0	502	502	426	333	
0	0	0	0	0	509	504	426	339	
1	0	0	0	0	511	510	426	340	
2	0	0	0	0	514	517	426	339	
3	0	0	0	0	516	513	427	340	
4	0	0	0	0	514	512	426	339	
5	0	0	0	0	508	505	428	342	
6	0	0	0	0	503	506	429	343	
7	0	0	0	0	507	508	430	344	
8	0	0	0	0	507	501	429	346	
9	0	0	0	0	519	498	429	347	
10	0	0	0	0	516	504	428	347	
11	0	0	0	0	513	511	431	347	
12	0	0	0	0	509	509	430	346	
13	0	0	0	0	493	510	430	347	
14	0	0	0	0	499	521	431	350	
15	0	0	0	0	511	516	433	350	
0	0	0	0	0	517	510	435	351	
1	0	0	0	0	527	504	434	351	
2	0	0	0	0	519	505	435	352	
3	0	0	0	0	513	505	435	352	
4	0	0	0	0	503	507	440	350	
5	0	0	0	0	505	508	441	351	
6	0	0	0	0	507	504	441	352	
7	0	0	0	0	512	504	444	352	
8	0	0	0	0	511	502	442	356	
9	0	0	0	0	511	503	443	357	
10	0	0	0	0	518	507	441	359	
11	0	0	0	0	511	515	443	357	
12	0	0	0	0	509	523	444	358	
13	0	0	0	0	513	511	444	359	
14	0	0	0	0	511	502	446	359	
15	0	0	0	0	504	505	446	359	
0	0	0	0	0	503	507	447	361	
1	0	0	0	0	507	511	446	360	
2	0	0	0	0	512	512	448	360	
3	0	0	0	0	512	511	451	360	
4	0	0	0	0	516	504	450	361	
5	0	0	0	0	515	509	451	363	
6	0	0	0	0	519	507	450	361	
7	0	0	0	0	519	502	450	361	
8	0	0	0	0	509	503	451	362	
9	0	0	0	0	505	509	450	366	
10	0	0	0	0	511	510	449	363	
11	0	0	0	0	516	512	449	363	
12	0	0	0	0	517	510	450	361	
13	0	0	0	0	511	508	448	361	
14	0	0	0	0	502	509	450	363	
15	0	0	0	0	504	510	451	364	
0	0	0	0	0	508	506	451	364	
1	0	0	0	0	513	503	452	364	
2	0	0	0	0	515	502	451	366	
3	0	0	0	0	511	501	450	367	
4	0	0	0	0	507	508	451	366	
5	0	0	0	0	511	519	450	368	
6	0	0	0	0	516	516	451	367	
7	0	0	0	0	517	506	451	366	
8	0	0	0	0	521	507	451	366	
9	0	0	0	0	509	507	451	364	
10	0	0	0	0	509	507	452	363	
11	0	0	0	0	507	512	452	365	
12	0	0	0	0	510	509	452	366	
13	0	0	0	0	511	512	452	366	
14	0	0	0	0	516	509	453	367	
15	0	0	0	0	514	506	453	367	
0	0	0	0	0	505	507	453	366	
1	0	0	0	0	510	503	453	366	
2	0	0	0	0	504	497	454	361	
3	0	0	0	0	510	502	454	361	
4	0	0	0	0	511	516	454	359	
5	0	0	0	0	512	509	452	358	
6	0	0	0	0	513	509	454	358	
7	0	0	0	0	517	511	453	357	
8	0	0	0	0	512	509	454	357	
9	0	0	0	0	512	509	455	356	
10	0	0	0	0	515	509	455	358	
11	0	0	0	0	511	503	455	358	
12	0	0	0	0	509	507	456	355	
13	0	0	0	0	513	511	456	355	
14	0	0	0	0	514	510	456	355	
15	0	0	0	0	511	510	456	355	
0	0	0	0	0	509	510	456	354	
1	0	0	0	0	505	508	456	352	
2	0	0	0	0	509	509	455	351	
3	0	0	0	0	508	505	456	351	
4	0	0	0	0	502	500	456	350	
5	0	0	0	0	507	498	457	347	
6	0	0	0	0	513	506	459	346	
7	0	0	0	0	511	514	458	347	
8	0	0	0	0	511	518	458	348	
9	0	0	0	0	507	509	458	347	
10	0	0	0	0	508	504	457	346	
11	0	0	0	0	509	501	457	348	
12	0	0	0	0	509	504	458	344	
13	0	0	0	0	512	505	457	343	
14	0	0	0	0	513	511	458	340	
15	0	0	0	0	514	516	459	338	
0	0	0	0	0	514	516	458	337	
1	0	0	0	0	514	511	459	336	
2	0	0	0	0	512	513	458	336	
3	0	0	0	0	509	507	459	336	
4	0	0	0	0	504	506	458	335	
5	0	0	0	0	510	508	458	335	
6	0	0	0	0	513	506	458	334	
7	0	0	0	0	501	504	458	335	
8	0	0	0	0	502	504	457	334	
9	0	0	0	0	508	507	458	335	
10	0	0	0	0	523	511	458	335	
11	0	0	0	0	531	506	458	334	
12	0	0	0	0	528	511	459	333	
13	0	0	0	0	523	513	459	334	
14	0	0	0	0	512	509	459	333	
15	0	0	0	0	511	502	460	333	
0	0	0	0	0	509	500	459	332	
1	0	0	0	0	505	502	460	332	
2	0	0	0	0	506	507	459	331	
3	0	0	0	0	510	511	458	331	
4	0	0	0	0	514	506	458	329	
5	0	0	0	0	510	507	457	331	
6	0	0	0	0	506	512	457	331	
7	0	0	0	0	509	518	456	329	
8	0	0	0	0	510	514	457	327	
9	0	0	0	0	510	502	456	328	
10	0	0	0	0	509	498	456	329	
11	0	0	0	0	515	508	457	330	
12	0	0	0	0	515	512	456	327	
13	0	0	0	0	514	503	456	329	
14	0	0	0	0	511	501	455	329	
15	0	0	0	0	513	513	455	328	
0	0	0	0	0	513	508	455	328	
1	0	0	0	0	499	511	455	327	
2	0	0	0	0	504	507	455	327	
3	0	0	0	0	516	512	454	317	
4	0	0	0	0	508	512	455	315	
5	0	0	0	0	508	511	454	316	
6	0	0	0	0	510	515	454	316	
7	0	0	0	0	512	511	453	315	
8	0	0	0	0	513	508	452	315	
9	0	0	0	0	516	503	452	316	
10	0	0	0	0	515	498	453	316	
11	0	0	0	0	514	508	453	315	
12	0	0	0	0	512	513	452	315	
13	0	0	0	0	503	505	451	314	
14	0	0	0	0	502	500	451	313	
15	0	0	0	0	505	508	451	313	
0	0	0	0	0	509	508	452	312	
1	0	0	0	0	511	513	453	312	
2	0	0	0	0	504	512	453	311	
3	0	0	0	0	511	510	452	309	
4	0	0	0	0	516	511	453	310	
5	0	0	0	0	515	505	452	309	
6	0	0	0	0	515	507	454	309	
7	0	0	0	0	512	505	453	309	
8	0	0	0	0	511	503	451	310	
9	0	0	0	0	511	507	452	310	
10	0	0	0	0	515	508	452	309	
11	0	0	0	0	511	511	452	310	
12	0	0	0	0	511	510	452	308	
13	0	0	0	0	512	511	452	309	
14	0	0	0	0	513	510	452	308	
15	0	0	0	0	509	507	452	307	
0	0	0	0	0	502	503	451	307	
1	0	0	0	0	508	503	452	307	
2	0	0	0	0	512	502	452	307	
3	0	0	0	0	511	505	453	306	
4	0	0	0	0	515	515	453	305	
5	0	0	0	0	515	515	453	305	
6	0	0	0	0	516	515	453	304	
7	0	0	0	0	516	513	453	304	
8	0	0	0	0	513	508	453	302	
9	0	0	0	0	507	506	453	302	
10	0	0	0	0	497	505	451	302	
11	0	0	0	0	499	508	452	301	
12	0	0	0	0	499	506	451	301	
13	0	0	0	0	505	504	451	302	
14	0	0	0	0	518	499	451	300	
15	0	0	0	0	523	501	451	300	
0	0	0	0	0	531	507	451	299	
1	0	0	0	0	530	509	451	298	
2	0	0	0	0	517	514	450	299	
3	0	0	0	0	515	513	450	299	
4	0	0	0	0	508	513	450	299	
5	0	0	0	0	505	507	451	299	
6	0	0	0	0	502	507	450	299	
7	0	0	0	0	499	507	449	298	
8	0	0	0	0	505	509	450	297	
9	0	0	0	0	521	510	451	298	
10	0	0	0	0	522	505	452	299	
11	0	0	0	0	507	501	452	298	
12	0	0	0	0	500	503	452	299	
13	0	0	0	0	495	502	451	297	
14	0	0	0	0	496	508	452	297	
15	0	0	0	0	509	512	452	297	
0	0	0	0	0	521	515	452	297	
1	0	0	0	0	526	511	451	296	
2	0	0	0	0	521	507	452	297	
3	0	0	0	0	518	505	453	297	
4	0	0	0	0	514	507	454	298	
5	0	0	0	0	512	509	453	297	
6	0	0	0	0	508	508	454	296	
7	0	0	0	0	503	502	454	295	
8	0	0	0	0	508	506	455	295	
9	0	0	0	0	512	515	455	295	
10	0	0	0	0	504	515	454	294	
11	0	0	0	0	510	507	454	294	
12	0	0	0	0	512	511	455	295	
13	0	0	0	0	506	508	454	295	
14	0	0	0	0	505	508	455	295	
15	0	0	0	0	507	507	455	295	
0	0	0	0	0	510	509	454	294	
1	0	0	0	0	514	509	454	295	
2	0	0	0	0	514	508	454	295	
3	0	0	0	0	513	504	454	295	
4	0	0	0	0	508	503	454	295	
5	0	0	0	0	506	499	454	295	
6	0	0	0	0	510	509	454	295	
7	0	0	0	0	520	514	454	294	
8	0	0	0	0	524	514	455	295	
9	0	0	0	0	525	513	455	294	
10	0	0	0	0	520	508	455	295	
11	0	0	0	0	510	506	454	295	
12	0	0	0	0	508	510	455	295	
13	0	0	0	0	498	508	455	294	
14	0	0	0	0	504	510	455	295	
15	0	0	0	0	496	511	455	294	
0	0	0	0	0	501	512	455	293	
1	0	0	0	0	510	506	455	294	
2	0	0	0	0	511	496	455	294	
3	0	0	0	0	514	500	455	294	
4	0	0	0	0	515	506	455	295	
5	0	0	0	0	523	502	454	295	
6	0	0	0	0	515	509	454	295	
7	0	0	0	0	513	518	454	295	
8	0	0	0	0	510	516	455	295	
9	0	0	0	0	511	511	454	295	
10	0	0	0	0	511	510	456	295	
11	0	0	0	0	517	509	455	295	
12	0	0	0	0	516	504	456	295	
13	0	0	0	0	509	500	456	295	
14	0	0	0	0	515	508	455	295	
15	0	0	0	0	520	516	455	296	
0	0	0	0	0	514	507	456	295	
1	0	0	0	0	504	501	456	295	
2	0	0	0	0	499	507	455	295	
3	0	0	0	0	501	505	455	295	
4	0	0	0	0	503	505	455	296	
5	0	0	0	0	503	509	455	296	
6	0	0	0	0	513	514	454	295	
7	0	0	0	0	513	504	454	295	
8	0	0	0	0	513	504	455	295	
9	0	0	0	0	511	516	455	296	
10	0	0	0	0	515	516	455	295	
11	0	0	0	0	517	507	456	295	
12	0	0	0	0	510	508	455	295	
13	0	0	0	0	505	513	455	296	
14	0	0	0	0	509	508	455	295	
15	0	0	0	0	512	508	455	296	
0	0	0	0	0	513	508	456	296	
1	0	0	0	0	513	506	457	296	
2	0	0	0	0	512	503	457	296	
3	0	0	0	0	512	504	456	296	
4	0	0	0	0	517	508	456	297	
5	0	0	0	0	513	511	457	297	
6	0	0	0	0	511	515	458	297	
7	0	0	0	0	512	507	457	297	
8	0	0	0	0	507	502	457	297	
9	0	0	0	0	502	504	457	297	
10	0	0	0	0	503	502	457	297	
11	0	0	0	0	516	510	456	297	
12	0	0	0	0	519	511	457	297	
13	0	0	0	0	515	511	457	297	
14	0	0	0	0	514	511	457	296	
15	0	0	0	0	512	513	457	297	
0	0	0	0	0	515	518	457	296	
1	0	0	0	0	520	508	457	297	
2	0	0	0	0	508	498	457	296	
3	0	0	0	0	506	498	457	296	
4	0	0	0	0	508	514	457	296	
5	0	0	0	0	502	506	458	296	
6	0	0	0	0	505	505	458	297	
7	0	0	0	0	510	509	459	296	
8	0	0	0	0	507	508	458	295	
9	0	0	0	0	508	507	459	297	
10	0	0	0	0	511	509	459	296	
11	0	0	0	0	516	509	459	296	
12	0	0	0	0	505	505	459	295	
13	0	0	0	0	503	504	459	295	
14	0	0	0	0	505	509	459	295	
15	0	0	0	0	510	509	460	295	
0	0	0	0	0	518	508	460	296	
1	0	0	0	0	518	514	461	296	
2	0	0	0	0	519	505	460	297	
3	0	0	0	0	518	506	460	297	
4	0	0	0	0	517	514	460	297	
5	0	0	0	0	514	511	460	296	
6	0	0	0	0	511	507	460	297	
7	0	0	0	0	510	505	460	296	
8	0	0	0	0	512	508	460	296	
9	0	0	0	0	510	507	460	296	
10	0	0	0	0	513	502	460	297	
11	0	0	0	0	513	504	460	297	
12	0	0	0	0	509	507	461	297	
13	0	0	0	0	504	511	461	297	
14	0	0	0	0	504	510	461	297	
15	0	0	0	0	508	508	461	297	
0	0	0	0	0	509	511	460	296	
1	0	0	0	0	511	513	460	296	
2	0	0	0	0	511	512	459	297	
3	0	0	0	0	505	507	459	296	
4	0	0	0	0	509	509	458	296	
5	0	0	0	0	514	504	458	295	
6	0	0	0	0	512	502	457	295	
7	0	0	0	0	513	505	458	295	
8	0	0	0	0	513	510	458	295	
9	0	0	0	0	511	512	459	295	
10	0	0	0	0	511	509	459	294	
11	0	0	0	0	512	508	459	293	
12	0	0	0	0	523	504	458	293	
13	0	0	0	0	528	503	457	292	
14	0	0	0	0	518	508	455	292	
15	0	0	0	0	504	508	456	291	
0	0	0	0	0	499	508	456	291	
1	0	0	0	0	504	512	456	290	
2	0	0	0	0	510	511	457	291	
3	0	0	0	0	510	508	458	291	
4	0	0	0	0	510	507	456	289	
5	0	0	0	0	504	508	457	289	
6	0	0	0	0	507	508	456	288	
7	0	0	0	0	508	507	455	287	
8	0	0	0	0	515	508	454	287	
9	0	0	0	0	515	507	455	287	
10	0	0	0	0	512	506	455	285	
11	0	0	0	0	512	508	455	286	
12	0	0	0	0	511	508	455	284	
13	0	0	0	0	513	508	455	284	
14	0	0	0	0	517	502	454	284	
15	0	0	0	0	517	507	454	284	
0	0	0	0	0	510	511	454	284	
1	0	0	0	0	506	509	453	283	
2	0	0	0	0	506	513	453	282	
3	0	0	0	0	509	515	453	282	
4	0	0	0	0	503	508	453	281	
5	0	0	0	0	509	506	451	280	
6	0	0	0	0	512	506	451	280	
7	0	0	0	0	513	507	450	280	
8	0	0	0	0	508	508	449	279	
9	0	0	0	0	505	508	450	278	
10	0	0	0	0	502	508	450	277	
11	0	0	0	0	508	509	450	278	
12	0	0	0	0	511	510	450	277	
13	0	0	0	0	517	508	449	276	
14	0	0	0	0	516	506	449	276	
15	0	0	0	0	513	499	451	275	
0	0	0	0	0	519	504	450	275	
1	0	0	0	0	520	512	450	274	
2	0	0	0	0	517	514	450	248	
3	0	0	0	0	515	515	449	247	
4	0	0	0	0	511	506	449	246	
5	0	0	0	0	511	504	448	245	
6	0	0	0	0	513	507	448	244	
7	0	0	0	0	513	507	448	243	
8	0	0	0	0	504	504	448	243	
9	0	0	0	0	511	513	448	241	
10	0	0	0	0	515	511	447	241	
11	0	0	0	0	515	512	448	240	
12	0	0	0	0	510	508	448	240	
13	0	0	0	0	504	503	448	238	
14	0	0	0	0	510	507	449	238	
15	0	0	0	0	512	507	450	236	
0	0	0	0	0	507	508	449	235	
1	0	0	0	0	505	509	448	232	
2	0	0	0	0	508	510	448	231	
3	0	0	0	0	507	504	448	232	
4	0	0	0	0	510	502	449	232	
5	0	0	0	0	511	511	448	231	
6	0	0	0	0	514	515	447	231	
7	0	0	0	0	516	512	447	231	
8	0	0	0	0	512	505	447	231	
9	0	0	0	0	513	501	446	231	
10	0	0	0	0	511	505	446	231	
11	0	0	0	0	512	504	446	230	
12	0	0	0	0	511	505	446	230	
13	0	0	0	0	508	506	445	230	
14	0	0	0	0	510	506	445	229	
15	0	0	0	0	513	509	445	229	
0	0	0	0	0	507	510	444	230	
1	0	0	0	0	515	509	444	230	
2	0	0	0	0	514	513	444	229	
3	0	0	0	0	512	510	438	229	
4	0	0	0	0	513	510	439	228	
5	0	0	0	0	513	512	439	228	
6	0	0	0	0	515	510	439	228	
7	0	0	0	0	515	508	440	228	
8	0	0	0	0	510	508	440	228	
9	0	0	0	0	511	508	440	228	
10	0	0	0	0	502	508	441	227	
11	0	0	0	0	502	508	441	228	
12	0	0	0	0	509	506	441	228	
13	0	0	0	0	517	506	442	227	
14	0	0	0	0	519	505	442	228	
15	0	0	0	0	513	506	442	228	
0	0	0	0	0	509	504	443	227	
1	0	0	0	0	504	507	441	228	
2	0	0	0	0	505	507	441	228	
3	0	0	0	0	503	508	441	228	
4	0	0	0	0	506	511	441	227	
5	0	0	0	0	511	514	441	227	
6	0	0	0	0	515	511	440	227	
7	0	0	0	0	521	508	441	227	
8	0	0	0	0	525	507	442	226	
9	0	0	0	0	519	508	443	226	
10	0	0	0	0	512	509	442	226	
11	0	0	0	0	505	508	442	224	
12	0	0	0	0	505	507	441	224	
13	0	0	0	0	510	505	440	224	
14	0	0	0	0	513	508	440	224	
15	0	0	0	0	512	504	440	224	
0	0	0	0	0	513	505	440	223	
1	0	0	0	0	507	507	440	223	
2	0	0	0	0	510	509	441	223	
3	0	0	0	0	512	506	440	223	
4	0	0	0	0	510	511	439	222	
5	0	0	0	0	515	509	439	221	
6	0	0	0	0	514	511	438	221	
7	0	0	0	0	500	508	439	220	
8	0	0	0	0	499	507	438	220	
9	0	0	0	0	507	507	438	220	
10	0	0	0	0	511	504	437	219	
11	0	0	0	0	510	508	432	219	
12	0	0	0	0	516	509	432	218	
13	0	0	0	0	517	511	432	218	
14	0	0	0	0	511	510	432	217	
15	0	0	0	0	511	507	431	218	
0	0	0	0	0	515	507	432	219	
1	0	0	0	0	510	506	432	218	
2	0	0	0	0	509	509	432	218	
3	0	0	0	0	513	510	433	218	
4	0	0	0	0	512	506	432	217	
5	0	0	0	0	509	501	432	218	
6	0	0	0	0	508	505	432	217	
7	0	0	0	0	511	513	431	217	
8	0	0	0	0	513	508	432	218	
9	0	0	0	0	511	508	432	217	
10	0	0	0	0	511	509	431	218	
11	0	0	0	0	510	511	431	218	
12	0	0	0	0	514	509	431	218	
13	0	0	0	0	519	510	430	219	
14	0	0	0	0	510	507	431	218	
15	0	0	0	0	504	508	431	219	
0	0	0	0	0	503	509	431	218	
1	0	0	0	0	507	511	432	218	
2	0	0	0	0	506	506	432	219	
3	0	0	0	0	515	503	432	218	
4	0	0	0	0	524	508	431	218	
5	0	0	0	0	526	507	431	217	
6	0	0	0	0	520	508	431	218	
7	0	0	0	0	513	511	431	218	
8	0	0	0	0	515	512	430	217	
9	0	0	0	0	511	509	430	217	
10	0	0	0	0	508	500	431	217	
11	0	0	0	0	505	503	430	217	
12	0	0	0	0	506	504	430	216	
13	0	0	0	0	508	508	430	216	
14	0	0	0	0	505	507	430	215	
15	0	0	0	0	506	512	430	216	
0	0	0	0	0	507	510	431	216	
1	0	0	0	0	510	510	431	215	
2	0	0	0	0	513	510	430	215	
3	0	0	0	0	512	513	430	214	
4	0	0	0	0	511	507	430	214	
5	0	0	0	0	511	508	431	214	
6	0	0	0	0	511	510	430	215	
7	0	0	0	0	507	505	430	214	
8	0	0	0	0	512	510	430	213	
9	0	0	0	0	514	512	429	213	
10	0	0	0	0	514	507	431	213	
11	0	0	0	0	514	505	430	213	
12	0	0	0	0	517	507	429	213	
13	0	0	0	0	513	502	430	214	
14	0	0	0	0	511	505	430	212	
15	0	0	0	0	514	507	430	213	
0	0	0	0	0	518	509	431	213	
1	0	0	0	0	515	510	431	213	
2	0	0	0	0	512	509	431	213	
3	0	0	0	0	510	508	431	212	
4	0	0	0	0	511	509	432	213	
5	0	0	0	0	508	511	431	213	
6	0	0	0	0	503	508	431	213	
7	0	0	0	0	499	506	431	213	
8	0	0	0	0	496	502	431	213	
9	0	0	0	0	503	508	430	213	
10	0	0	0	0	508	511	430	213	
11	0	0	0	0	511	514	431	213	
12	0	0	0	0	512	510	430	213	
13	0	0	0	0	517	508	430	213	
14	0	0	0	0	523	509	431	214	
15	0	0	0	0	521	509	431	213	
0	0	0	0	0	515	506	430	213	
1	0	0	0	0	508	502	431	213	
2	0	0	0	0	509	500	430	213	
3	0	0	0	0	509	502	430	213	
4	0	0	0	0	511	505	431	213	
5	0	0	0	0	513	517	431	213	
6	0	0	0	0	508	516	431	213	
7	0	0	0	0	507	508	431	213	
8	0	0	0	0	507	508	431	212	
9	0	0	0	0	512	505	431	211	
10	0	0	0	0	509	504	431	211	
11	0	0	0	0	507	506	431	211	
12	0	0	0	0	512	510	430	210	
13	0	0	0	0	512	512	430	210	
14	0	0	0	0	518	515	431	210	
15	0	0	0	0	517	513	431	210	
0	0	0	0	0	514	505	430	209	
1	0	0	0	0	520	507	430	209	
2	0	0	0	0	524	510	429	208	
3	0	0	0	0	520	507	430	209	
4	0	0	0	0	516	504	430	208	
5	0	0	0	0	508	507	429	207	
6	0	0	0	0	500	508	430	207	
7	0	0	0	0	501	505	430	206	
8	0	0	0	0	509	509	429	207	
9	0	0	0	0	515	510	430	206	
10	0	0	0	0	511	505	430	204	
11	0	0	0	0	518	507	430	202	
12	0	0	0	0	514	510	430	201	
13	0	0	0	0	497	506	430	201	
14	0	0	0	0	498	504	429	200	
15	0	0	0	0	509	508	429	199	
0	0	0	0	0	510	510	429	199	
1	0	0	0	0	508	510	428	199	
2	0	0	0	0	513	511	428	198	
3	0	0	0	0	514	509	428	198	
4	0	0	0	0	513	508	428	198	
5	0	0	0	0	508	503	428	197	
6	0	0	0	0	514	502	427	197	
7	0	0	0	0	522	504	426	197	
8	0	0	0	0	520	507	427	196	
9	0	0	0	0	515	514	426	196	
10	0	0	0	0	510	511	427	196	
11	0	0	0	0	505	509	427	196	
12	0	0	0	0	502	509	425	195	
13	0	0	0	0	505	509	425	196	
14	0	0	0	0	509	505	426	196	
15	0	0	0	0	515	509	426	196	
0	0	0	0	0	516	504	426	196	
1	0	0	0	0	514	508	425	196	
2	0	0	0	0	513	513	426	196	
3	0	0	0	0	511	508	425	196	
4	0	0	0	0	508	507	424	196	
5	0	0	0	0	515	508	424	196	
6	0	0	0	0	511	507	424	196	
7	0	0	0	0	510	507	423	196	
8	0	0	0	0	510	505	423	196	
9	0	0	0	0	510	509	423	196	
10	0	0	0	0	512	508	424	196	
11	0	0	0	0	511	507	423	196	
12	0	0	0	0	510	508	423	196	
13	0	0	0	0	508	508	423	196	
14	0	0	0	0	510	508	423	196	
15	0	0	0	0	511	509	423	196	
0	0	0	0	0	510	511	423	195	
1	0	0	0	0	509	510	423	196	
2	0	0	0	0	511	508	423	195	
3	0	0	0	0	511	511	423	195	
4	0	0	0	0	509	506	423	195	
5	0	0	0	0	511	506	422	195	
6	0	0	0	0	510	504	423	195	
7	0	0	0	0	512	504	423	195	
8	0	0	0	0	511	505	424	195	
9	0	0	0	0	510	510	423	195	
10	0	0	0	0	511	507	423	195	
11	0	0	0	0	515	510	423	196	
12	0	0	0	0	513	510	424	195	
13	0	0	0	0	512	507	423	196	
14	0	0	0	0	512	507	422	195	
15	0	0	0	0	507	507	423	196	
0	0	0	0	0	508	509	423	196	
1	0	0	0	0	507	511	423	196	
2	0	0	0	0	511	512	423	196	
3	0	0	0	0	514	514	423	196	
4	0	0	0	0	519	513	424	196	
5	0	0	0	0	514	505	423	196	
6	0	0	0	0	508	502	423	196	
7	0	0	0	0	511	502	423	196	
8	0	0	0	0	505	505	424	197	
9	0	0	0	0	503	507	423	197	
10	0	0	0	0	508	506	426	197	
11	0	0	0	0	510	510	424	197	
12	0	0	0	0	513	510	424	197	
13	0	0	0	0	513	508	424	197	
14	0	0	0	0	508	507	424	197	
15	0	0	0	0	517	512	423	197	
0	0	0	0	0	518	509	425	197	
1	0	0	0	0	512	505	425	198	
2	0	0	0	0	512	505	424	198	
3	0	0	0	0	511	505	423	198	
4	0	0	0	0	511	510	423	197	
5	0	0	0	0	513	510	420	198	
6	0	0	0	0	514	510	419	197	
7	0	0	0	0	512	509	420	197	
8	0	0	0	0	511	508	419	196	
9	0	0	0	0	509	509	420	195	
10	0	0	0	0	508	509	419	193	
11	0	0	0	0	508	510	419	192	
12	0	0	0	0	510	509	419	191	
13	0	0	0	0	504	505	419	191	
14	0	0	0	0	505	508	419	190	
15	0	0	0	0	503	508	418	191	
0	0	0	0	0	512	502	418	191	
1	0	0	0	0	512	506	418	190	
2	0	0	0	0	518	508	418	189	
3	0	0	0	0	523	510	417	188	
4	0	0	0	0	524	509	417	188	
5	0	0	0	0	519	510	417	188	
6	0	0	0	0	510	507	416	186	
7	0	0	0	0	507	507	415	186	
8	0	0	0	0	507	507	415	186	
9	0	0	0	0	510	507	415	186	
10	0	0	0	0	509	508	415	185	
11	0	0	0	0	509	507	414	185	
12	0	0	0	0	511	507	412	184	
13	0	0	0	0	509	510	413	184	
14	0	0	0	0	507	510	412	184	
15	0	0	0	0	509	509	409	184	
0	0	0	0	0	508	511	407	183	
1	0	0	0	0	509	508	407	182	
2	0	0	0	0	514	510	404	180	
3	0	0	0	0	511	507	405	180	
4	0	0	0	0	512	508	403	178	
5	0	0	0	0	512	508	403	176	
6	0	0	0	0	512	508	403	175	
7	0	0	0	0	513	508	403	176	
8	0	0	0	0	511	509	399	177	
9	0	0	0	0	514	512	400	176	
10	0	0	0	0	511	509	399	174	
11	0	0	0	0	513	507	398	174	
12	0	0	0	0	509	503	399	173	
13	0	0	0	0	515	505	399	172	
14	0	0	0	0	515	509	396	171	
15	0	0	0	0	514	507	396	171	
0	0	0	0	0	512	502	396	171	
1	0	0	0	0	509	508	394	171	
2	0	0	0	0	512	509	392	171	
3	0	0	0	0	504	509	392	169	
4	0	0	0	0	496	508	392	168	
5	0	0	0	0	496	511	393	167	
6	0	0	0	0	503	512	392	167	
7	0	0	0	0	511	510	392	167	
8	0	0	0	0	518	509	392	167	
9	0	0	0	0	519	508	392	167	
10	0	0	0	0	518	508	393	167	
11	0	0	0	0	518	504	392	165	
12	0	0	0	0	518	508	393	165	
13	0	0	0	0	514	507	393	166	
14	0	0	0	0	507	505	394	167	
15	0	0	0	0	511	508	392	166	
0	0	0	0	0	515	509	393	166	
1	0	0	0	0	513	508	392	166	
2	0	0	0	0	511	505	391	166	
3	0	0	0	0	509	506	392	164	
4	0	0	0	0	506	508	391	164	
5	0	0	0	0	506	507	391	165	
6	0	0	0	0	511	510	392	163	
7	0	0	0	0	506	512	393	163	
8	0	0	0	0	507	510	392	162	
9	0	0	0	0	509	509	392	161	
10	0	0	0	0	513	508	391	160	
11	0	0	0	0	515	510	393	159	
12	0	0	0	0	514	508	392	159	
13	0	0	0	0	513	506	391	157	
14	0	0	0	0	505	508	391	156	
15	0	0	0	0	507	507	391	156	
0	0	0	0	0	511	510	391	156	
1	0	0	0	0	518	511	390	156	
2	0	0	0	0	514	505	390	156	
3	0	0	0	0	514	508	391	156	
4	0	0	0	0	520	505	390	155	
5	0	0	0	0	517	504	391	155	
6	0	0	0	0	512	508	391	155	
7	0	0	0	0	504	508	393	155	
8	0	0	0	0	504	508	392	153	
9	0	0	0	0	506	508	391	154	
10	0	0	0	0	508	505	392	154	
11	0	0	0	0	507	509	393	154	
12	0	0	0	0	508	511	392	153	
13	0	0	0	0	507	510	392	153	
14	0	0	0	0	510	511	392	152	
15	0	0	0	0	505	507	393	153	
0	0	0	0	0	509	511	394	152	
1	0	0	0	0	511	509	393	152	
2	0	0	0	0	514	508	393	152	
3	0	0	0	0	517	507	393	151	
4	0	0	0	0	514	506	394	151	
5	0	0	0	0	512	506	393	152	
6	0	0	0	0	518	508	393	151	
7	0	0	0	0	518	508	394	151	
8	0	0	0	0	517	503	393	152	
9	0	0	0	0	511	502	393	151	
10	0	0	0	0	511	510	393	150	
11	0	0	0	0	513	514	394	151	
12	0	0	0	0	512	507	393	150	
13	0	0	0	0	506	509	394	150	
14	0	0	0	0	506	508	394	151	
15	0	0	0	0	507	508	393	151	
0	0	0	0	0	508	511	393	152	
1	0	0	0	0	509	509	393	152	
2	0	0	0	0	505	509	393	151	
3	0	0	0	0	509	508	392	150	
4	0	0	0	0	513	511	393	149	
5	0	0	0	0	512	510	393	149	
6	0	0	0	0	508	506	392	149	
7	0	0	0	0	512	510	393	147	
8	0	0	0	0	512	510	395	147	
9	0	0	0	0	514	509	393	148	
10	0	0	0	0	515	507	393	148	
11	0	0	0	0	513	505	396	148	
12	0	0	0	0	517	505	393	147	
13	0	0	0	0	518	508	395	147	
14	0	0	0	0	519	510	394	147	
15	0	0	0	0	513	504	393	149	
0	0	0	0	0	507	502	395	147	
1	0	0	0	0	500	501	393	146	
2	0	0	0	0	502	508	394	146	
3	0	0	0	0	505	514	395	144	
4	0	0	0	0	509	515	394	144	
5	0	0	0	0	506	510	394	144	
6	0	0	0	0	511	510	394	143	
7	0	0	0	0	508	509	393	144	
8	0	0	0	0	510	506	394	143	
9	0	0	0	0	512	511	394	143	
10	0	0	0	0	506	507	393	143	
11	0	0	0	0	513	504	393	144	
12	0	0	0	0	519	507	393	143	
13	0	0	0	0	525	508	393	143	
14	0	0	0	0	522	508	393	143	
15	0	0	0	0	515	509	393	142	
0	0	0	0	0	510	506	393	143	
1	0	0	0	0	506	504	392	144	
2	0	0	0	0	508	505	392	144	
3	0	0	0	0	509	508	392	143	
4	0	0	0	0	508	507	392	144	
5	0	0	0	0	510	508	391	143	
6	0	0	0	0	505	510	392	143	
7	0	0	0	0	506	509	392	143	
8	0	0	0	0	506	509	392	142	
9	0	0	0	0	507	509	393	139	
10	0	0	0	0	509	510	391	139	
11	0	0	0	0	513	510	391	140	
12	0	0	0	0	512	511	392	140	
13	0	0	0	0	514	509	391	139	
14	0	0	0	0	515	510	392	139	
15	0	0	0	0	515	509	392	139	
0	0	0	0	0	519	506	391	139	
1	0	0	0	0	518	509	391	140	
2	0	0	0	0	509	505	391	138	
3	0	0	0	0	508	504	391	139	
4	0	0	0	0	517	510	390	139	
5	0	0	0	0	516	507	391	138	
6	0	0	0	0	513	505	391	138	
7	0	0	0	0	508	505	391	139	
8	0	0	0	0	504	507	391	138	
9	0	0	0	0	503	511	390	138	
10	0	0	0	0	506	510	391	138	
11	0	0	0	0	508	509	391	137	
12	0	0	0	0	509	510	391	138	
13	0	0	0	0	507	508	391	139	
14	0	0	0	0	513	508	391	139	
15	0	0	0	0	508	511	391	137	
0	0	0	0	0	511	508	391	138	
1	0	0	0	0	512	508	390	140	
2	0	0	0	0	506	502	391	140	
3	0	0	0	0	511	504	391	140	
4	0	0	0	0	516	510	392	140	
5	0	0	0	0	515	508	392	140	
6	0	0	0	0	522	506	391	141	
7	0	0	0	0	519	506	391	141	
8	0	0	0	0	512	508	392	141	
9	0	0	0	0	513	509	392	140	
10	0	0	0	0	512	508	392	140	
11	0	0	0	0	515	511	393	141	
12	0	0	0	0	512	509	392	140	
13	0	0	0	0	510	510	392	140	
14	0	0	0	0	511	510	392	140	
15	0	0	0	0	508	507	392	139	
0	0	0	0	0	505	512	392	138	
1	0	0	0	0	508	509	392	137	
2	0	0	0	0	508	506	392	138	
3	0	0	0	0	506	504	392	138	
4	0	0	0	0	510	509	391	139	
5	0	0	0	0	513	509	392	140	
6	0	0	0	0	513	507	391	140	
7	0	0	0	0	512	506	392	140	
8	0	0	0	0	509	501	393	139	
9	0	0	0	0	507	500	392	139	
10	0	0	0	0	507	505	391	139	
11	0	0	0	0	511	506	392	139	
12	0	0	0	0	516	512	392	137	
13	0	0	0	0	520	515	392	137	
14	0	0	0	0	513	517	392	137	
15	0	0	0	0	512	510	392	137	
0	0	0	0	0	510	508	391	137	
1	0	0	0	0	508	506	391	138	
2	0	0	0	0	508	508	391	139	
3	0	0	0	0	513	508	391	139	
4	0	0	0	0	509	509	392	139	
5	0	0	0	0	507	506	391	140	
6	0	0	0	0	507	509	391	141	
7	0	0	0	0	510	509	392	140	
8	0	0	0	0	509	508	391	140	
9	0	0	0	0	506	506	391	140	
10	0	0	0	0	511	508	391	140	
11	0	0	0	0	513	505	390	139	
12	0	0	0	0	517	507	391	139	
13	0	0	0	0	514	509	391	139	
14	0	0	0	0	518	509	392	138	
15	0	0	0	0	522	513	393	137	
0	0	0	0	0	519	509	391	137	
1	0	0	0	0	514	503	391	137	
2	0	0	0	0	514	504	392	138	
3	0	0	0	0	509	505	391	137	
4	0	0	0	0	504	508	390	133	
5	0	0	0	0	504	508	391	134	
6	0	0	0	0	509	508	390	134	
7	0	0	0	0	511	512	391	134	
8	0	0	0	0	505	510	391	135	
9	0	0	0	0	505	511	391	135	
10	0	0	0	0	504	508	391	136	
11	0	0	0	0	505	503	391	134	
12	0	0	0	0	514	505	390	135	
13	0	0	0	0	520	508	390	134	
14	0	0	0	0	519	506	390	133	
15	0	0	0	0	514	511	390	133	
0	0	0	0	0	505	509	390	134	
1	0	0	0	0	504	507	390	133	
2	0	0	0	0	510	508	389	133	
3	0	0	0	0	512	508	390	134	
4	0	0	0	0	511	505	389	135	
5	0	0	0	0	516	509	389	134	
6	0	0	0	0	520	510	390	134	
7	0	0	0	0	518	511	390	133	
8	0	0	0	0	512	508	390	134	
9	0	0	0	0	508	508	390	134	
10	0	0	0	0	508	510	390	136	
11	0	0	0	0	508	509	390	134	
12	0	0	0	0	501	508	390	135	
13	0	0	0	0	502	509	389	137	
14	0	0	0	0	503	509	388	137	
15	0	0	0	0	510	513	388	135	
0	0	0	0	0	516	510	387	136	
1	0	0	0	0	511	504	388	135	
2	0	0	0	0	513	500	387	135	
3	0	0	0	0	517	504	387	135	
4	0	0	0	0	517	504	387	135	
5	0	0	0	0	514	506	387	135	
6	0	0	0	0	514	506	387	136	
7	0	0	0	0	511	509	388	136	
8	0	0	0	0	515	507	388	135	
9	0	0	0	0	518	506	388	135	
10	0	0	0	0	512	505	388	135	
11	0	0	0	0	509	510	388	135	
12	0	0	0	0	510	506	389	135	
13	0	0	0	0	515	514	389	134	
14	0	0	0	0	504	518	389	133	
15	0	0	0	0	500	515	389	133	
0	0	0	0	0	503	509	389	134	
1	0	0	0	0	508	508	388	134	
2	0	0	0	0	512	505	388	135	
3	0	0	0	0	515	509	389	134	
4	0	0	0	0	508	507	389	133	
5	0	0	0	0	504	504	390	134	
6	0	0	0	0	509	505	390	134	
7	0	0	0	0	512	508	389	134	
8	0	0	0	0	516	511	389	134	
9	0	0	0	0	519	510	390	134	
10	0	0	0	0	516	506	389	134	
11	0	0	0	0	515	504	389	135	
12	0	0	0	0	515	508	388	135	
13	0	0	0	0	513	508	388	135	
14	0	0	0	0	512	508	389	134	
15	0	0	0	0	511	509	388	135	
0	0	0	0	0	509	508	388	134	
1	0	0	0	0	510	509	388	134	
2	0	0	0	0	512	509	387	133	
3	0	0	0	0	513	506	387	133	
4	0	0	0	0	514	509	387	133	
5	0	0	0	0	506	508	387	134	
6	0	0	0	0	508	507	387	133	
7	0	0	0	0	501	508	386	132	
8	0	0	0	0	501	510	386	131	
9	0	0	0	0	506	509	386	133	
10	0	0	0	0	510	510	386	133	
11	0	0	0	0	512	508	386	132	
12	0	0	0	0	515	511	387	132	
13	0	0	0	0	515	508	387	130	
14	0	0	0	0	514	507	387	130	
15	0	0	0	0	515	507	388	131	
0	0	0	0	0	516	507	388	130	
1	0	0	0	0	515	508	388	131	
2	0	0	0	0	512	508	388	128	
3	0	0	0	0	511	505	388	128	
4	0	0	0	0	508	509	388	127	
5	0	0	0	0	506	507	387	129	
6	0	0	0	0	508	508	387	129	
7	0	0	0	0	505	511	387	127	
8	0	0	0	0	508	510	387	127	
9	0	0	0	0	509	506	387	129	
10	0	0	0	0	512	505	387	128	
11	0	0	0	0	510	507	387	128	
12	0	0	0	0	510	508	387	129	
13	0	0	0	0	513	510	387	128	
14	0	0	0	0	513	508	386	128	
15	0	0	0	0	510	505	386	128	
0	0	0	0	0	512	505	386	127	
1	0	0	0	0	514	509	387	128	
2	0	0	0	0	516	511	386	127	
3	0	0	0	0	516	511	385	126	
4	0	0	0	0	514	509	385	124	
5	0	0	0	0	509	507	385	126	
6	0	0	0	0	508	506	385	125	
7	0	0	0	0	510	507	385	124	
8	0	0	0	0	512	511	386	124	
9	0	0	0	0	510	510	385	124	
10	0	0	0	0	509	512	384	124	
11	0	0	0	0	511	509	384	125	
12	0	0	0	0	507	506	383	127	
13	0	0	0	0	507	508	383	127	
14	0	0	0	0	505	512	383	126	
15	0	0	0	0	506	507	382	125	
0	0	0	0	0	511	509	383	128	
1	0	0	0	0	510	508	383	128	
2	0	0	0	0	511	507	383	128	
3	0	0	0	0	511	505	382	129	
4	0	0	0	0	515	507	382	128	
5	0	0	0	0	513	507	382	127	
6	0	0	0	0	510	508	382	128	
7	0	0	0	0	511	506	382	128	
8	0	0	0	0	512	506	380	127	
9	0	0	0	0	518	506	381	126	
10	0	0	0	0	518	507	380	127	
11	0	0	0	0	512	511	380	129	
12	0	0	0	0	512	508	380	129	
13	0	0	0	0	513	507	378	127	
14	0	0	0	0	509	507	379	127	
15	0	0	0	0	515	508	377	128	
0	0	0	0	0	510	513	379	126	
1	0	0	0	0	504	511	378	125	
2	0	0	0	0	502	507	379	127	
3	0	0	0	0	507	509	378	128	
4	0	0	0	0	505	505	378	126	
5	0	0	0	0	511	507	377	127	
6	0	0	0	0	516	507	377	123	
7	0	0	0	0	512	504	377	125	
8	0	0	0	0	513	507	377	124	
9	0	0	0	0	516	510	375	124	
10	0	0	0	0	515	509	374	121	
11	0	0	0	0	519	509	374	122	
12	0	0	0	0	514	506	374	124	
13	0	0	0	0	511	507	373	123	
14	0	0	0	0	509	508	372	122	
15	0	0	0	0	509	509	372	120	
0	0	0	0	0	508	506	372	120	
1	0	0	0	0	509	508	368	118	
2	0	0	0	0	504	507	366	120	
3	0	0	0	0	506	510	366	117	
4	0	0	0	0	509	512	363	118	
5	0	0	0	0	511	506	362	117	
6	0	0	0	0	508	509	361	117	
7	0	0	0	0	508	509	361	116	
8	0	0	0	0	511	512	361	115	
9	0	0	0	0	512	509	361	114	
10	0	0	0	0	514	508	360	113	
11	0	0	0	0	515	504	362	113	
12	0	0	0	0	515	506	362	112	
13	0	0	0	0	512	508	360	112	
14	0	0	0	0	514	508	360	113	
15	0	0	0	0	513	506	360	113	
0	0	0	0	0	512	504	360	112	
1	0	0	0	0	515	507	360	112	
2	0	0	0	0	516	505	360	112	
3	0	0	0	0	510	510	360	111	
4	0	0	0	0	507	513	359	112	
5	0	0	0	0	508	509	359	110	
6	0	0	0	0	508	508	359	111	
7	0	0	0	0	504	507	359	110	
8	0	0	0	0	504	509	358	112	
9	0	0	0	0	506	510	359	108	
10	0	0	0	0	506	510	359	111	
11	0	0	0	0	507	508	358	111	
12	0	0	0	0	508	506	357	108	
13	0	0	0	0	513	508	357	108	
14	0	0	0	0	515	510	356	111	
15	0	0	0	0	515	510	357	109	
0	0	0	0	0	522	509	355	108	
1	0	0	0	0	511	508	355	109	
2	0	0	0	0	513	508	355	109	
3	0	0	0	0	515	508	355	109	
4	0	0	0	0	513	507	355	109	
5	0	0	0	0	514	508	354	110	
6	0	0	0	0	515	505	353	108	
7	0	0	0	0	514	506	355	108	
8	0	0	0	0	514	508	353	110	
9	0	0	0	0	511	508	352	108	
10	0	0	0	0	508	510	351	107	
11	0	0	0	0	503	511	352	111	
12	0	0	0	0	508	512	351	111	
13	0	0	0	0	508	510	351	109	
14	0	0	0	0	507	511	352	110	
15	0	0	0	0	506	510	352	107	
0	0	0	0	0	509	508	352	107	
1	0	0	0	0	510	506	350	108	
2	0	0	0	0	512	508	350	107	
3	0	0	0	0	516	507	349	104	
4	0	0	0	0	514	506	349	103	
5	0	0	0	0	515	507	349	106	
6	0	0	0	0	512	502	349	106	
7	0	0	0	0	512	503	349	103	
8	0	0	0	0	512	507	348	106	
9	0	0	0	0	514	508	348	107	
10	0	0	0	0	518	507	349	103	
11	0	0	0	0	515	510	349	106	
12	0	0	0	0	513	510	348	106	
13	0	0	0	0	509	508	348	105	
14	0	0	0	0	502	509	349	103	
15	0	0	0	0	506	512	348	102	
0	0	0	0	0	501	509	349	103	
1	0	0	0	0	502	509	349	105	
2	0	0	0	0	503	508	350	104	
3	0	0	0	0	508	505	349	103	
4	0	0	0	0	513	509	349	105	
5	0	0	0	0	516	512	349	102	
6	0	0	0	0	517	515	349	102	
7	0	0	0	0	510	508	348	104	
8	0	0	0	0	510	507	347	103	
9	0	0	0	0	511	504	347	103	
10	0	0	0	0	514	504	348	102	
11	0	0	0	0	521	505	347	105	
12	0	0	0	0	520	501	347	102	
13	0	0	0	0	515	506	347	103	
14	0	0	0	0	517	507	347	102	
15	0	0	0	0	512	506	347	102	
0	0	0	0	0	510	510	347	103	
1	0	0	0	0	511	511	347	102	
2	0	0	0	0	508	511	347	102	
3	0	0	0	0	508	511	347	103	
4	0	0	0	0	504	510	347	103	
5	0	0	0	0	507	508	348	102	
6	0	0	0	0	510	509	348	103	
7	0	0	0	0	512	506	349	102	
8	0	0	0	0	518	511	348	102	
9	0	0	0	0	515	510	347	101	
10	0	0	0	0	511	506	348	102	
11	0	0	0	0	511	507	348	101	
12	0	0	0	0	511	509	348	102	
13	0	0	0	0	510	507	348	104	
14	0	0	0	0	512	509	348	103	
15	0	0	0	0	513	507	349	102	
0	0	0	0	0	514	507	349	101	
1	0	0	0	0	511	509	349	101	
2	0	0	0	0	513	508	350	99	
3	0	0	0	0	515	507	349	100	
4	0	0	0	0	511	505	350	99	
5	0	0	0	0	503	502	350	100	
6	0	0	0	0	505	509	348	99	
7	0	0	0	0	509	511	348	100	
8	0	0	0	0	508	509	348	99	
9	0	0	0	0	510	512	348	98	
10	0	0	0	0	506	508	349	97	
11	0	0	0	0	505	509	350	98	
12	0	0	0	0	508	508	351	98	
13	0	0	0	0	514	501	351	55	
14	0	0	0	0	521	500	350	52	
15	0	0	0	0	520	505	351	51	
0	0	0	0	0	519	506	350	49	
1	0	0	0	0	520	505	349	46	
2	0	0	0	0	519	503	349	43	
3	0	0	0	0	516	507	350	43	
4	0	0	0	0	513	508	350	39	
5	0	0	0	0	504	509	349	41	
6	0	0	0	0	503	505	350	39	
7	0	0	0	0	506	511	350	42	
8	0	0	0	0	504	508	351	39	
9	0	0	0	0	508	511	349	42	
10	0	0	0	0	511	510	348	40	
11	0	0	0	0	516	511	348	40	
12	0	0	0	0	515	511	348	41	
13	0	0	0	0	506	511	349	40	
14	0	0	0	0	504	506	349	38	
15	0	0	0	0	502	510	348	40	
0	0	0	0	0	504	511	349	39	
1	0	0	0	0	504	511	348	40	
2	0	0	0	0	514	509	348	42	
3	0	0	0	0	520	510	349	40	
4	0	0	0	0	500	504	349	38	
5	0	0	0	0	505	509	349	40	
6	0	0	0	0	509	508	349	42	
7	0	0	0	0	511	507	349	41	
8	0	0	0	0	515	511	349	40	
9	0	0	0	0	515	509	350	42	
10	0	0	0	0	514	510	350	39	
11	0	0	0	0	512	509	350	43	
12	0	0	0	0	511	509	350	40	
13	0	0	0	0	512	507	349	40	
14	0	0	0	0	511	506	350	42	
15	0	0	0	0	509	509	350	41	
0	0	0	0	0	508	509	349	37	
1	0	0	0	0	510	509	350	38	
2	0	0	0	0	510	510	350	41	
3	0	0	0	0	508	509	350	39	
4	0	0	0	0	510	507	350	36	
5	0	0	0	0	510	509	350	37	
6	0	0	0	0	512	505	350	39	
7	0	0	0	0	513	505	350	31	
8	0	0	0	0	513	508	351	33	
9	0	0	0	0	515	506	351	35	
10	0	0	0	0	519	507	350	36	
11	0	0	0	0	514	509	351	35	
12	0	0	0	0	511	507	351	34	
13	0	0	0	0	510	506	351	36	
14	0	0	0	0	512	506	351	33	
15	0	0	0	0	515	508	351	35	
0	0	0	0	0	513	505	350	34	
1	0	0	0	0	502	511	350	36	
2	0	0	0	0	505	512	350	34	
3	0	0	0	0	505	508	352	35	
4	0	0	0	0	511	509	351	36	
5	0	0	0	0	512	509	351	37	
6	0	0	0	0	511	514	352	38	
7	0	0	0	0	512	512	353	36	
8	0	0	0	0	513	508	352	35	
9	0	0	0	0	511	509	352	39	
10	0	0	0	0	512	509	352	37	
11	0	0	0	0	514	508	352	35	
12	0	0	0	0	515	507	353	38	
13	0	0	0	0	515	507	352	34	
14	0	0	0	0	515	505	352	34	
15	0	0	0	0	509	504	352	35	
0	0	0	0	0	508	507	352	35	
1	0	0	0	0	513	505	352	33	
2	0	0	0	0	517	506	352	34	
3	0	0	0	0	515	507	352	35	
4	0	0	0	0	516	507	352	33	
5	0	0	0	0	513	510	352	31	
6	0	0	0	0	507	507	352	31	
7	0	0	0	0	502	510	352	30	
8	0	0	0	0	505	511	352	32	
9	0	0	0	0	508	509	352	31	
10	0	0	0	0	511	507	352	34	
11	0	0	0	0	504	507	352	31	
12	0	0	0	0	510	507	353	33	
13	0	0	0	0	516	512	352	31	
14	0	0	0	0	516	509	352	33	
15	0	0	0	0	508	507	351	34	
0	0	0	0	0	512	506	350	36	
1	0	0	0	0	515	505	348	33	
2	0	0	0	0	515	510	349	36	
3	0	0	0	0	515	509	349	35	
4	0	0	0	0	515	509	348	34	
5	0	0	0	0	514	506	348	31	
6	0	0	0	0	511	508	348	33	
7	0	0	0	0	510	508	348	33	
8	0	0	0	0	510	508	347	34	
9	0	0	0	0	509	509	348	35	
10	0	0	0	0	512	511	348	38	
11	0	0	0	0	510	509	348	31	
12	0	0	0	0	512	509	349	31	
13	0	0	0	0	507	506	348	32	
14	0	0	0	0	506	505	347	35	
15	0	0	0	0	505	507	346	32	
0	0	0	0	0	508	508	347	34	
1	0	0	0	0	512	511	346	34	
2	0	0	0	0	518	511	345	34	
3	0	0	0	0	509	505	345	36	
4	0	0	0	0	511	507	346	34	
5	0	0	0	0	511	510	348	35	
6	0	0	0	0	521	507	348	35	
7	0	0	0	0	522	504	348	37	
8	0	0	0	0	515	507	350	32	
9	0	0	0	0	509	508	350	35	
10	0	0	0	0	509	511	351	33	
11	0	0	0	0	509	511	348	32	
12	0	0	0	0	514	508	348	34	
13	0	0	0	0	527	509	348	33	
14	0	0	0	0	516	507	349	33	
15	0	0	0	0	505	504	350	34	
0	0	0	0	0	498	508	349	33	
1	0	0	0	0	502	511	350	34	
2	0	0	0	0	503	509	350	32	
3	0	0	0	0	504	508	349	34	
4	0	0	0	0	508	507	350	30	
5	0	0	0	0	509	508	350	31	
6	0	0	0	0	512	511	350	32	
7	0	0	0	0	515	508	351	33	
8	0	0	0	0	511	505	352	36	
9	0	0	0	0	511	506	349	37	
10	0	0	0	0	514	512	349	38	
11	0	0	0	0	518	511	349	39	
12	0	0	0	0	513	510	349	39	
13	0	0	0	0	512	508	348	38	
14	0	0	0	0	513	507	348	39	
15	0	0	0	0	515	505	347	40	
0	0	0	0	0	511	507	348	39	
1	0	0	0	0	510	508	348	37	
2	0	0	0	0	508	511	348	33	
3	0	0	0	0	512	508	348	35	
4	0	0	0	0	513	504	347	35	
5	0	0	0	0	511	502	348	35	
6	0	0	0	0	509	507	349	32	
7	0	0	0	0	510	507	348	35	
8	0	0	0	0	508	509	349	35	
9	0	0	0	0	508	512	349	34	
10	0	0	0	0	514	510	349	34	
11	0	0	0	0	513	508	349	33	
12	0	0	0	0	512	508	349	34	
13	0	0	0	0	515	508	348	35	
14	0	0	0	0	517	508	348	35	
15	0	0	0	0	513	506	348	35	
0	0	0	0	0	511	505	348	35	
1	0	0	0	0	508	507	348	34	
2	0	0	0	0	505	508	347	33	
3	0	0	0	0	506	506	348	34	
4	0	0	0	0	507	507	347	35	
5	0	0	0	0	510	511	347	34	
6	0	0	0	0	516	511	345	34	
7	0	0	0	0	514	510	347	35	
8	0	0	0	0	508	510	347	35	
9	0	0	0	0	509	511	349	36	
10	0	0	0	0	509	510	348	35	
11	0	0	0	0	508	508	349	35	
12	0	0	0	0	508	508	348	37	
13	0	0	0	0	510	504	348	35	
14	0	0	0	0	512	510	349	33	
15	0	0	0	0	512	508	348	33	
0	0	0	0	0	513	505	348	31	
1	0	0	0	0	515	507	349	33	
2	0	0	0	0	515	508	350	33	
3	0	0	0	0	516	508	349	33	
4	0	0	0	0	519	509	350	33	
5	0	0	0	0	516	507	348	30	
6	0	0	0	0	518	505	348	31	
7	0	0	0	0	509	509	349	31	
8	0	0	0	0	507	510	349	32	
9	0	0	0	0	503	508	349	30	
10	0	0	0	0	504	511	349	33	
11	0	0	0	0	503	510	351	33	
12	0	0	0	0	507	508	350	32	
13	0	0	0	0	508	511	350	33	
14	0	0	0	0	508	507	350	31	
15	0	0	0	0	510	507	350	29	
0	0	0	0	0	510	504	351	28	
1	0	0	0	0	517	511	350	28	
2	0	0	0	0	521	510	350	27	
3	0	0	0	0	521	505	349	25	
4	0	0	0	0	519	505	350	24	
5	0	0	0	0	516	507	350	24	
6	0	0	0	0	515	506	348	24	
7	0	0	0	0	515	505	349	23	
8	0	0	0	0	514	506	350	21	
9	0	0	0	0	508	506	350	21	
10	0	0	0	0	512	508	350	17	
11	0	0	0	0	510	511	349	27	
12	0	0	0	0	506	511	349	27	
13	0	0	0	0	502	513	348	28	
14	0	0	0	0	505	512	349	27	
15	0	0	0	0	502	511	350	34	
0	0	0	0	0	499	515	349	32	
1	0	0	0	0	504	513	350	35	
2	0	0	0	0	504	508	350	36	
3	0	0	0	0	505	509	350	35	
4	0	0	0	0	512	511	350	38	
5	0	0	0	0	514	508	351	36	
6	0	0	0	0	519	505	351	30	
7	0	0	0	0	518	508	353	35	
8	0	0	0	0	518	508	351	36	
9	0	0	0	0	517	510	352	35	
10	0	0	0	0	514	506	352	37	
11	0	0	0	0	513	507	352	33	
12	0	0	0	0	512	503	351	29	
13	0	0	0	0	508	504	353	32	
14	0	0	0	0	502	504	354	35	
15	0	0	0	0	506	505	357	33	
0	0	0	0	0	512	503	359	32	
1	0	0	0	0	513	506	359	36	
2	0	0	0	0	517	508	358	34	
3	0	0	0	0	515	508	359	35	
4	0	0	0	0	512	511	359	36	
5	0	0	0	0	513	512	358	34	
6	0	0	0	0	517	513	359	35	
7	0	0	0	0	514	508	359	35	
8	0	0	0	0	512	509	359	34	
9	0	0	0	0	515	508	358	31	
10	0	0	0	0	517	508	359	34	
11	0	0	0	0	512	508	359	33	
12	0	0	0	0	512	507	359	32	
13	0	0	0	0	512	506	359	30	
14	0	0	0	0	507	505	359	30	
15	0	0	0	0	507	505	359	29	
0	0	0	0	0	504	505	359	30	
1	0	0	0	0	502	508	359	31	
2	0	0	0	0	505	508	359	29	
3	0	0	0	0	513	508	359	28	
4	0	0	0	0	518	506	358	29	
5	0	0	0	0	521	508	359	28	
6	0	0	0	0	515	512	359	30	
7	0	0	0	0	505	511	359	33	
8	0	0	0	0	504	509	358	35	
9	0	0	0	0	506	508	358	30	
10	0	0	0	0	509	507	359	31	
11	0	0	0	0	511	507	360	27	
12	0	0	0	0	513	509	360	29	
13	0	0	0	0	512	509	360	32	
14	0	0	0	0	514	512	361	32	
15	0	0	0	0	509	508	360	30	
0	0	0	0	0	508	505	361	33	
1	0	0	0	0	510	507	360	31	
2	0	0	0	0	515	508	359	31	
3	0	0	0	0	515	508	360	32	
4	0	0	0	0	513	508	361	31	
5	0	0	0	0	512	507	361	35	
6	0	0	0	0	514	505	361	24	
7	0	0	0	0	517	502	361	24	
8	0	0	0	0	513	503	361	25	
9	0	0	0	0	512	508	362	23	
10	0	0	0	0	511	505	363	21	
11	0	0	0	0	510	508	362	24	
12	0	0	0	0	508	511	362	26	
13	0	0	0	0	505	509	362	27	
14	0	0	0	0	504	512	361	25	
15	0	0	0	0	504	510	362	28	
0	0	0	0	0	506	508	362	24	
1	0	0	0	0	508	509	362	24	
2	0	0	0	0	512	509	362	22	
3	0	0	0	0	512	507	360	24	
4	0	0	0	0	507	506	361	28	
5	0	0	0	0	512	506	361	26	
6	0	0	0	0	515	508	361	23	
7	0	0	0	0	517	508	360	22	
8	0	0	0	0	517	509	361	23	
9	0	0	0	0	514	508	362	26	
10	0	0	0	0	515	506	361	24	
11	0	0	0	0	513	508	362	24	
12	0	0	0	0	512	507	361	20	
13	0	0	0	0	509	506	361	21	
14	0	0	0	0	510	505	361	22	
15	0	0	0	0	510	508	360	21	
0	0	0	0	0	508	510	361	24	
1	0	0	0	0	504	514	361	33	
2	0	0	0	0	503	513	360	29	
3	0	0	0	0	507	511	360	25	
4	0	0	0	0	508	508	360	25	
5	0	0	0	0	511	509	359	24	
6	0	0	0	0	513	505	360	21	
7	0	0	0	0	518	506	360	22	
8	0	0	0	0	513	507	359	24	
9	0	0	0	0	511	506	359	23	
10	0	0	0	0	517	506	357	17	
11	0	0	0	0	519	504	357	16	
12	0	0	0	0	518	507	357	17	
13	0	0	0	0	516	509	356	16	
14	0	0	0	0	511	505	356	17	
15	0	0	0	0	509	507	356	15	
0	0	0	0	0	510	508	356	17	
1	0	0	0	0	507	509	352	20	
2	0	0	0	0	507	511	351	25	
3	0	0	0	0	503	513	351	23	
4	0	0	0	0	502	512	349	26	
5	0	0	0	0	506	512	348	26	
6	0	0	0	0	506	511	349	24	
7	0	0	0	0	503	506	349	24	
8	0	0	0	0	501	503	349	27	
9	0	0	0	0	511	508	348	22	
10	0	0	0	0	515	507	349	25	
11	0	0	0	0	519	510	348	29	
12	0	0	0	0	513	511	348	21	
13	0	0	0	0	516	509	347	25	
14	0	0	0	0	518	504	346	17	
15	0	0	0	0	517	505	346	21	
0	0	0	0	0	521	505	346	18	
1	0	0	0	0	519	504	346	22	
2	0	0	0	0	514	508	345	19	
3	0	0	0	0	511	508	345	19	
4	0	0	0	0	515	509	344	16	
5	0	0	0	0	516	503	344	6	
6	0	0	0	0	512	504	344	5	
7	0	0	0	0	512	507	344	4	
8	0	0	0	0	511	506	343	4	
9	0	0	0	0	504	507	344	4	
10	0	0	0	0	504	509	344	4	
11	0	0	0	0	504	510	344	4	
12	0	0	0	0	505	509	344	4	
13	0	0	0	0	508	510	344	3	
14	0	0	0	0	508	506	344	3	
15	0	0	0	0	512	504	344	3	
0	0	0	0	0	512	509	345	3	
1	0	0	0	0	514	513	344	3	
2	0	0	0	0	511	511	345	3	
3	0	0	0	0	513	505	344	3	
4	0	0	0	0	513	505	344	3	
5	0	0	0	0	512	504	345	3	
6	0	0	0	0	505	508	345	3	
7	0	0	0	0	506	515	346	3	
8	0	0	0	0	504	512	345	3	
9	0	0	0	0	507	510	345	3	
10	0	0	0	0	507	508	345	3	
11	0	0	0	0	507	508	344	3	
12	0	0	0	0	510	508	344	3	
13	0	0	0	0	514	508	343	3	
14	0	0	0	0	522	508	343	3	
15	0	0	0	0	518	511	344	3	
0	0	0	0	0	512	511	344	3	
1	0	0	0	0	512	509	343	3	
2	0	0	0	0	509	509	343	3	
3	0	0	0	0	510	508	343	3	
4	0	0	0	0	509	506	343	3	
5	0	0	0	0	511	506	343	3	
6	0	0	0	0	512	508	343	3	
7	0	0	0	0	508	506	344	3	
8	0	0	0	0	513	509	344	3	
9	0	0	0	0	516	507	344	3	
10	0	0	0	0	514	509	343	3	
11	0	0	0	0	505	510	343	3	
12	0	0	0	0	506	508	344	3	
13	0	0	0	0	502	508	343	3	
14	0	0	0	0	502	508	343	3	
15	0	0	0	0	510	510	342	3	
0	0	0	0	0	515	507	343	2	
1	0	0	0	0	513	501	344	2	
2	0	0	0	0	512	511	343	3	
3	0	0	0	0	512	512	342	3	
4	0	0	0	0	510	503	342	3	
5	0	0	0	0	510	503	342	2	
6	0	0	0	0	515	507	343	2	
7	0	0	0	0	516	510	342	2	
8	0	0	0	0	515	510	343	2	
9	0	0	0	0	514	509	343	3	
10	0	0	0	0	512	508	343	3	
11	0	0	0	0	514	510	342	3	
12	0	0	0	0	515	509	342	3	
13	0	0	0	0	512	508	342	3	
14	0	0	0	0	512	512	341	3	
15	0	0	0	0	515	512	341	3	
0	0	0	0	0	514	506	342	3	
1	0	0	0	0	506	505	341	3	
2	0	0	0	0	504	508	341	3	
3	0	0	0	0	505	508	342	3	
4	0	0	0	0	507	508	342	3	
5	0	0	0	0	511	511	342	3	
6	0	0	0	0	508	508	340	3	
7	0	0	0	0	509	506	341	3	
8	0	0	0	0	511	508	339	3	
9	0	0	0	0	510	508	341	3	
10	0	0	0	0	512	510	340	3	
11	0	0	0	0	512	504	340	3	
12	0	0	0	0	514	506	340	3	
13	0	0	0	0	516	501	340	3	
14	0	0	0	0	514	506	340	3	
15	0	0	0	0	517	509	342	3	
0	0	0	0	0	522	510	342	3	
1	0	0	0	0	512	508	343	3	
2	0	0	0	0	510	512	344	3	
3	0	0	0	0	511	511	343	3	
4	0	0	0	0	509	509	343	3	
5	0	0	0	0	507	508	343	3	
6	0	0	0	0	505	510	343	2	
7	0	0	0	0	506	509	343	3	
8	0	0	0	0	506	508	343	3	
9	0	0	0	0	511	507	344	3	
10	0	0	0	0	512	503	345	3	
11	0	0	0	0	512	508	343	3	
12	0	0	0	0	510	508	344	3	
13	0	0	0	0	509	508	345	2	
14	0	0	0	0	511	511	345	3	
15	0	0	0	0	513	515	345	2	
0	0	0	0	0	515	511	345	2	
1	0	0	0	0	518	511	346	3	
2	0	0	0	0	517	506	345	3	
3	0	0	0	0	512	505	345	2	
4	0	0	0	0	511	505	345	2	
5	0	0	0	0	511	507	344	2	
6	0	0	0	0	511	507	345	3	
7	0	0	0	0	512	507	345	2	
8	0	0	0	0	511	507	346	2	
9	0	0	0	0	510	508	345	3	
10	0	0	0	0	508	509	345	2	
11	0	0	0	0	511	510	345	2	
12	0	0	0	0	508	508	345	2	
13	0	0	0	0	508	511	344	2	
14	0	0	0	0	509	509	344	2	
15	0	0	0	0	511	505	344	2	
0	0	0	0	0	510	505	344	2	
1	0	0	0	0	509	506	344	2	
2	0	0	0	0	511	509	344	2	
3	0	0	0	0	513	508	345	2	
4	0	0	0	0	513	508	344	2	
5	0	0	0	0	513	507	344	2	
6	0	0	0	0	512	509	344	2	
7	0	0	0	0	513	509	344	2	
8	0	0	0	0	511	509	344	2	
9	0	0	0	0	512	508	344	2	
10	0	0	0	0	511	504	344	3	
11	0	0	0	0	508	508	344	2	
12	0	0	0	0	506	507	343	3	
13	0	0	0	0	510	508	345	2	
14	0	0	0	0	516	509	343	2	
15	0	0	0	0	521	509	344	2	
0	0	0	0	0	515	507	344	2	
1	0	0	0	0	513	506	343	2	
2	0	0	0	0	511	509	343	2	
3	0	0	0	0	506	510	341	2	
4	0	0	0	0	502	509	342	2	
5	0	0	0	0	503	508	342	2	
6	0	0	0	0	506	508	342	2	
7	0	0	0	0	511	506	342	2	
8	0	0	0	0	511	508	341	2	
9	0	0	0	0	515	507	342	3	
10	0	0	0	0	515	507	342	2	
11	0	0	0	0	514	506	341	2	
12	0	0	0	0	512	508	343	2	
13	0	0	0	0	507	509	342	2	
14	0	0	0	0	512	509	344	2	
15	0	0	0	0	512	508	344	2	
0	0	0	0	0	513	507	344	2	
1	0	0	0	0	516	508	345	2	
2	0	0	0	0	508	505	344	2	
3	0	0	0	0	505	503	344	2	
4	0	0	0	0	505	508	345	2	
5	0	0	0	0	507	509	344	2	
6	0	0	0	0	512	509	345	2	
7	0	0	0	0	514	511	345	2	
8	0	0	0	0	511	511	344	2	
9	0	0	0	0	511	512	344	2	
10	0	0	0	0	511	509	344	2	
11	0	0	0	0	519	507	344	2	
12	0	0	0	0	518	505	344	2	
13	0	0	0	0	519	507	344	2	
14	0	0	0	0	523	509	344	2	
15	0	0	0	0	513	507	344	2	
0	0	0	0	0	502	508	344	2	
1	0	0	0	0	499	508	344	2	
2	0	0	0	0	502	508	344	2	
3	0	0	0	0	506	508	345	2	
4	0	0	0	0	508	509	346	2	
5	0	0	0	0	513	509	345	2	
6	0	0	0	0	513	508	345	2	
7	0	0	0	0	511	507	345	2	
8	0	0	0	0	511	508	344	2	
9	0	0	0	0	510	508	345	2	
10	0	0	0	0	510	507	344	2	
11	0	0	0	0	510	506	344	2	
12	0	0	0	0	509	510	344	2	
13	0	0	0	0	511	510	344	2	
14	0	0	0	0	508	508	344	2	
15	0	0	0	0	515	506	343	2	
0	0	0	0	0	516	505	343	2	
1	0	0	0	0	514	506	343	2	
2	0	0	0	0	514	508	343	2	
3	0	0	0	0	516	509	344	2	
4	0	0	0	0	512	507	344	2	
5	0	0	0	0	514	509	343	2	
6	0	0	0	0	509	508	344	2	
7	0	0	0	0	510	508	344	2	
8	0	0	0	0	506	507	344	2	
9	0	0	0	0	507	508	344	2	
10	0	0	0	0	511	509	344	2	
11	0	0	0	0	509	509	344	2	
12	0	0	0	0	511	510	345	2	
13	0	0	0	0	511	508	345	2	
14	0	0	0	0	511	507	345	2	
15	0	0	0	0	510	509	345	2	
0	0	0	0	0	508	512	345	2	
1	0	0	0	0	510	512	344	2	
2	0	0	0	0	512	508	344	2	
3	0	0	0	0	510	508	344	2	
4	0	0	0	0	508	504	344	2	
5	0	0	0	0	511	507	344	2	
6	0	0	0	0	513	504	344	2	
7	0	0	0	0	511	505	344	2	
8	0	0	0	0	516	508	344	2	
9	0	0	0	0	515	508	344	2	
10	0	0	0	0	514	507	344	2	
11	0	0	0	0	514	511	345	2	
12	0	0	0	0	513	510	345	2	
13	0	0	0	0	514	508	345	2	
14	0	0	0	0	511	507	345	2	
15	0	0	0	0	511	507	345	2	
0	0	0	0	0	504	508	346	2	
1	0	0	0	0	501	508	345	2	
2	0	0	0	0	505	509	345	2	
3	0	0	0	0	504	507	345	2	
4	0	0	0	0	511	510	346	2	
5	0	0	0	0	511	511	345	2	
6	0	0	0	0	512	509	345	2	
7	0	0	0	0	512	506	345	2	
8	0	0	0	0	511	507	345	2	
9	0	0	0	0	513	507	346	2	
10	0	0	0	0	516	508	345	2	
11	0	0	0	0	515	507	345	2	
12	0	0	0	0	514	508	345	2	
13	0	0	0	0	510	508	344	1	
14	0	0	0	0	510	508	344	2	
15	0	0	0	0	513	507	345	2	
0	0	0	0	0	513	506	344	1	
1	0	0	0	0	508	508	344	2	
2	0	0	0	0	509	508	344	2	
3	0	0	0	0	509	509	344	2	
4	0	0	0	0	509	508	344	1	
5	0	0	0	0	509	510	345	2	
6	0	0	0	0	505	510	344	2	
7	0	0	0	0	510	509	344	2	
8	0	0	0	0	509	510	344	2	
9	0	0	0	0	510	509	345	2	
10	0	0	0	0	513	509	345	2	
11	0	0	0	0	515	507	344	2	
12	0	0	0	0	517	510	344	2	
13	0	0	0	0	519	508	344	2	
14	0	0	0	0	513	507	344	2	
15	0	0	0	0	510	508	344	2	
0	0	0	0	0	511	507	346	2	
1	0	0	0	0	512	506	344	2	
2	0	0	0	0	510	508	344	2	
3	0	0	0	0	510	507	344	2	
4	0	0	0	0	510	509	344	2	
5	0	0	0	0	509	508	342	2	
6	0	0	0	0	510	505	344	2	
7	0	0	0	0	512	507	342	2	
8	0	0	0	0	508	509	343	2	
9	0	0	0	0	505	507	343	2	
10	0	0	0	0	509	508	341	2	
11	0	0	0	0	511	508	343	2	
12	0	0	0	0	510	508	341	2	
13	0	0	0	0	511	507	342	2	
14	0	0	0	0	514	508	341	2	
15	0	0	0	0	512	509	340	2	
0	0	0	0	0	511	510	340	2	
1	0	0	0	0	512	508	340	2	
2	0	0	0	0	515	508	340	2	
3	0	0	0	0	516	509	340	2	
4	0	0	0	0	513	508	339	2	
5	0	0	0	0	511	508	341	2	
6	0	0	0	0	512	509	340	1	
7	0	0	0	0	510	507	340	1	
8	0	0	0	0	509	506	339	1	
9	0	0	0	0	509	507	337	1	
10	0	0	0	0	507	508	337	1	
11	0	0	0	0	509	511	337	1	
12	0	0	0	0	509	510	338	1	
13	0	0	0	0	510	509	337	1	
14	0	0	0	0	508	509	336	1	
15	0	0	0	0	510	507	336	1	
0	0	0	0	0	507	508	335	0	
1	0	0	0	0	510	509	335	0	
2	0	0	0	0	510	509	335	0	
3	0	0	0	0	509	511	334	0	
4	0	0	0	0	510	508	335	0	
5	0	0	0	0	512	509	335	0	
6	0	0	0	0	512	509	333	0	
7	0	0	0	0	514	509	332	0	
8	0	0	0	0	512	508	334	0	
9	0	0	0	0	511	510	333	0	
10	0	0	0	0	511	511	332	0	
11	0	0	0	0	510	509	332	0	
12	0	0	0	0	510	509	333	0	
13	0	0	0	0	510	509	332	0	
14	0	0	0	0	510	508	332	0	
15	0	0	0	0	508	510	330	0	
0	0	0	0	0	511	510	330	0	
1	0	0	0	0	510	507	331	0	
2	0	0	0	0	510	508	330	0	
3	0	0	0	0	512	507	329	0	
4	0	0	0	0	514	504	327	0	
5	0	0	0	0	514	507	327	0	
6	0	0	0	0	515	505	326	0	
7	0	0	0	0	515	506	322	0	
8	0	0	0	0	516	509	324	0	
9	0	0	0	0	521	511	323	0	
10	0	0	0	0	517	508	323	0	
11	0	0	0	0	515	505	323	0	
12	0	0	0	0	516	504	321	0	
13	0	0	0	0	513	505	321	0	
14	0	0	0	0	514	503	319	0	
15	0	0	0	0	511	512	319	0	
0	0	0	0	0	510	513	318	0	
1	0	0	0	0	508	511	318	0	
2	0	0	0	0	510	507	316	0	
3	0	0	0	0	507	504	315	0	
4	0	0	0	0	506	504	314	0	
5	0	0	0	0	509	504	313	0	
6	0	0	0	0	506	503	311	0	
7	0	0	0	0	508	506	311	0	
8	0	0	0	0	512	507	308	0	
9	0	0	0	0	511	509	308	0	
10	0	0	0	0	512	511	309	0	
11	0	0	0	0	513	508	308	0	
12	0	0	0	0	514	509	307	0	
13	0	0	0	0	515	509	307	0	
14	0	0	0	0	511	507	305	0	
15	0	0	0	0	515	508	301	0	
0	0	0	0	0	515	509	296	0	
1	0	0	0	0	513	508	295	0	
2	0	0	0	0	510	507	291	0	
3	0	0	0	0	510	509	289	0	
4	0	0	0	0	510	508	288	0	
5	0	0	0	0	507	509	287	0	
6	0	0	0	0	507	509	284	0	
7	0	0	0	0	507	508	283	0	
8	0	0	0	0	507	508	283	0	
9	0	0	0	0	505	507	283	0	
10	0	0	0	0	504	506	280	0	
11	0	0	0	0	506	506	280	0	
12	0	0	0	0	511	510	275	0	
13	0	0	0	0	512	507	271	0	
14	0	0	0	0	512	507	268	0	
15	0	0	0	0	514	509	269	0	
0	0	0	0	0	516	510	264	0	
1	0	0	0	0	514	510	260	0	
2	0	0	0	0	511	506	259	0	
3	0	0	0	0	513	508	251	0	
4	0	0	0	0	513	507	248	0	
5	0	0	0	0	513	506	243	0	
6	0	0	0	0	515	506	237	0	
7	0	0	0	0	518	507	235	0	
8	0	0	0	0	511	509	234	0	
9	0	0	0	0	508	510	233	0	
10	0	0	0	0	510	508	232	0	
11	0	0	0	0	504	508	232	0	
12	0	0	0	0	500	503	228	0	
13	0	0	0	0	507	508	223	0	
14	0	0	0	0	507	509	223	0	
15	0	0	0	0	512	510	221	0	
0	0	0	0	0	511	511	219	0	
1	0	0	0	0	510	509	216	0	
2	0	0	0	0	510	508	214	0	
3	0	0	0	0	511	508	212	0	
4	0	0	0	0	516	508	211	0	
5	0	0	0	0	516	506	209	0	
6	0	0	0	0	516	506	203	0	
7	0	0	0	0	510	507	201	0	
8	0	0	0	0	511	506	196	0	
9	0	0	0	0	511	505	193	0	
10	0	0	0	0	512	510	190	0	
11	0	0	0	0	506	508	191	0	
12	0	0	0	0	508	508	189	0	
13	0	0	0	0	511	509	187	0	
14	0	0	0	0	510	507	185	0	
15	0	0	0	0	510	508	183	0	
0	0	0	0	0	510	508	184	0	
1	0	0	0	0	509	509	186	0	
2	0	0	0	0	510	511	185	0	
3	0	0	0	0	510	509	186	0	
4	0	0	0	0	513	509	188	0	
5	0	0	0	0	513	507	185	0	
6	0	0	0	0	513	508	185	0	
7	0	0	0	0	517	507	187	0	
8	0	0	0	0	518	508	187	0	
9	0	0	0	0	513	506	187	0	
10	0	0	0	0	509	505	188	0	
11	0	0	0	0	512	508	187	0	
12	0	0	0	0	515	505	186	0	
13	0	0	0	0	515	507	184	0	
14	0	0	0	0	510	508	184	0	
15	0	0	0	0	507	508	183	0	
0	0	0	0	0	502	505	183	0	
1	0	0	0	0	507	509	181	0	
2	0	0	0	0	505	508	181	0	
3	0	0	0	0	507	509	180	0	
4	0	0	0	0	506	510	178	0	
5	0	0	0	0	508	509	178	0	
6	0	0	0	0	511	509	174	0	
7	0	0	0	0	514	509	173	0	
8	0	0	0	0	512	508	173	0	
9	0	0	0	0	511	510	171	0	
10	0	0	0	0	512	507	172	0	
11	0	0	0	0	515	510	171	0	
12	0	0	0	0	518	506	163	0	
13	0	0	0	0	515	507	163	0	
14	0	0	0	0	515	508	166	0	
15	0	0	0	0	512	504	163	0	
0	0	0	0	0	512	507	165	0	
1	0	0	0	0	521	511	163	0	
2	0	0	0	0	523	511	158	0	
3	0	0	0	0	508	507	155	0	
4	0	0	0	0	501	509	152	0	
5	0	0	0	0	506	508	148	0	
6	0	0	0	0	507	508	150	0	
7	0	0	0	0	505	506	149	0	
8	0	0	0	0	504	508	149	0	
9	0	0	0	0	504	508	147	0	
10	0	0	0	0	503	507	146	0	
11	0	0	0	0	502	508	144	0	
12	0	0	0	0	504	508	143	0	
13	0	0	0	0	510	510	142	0	
14	0	0	0	0	511	509	141	0	
15	0	0	0	0	522	511	140	0	
0	0	0	0	0	525	507	137	0	
1	0	0	0	0	520	507	134	0	
2	0	0	0	0	517	505	134	0	
3	0	0	0	0	516	506	130	0	
4	0	0	0	0	513	506	131	0	
5	0	0	0	0	508	508	131	0	
6	0	0	0	0	506	506	131	0	
7	0	0	0	0	507	507	130	0	
8	0	0	0	0	513	507	127	0	
9	0	0	0	0	513	508	128	0	
10	0	0	0	0	513	509	127	0	
11	0	0	0	0	504	507	127	0	
12	0	0	0	0	514	509	125	0	
13	0	0	0	0	512	508	124	0	
14	0	0	0	0	506	508	125	0	
15	0	0	0	0	504	508	121	0	
0	0	0	0	0	507	510	120	0	
1	0	0	0	0	508	508	122	0	
2	0	0	0	0	516	511	119	0	
3	0	0	0	0	518	510	118	0	
4	0	0	0	0	514	506	119	0	
5	0	0	0	0	511	508	121	0	
6	0	0	0	0	514	507	120	0	
7	0	0	0	0	515	507	119	0	
8	0	0	0	0	517	505	120	0	
9	0	0	0	0	513	507	121	0	
10	0	0	0	0	509	509	118	0	
11	0	0	0	0	508	507	118	0	
12	0	0	0	0	508	508	116	0	
13	0	0	0	0	508	507	115	0	
14	0	0	0	0	506	507	109	0	
15	0	0	0	0	509	508	111	0	
0	0	0	0	0	505	509	110	0	
1	0	0	0	0	508	511	110	0	
2	0	0	0	0	510	510	110	0	
3	0	0	0	0	508	509	113	0	
4	0	0	0	0	511	509	113	0	
5	0	0	0	0	514	509	114	0	
6	0	0	0	0	512	508	113	0	
7	0	0	0	0	516	507	112	0	
8	0	0	0	0	513	508	110	0	
9	0	0	0	0	513	507	108	0	
10	0	0	0	0	516	508	110	0	
11	0	0	0	0	517	507	107	0	
12	0	0	0	0	512	506	110	0	
13	0	0	0	0	509	505	105	0	
14	0	0	0	0	515	509	105	0	
15	0	0	0	0	507	509	106	0	
0	0	0	0	0	504	508	105	0	
1	0	0	0	0	511	510	106	0	
2	0	0	0	0	512	508	103	0	
3	0	0	0	0	512	509	103	0	
4	0	0	0	0	504	509	99	0	
5	0	0	0	0	506	509	99	0	
6	0	0	0	0	508	509	99	0	
7	0	0	0	0	510	508	99	0	
8	0	0	0	0	512	509	93	0	
9	0	0	0	0	512	508	95	0	
10	0	0	0	0	517	509	92	0	
11	0	0	0	0	517	508	89	0	
12	0	0	0	0	513	508	94	0	
13	0	0	0	0	512	507	92	0	
14	0	0	0	0	513	507	92	0	
15	0	0	0	0	513	507	91	0	
0	0	0	0	0	512	507	88	0	
1	0	0	0	0	513	507	88	0	
2	0	0	0	0	510	505	89	0	
3	0	0	0	0	512	508	84	0	
4	0	0	0	0	508	507	87	0	
5	0	0	0	0	507	509	89	0	
6	0	0	0	0	507	508	89	0	
7	0	0	0	0	507	509	88	0	
8	0	0	0	0	507	508	88	0	
9	0	0	0	0	507	508	87	0	
10	0	0	0	0	507	508	88	0	
11	0	0	0	0	508	510	85	0	
12	0	0	0	0	512	507	83	0	
13	0	0	0	0	507	506	84	0	
14	0	0	0	0	510	508	80	0	
15	0	0	0	0	513	505	82	0	
0	0	0	0	0	516	507	83	0	
1	0	0	0	0	520	509	83	0	
2	0	0	0	0	521	508	83	0	
3	0	0	0	0	513	505	81	0	
4	0	0	0	0	511	508	83	0	
5	0	0	0	0	512	508	82	0	
6	0	0	0	0	513	508	84	0	
7	0	0	0	0	507	508	83	0	
8	0	0	0	0	509	508	80	0	
9	0	0	0	0	511	508	80	0	
10	0	0	0	0	507	506	83	0	
11	0	0	0	0	504	508	83	0	
12	0	0	0	0	506	509	79	0	
13	0	0	0	0	514	510	82	0	
14	0	0	0	0	516	510	78	0	
15	0	0	0	0	510	507	71	0	
0	0	0	0	0	503	509	74	0	
1	0	0	0	0	511	508	79	0	
2	0	0	0	0	515	508	78	0	
3	0	0	0	0	511	508	84	0	
4	0	0	0	0	512	507	79	0	
