# OpenSignals Text File Format. Version 1
# {"20:18:06:13:21:78": {"position": 0, "device": "bitalino_rev", "device name": "20:18:06:13:21:78", "device connection": "BTH20:18:06:13:21:78", "sampling rate": 1000, "resolution": [4, 1, 1, 1, 1, 10, 10, 10, 10], "firmware version": 1281, "comments": "", "keywords": "", "mode": 0, "sync interval": 2, "date": "2023-6-5", "time": "19:57:16.857", "channels": [1, 2, 3, 4], "sensor": ["EMGBITREV", "EMGBITREV", "RAW", "RAW"], "label": ["A1", "A2", "A3", "A4"], "column": ["nSeq", "I1", "I2", "O1", "O2", "A1", "A2", "A3", "A4"], "special": [{}, {}, {}, {}], "digital IO": [0, 0, 1, 1]}}
# EndOfHeader
0	0	0	0	0	506	504	0	0	
1	0	0	0	0	509	506	0	0	
2	0	0	0	0	510	508	0	0	
3	0	0	0	0	510	506	0	0	
4	0	0	0	0	514	505	0	0	
5	0	0	0	0	514	510	0	0	
6	0	0	0	0	515	509	0	0	
7	0	0	0	0	514	510	0	0	
8	0	0	0	0	516	511	0	0	
9	0	0	0	0	515	511	0	0	
10	0	0	0	0	515	509	0	0	
11	0	0	0	0	516	508	0	0	
12	0	0	0	0	510	509	0	0	
13	0	0	0	0	508	506	0	0	
14	0	0	0	0	507	506	0	0	
15	0	0	0	0	508	509	0	0	
0	0	0	0	0	510	507	0	0	
1	0	0	0	0	512	508	0	0	
2	0	0	0	0	510	508	0	0	
3	0	0	0	0	507	507	0	0	
4	0	0	0	0	508	506	0	0	
5	0	0	0	0	514	506	0	0	
6	0	0	0	0	512	508	0	0	
7	0	0	0	0	509	509	0	0	
8	0	0	0	0	510	508	0	0	
9	0	0	0	0	512	509	0	0	
10	0	0	0	0	515	510	0	0	
11	0	0	0	0	513	509	0	0	
12	0	0	0	0	514	511	0	0	
13	0	0	0	0	515	510	0	0	
14	0	0	0	0	515	509	0	0	
15	0	0	0	0	516	509	0	0	
0	0	0	0	0	512	507	0	0	
1	0	0	0	0	511	509	0	0	
2	0	0	0	0	508	507	0	0	
3	0	0	0	0	507	507	0	0	
4	0	0	0	0	508	508	0	0	
5	0	0	0	0	507	507	0	0	
6	0	0	0	0	508	508	0	0	
7	0	0	0	0	507	505	0	0	
8	0	0	0	0	507	506	0	0	
9	0	0	0	0	510	508	0	0	
10	0	0	0	0	508	507	0	0	
11	0	0	0	0	509	507	0	0	
12	0	0	0	0	515	509	0	0	
13	0	0	0	0	512	509	0	0	
14	0	0	0	0	512	509	0	0	
15	0	0	0	0	516	508	0	0	
0	0	0	0	0	515	510	0	0	
1	0	0	0	0	516	508	0	0	
2	0	0	0	0	517	509	0	0	
3	0	0	0	0	515	510	0	0	
4	0	0	0	0	512	512	0	0	
5	0	0	0	0	511	507	0	0	
6	0	0	0	0	510	508	0	0	
7	0	0	0	0	509	507	0	0	
8	0	0	0	0	509	508	0	0	
9	0	0	0	0	508	507	0	0	
10	0	0	0	0	505	505	0	0	
11	0	0	0	0	502	507	0	0	
12	0	0	0	0	501	505	0	0	
13	0	0	0	0	504	507	1	0	
14	0	0	0	0	508	509	1	0	
15	0	0	0	0	512	509	1	0	
0	0	0	0	0	511	509	0	0	
1	0	0	0	0	514	511	1	0	
2	0	0	0	0	516	510	0	0	
3	0	0	0	0	516	510	1	0	
4	0	0	0	0	516	510	1	0	
5	0	0	0	0	515	508	0	0	
6	0	0	0	0	514	506	0	0	
7	0	0	0	0	513	507	0	0	
8	0	0	0	0	515	508	0	0	
9	0	0	0	0	514	509	0	0	
10	0	0	0	0	509	508	1	0	
11	0	0	0	0	508	508	0	0	
12	0	0	0	0	508	505	0	0	
13	0	0	0	0	510	507	0	0	
14	0	0	0	0	506	508	0	0	
15	0	0	0	0	506	507	0	0	
0	0	0	0	0	508	507	0	0	
1	0	0	0	0	508	508	0	0	
2	0	0	0	0	509	507	0	0	
3	0	0	0	0	511	508	0	0	
4	0	0	0	0	511	507	0	0	
5	0	0	0	0	514	508	0	0	
6	0	0	0	0	513	510	0	0	
7	0	0	0	0	515	508	0	0	
8	0	0	0	0	514	511	0	0	
9	0	0	0	0	515	510	0	0	
10	0	0	0	0	517	509	0	0	
11	0	0	0	0	516	508	0	0	
12	0	0	0	0	511	507	0	0	
13	0	0	0	0	511	508	0	0	
14	0	0	0	0	511	508	0	0	
15	0	0	0	0	510	507	0	0	
0	0	0	0	0	507	507	0	0	
1	0	0	0	0	509	508	0	0	
2	0	0	0	0	507	506	0	0	
3	0	0	0	0	506	508	0	0	
4	0	0	0	0	508	508	0	0	
5	0	0	0	0	508	508	0	0	
6	0	0	0	0	507	508	0	0	
7	0	0	0	0	509	507	0	0	
8	0	0	0	0	511	509	0	0	
9	0	0	0	0	512	508	0	0	
10	0	0	0	0	515	508	0	0	
11	0	0	0	0	515	509	0	0	
12	0	0	0	0	518	508	0	0	
13	0	0	0	0	515	510	0	0	
14	0	0	0	0	513	507	0	0	
15	0	0	0	0	512	509	0	0	
0	0	0	0	0	514	509	0	0	
1	0	0	0	0	513	507	0	0	
2	0	0	0	0	510	506	0	0	
3	0	0	0	0	508	507	0	0	
4	0	0	0	0	505	507	0	0	
5	0	0	0	0	507	507	0	0	
6	0	0	0	0	505	508	0	0	
7	0	0	0	0	508	506	0	0	
8	0	0	0	0	509	508	0	0	
9	0	0	0	0	509	507	0	0	
10	0	0	0	0	508	508	0	0	
11	0	0	0	0	509	510	0	0	
12	0	0	0	0	511	509	0	0	
13	0	0	0	0	513	509	0	0	
14	0	0	0	0	515	508	0	0	
15	0	0	0	0	517	510	0	0	
0	0	0	0	0	515	510	0	0	
1	0	0	0	0	516	510	0	0	
2	0	0	0	0	516	508	0	0	
3	0	0	0	0	514	509	0	0	
4	0	0	0	0	514	508	0	0	
5	0	0	0	0	510	508	0	0	
6	0	0	0	0	508	507	0	0	
7	0	0	0	0	509	507	0	0	
8	0	0	0	0	511	507	0	0	
9	0	0	0	0	505	504	0	0	
10	0	0	0	0	505	506	0	0	
11	0	0	0	0	507	507	0	0	
12	0	0	0	0	508	507	0	0	
13	0	0	0	0	507	507	0	0	
14	0	0	0	0	508	510	0	0	
15	0	0	0	0	508	508	0	0	
0	0	0	0	0	512	508	0	0	
1	0	0	0	0	515	509	0	0	
2	0	0	0	0	515	509	0	0	
3	0	0	0	0	517	511	0	0	
4	0	0	0	0	516	510	0	0	
5	0	0	0	0	516	508	0	0	
6	0	0	0	0	515	509	0	0	
7	0	0	0	0	515	508	0	0	
8	0	0	0	0	511	508	0	0	
9	0	0	0	0	511	508	0	0	
10	0	0	0	0	509	510	0	0	
11	0	0	0	0	507	507	0	0	
12	0	0	0	0	508	507	0	0	
13	0	0	0	0	505	507	0	0	
14	0	0	0	0	506	506	0	0	
15	0	0	0	0	506	508	0	0	
0	0	0	0	0	508	508	0	0	
1	0	0	0	0	508	505	0	0	
2	0	0	0	0	505	507	0	0	
3	0	0	0	0	511	506	0	0	
4	0	0	0	0	512	508	0	0	
5	0	0	0	0	515	509	0	0	
6	0	0	0	0	517	508	0	0	
7	0	0	0	0	516	508	0	0	
8	0	0	0	0	516	509	0	0	
9	0	0	0	0	517	510	0	0	
10	0	0	0	0	515	509	0	0	
11	0	0	0	0	513	508	0	0	
12	0	0	0	0	512	508	0	0	
13	0	0	0	0	513	508	0	0	
14	0	0	0	0	511	508	0	0	
15	0	0	0	0	509	507	0	0	
0	0	0	0	0	505	505	0	0	
1	0	0	0	0	506	506	0	0	
2	0	0	0	0	507	507	0	0	
3	0	0	0	0	506	506	0	0	
4	0	0	0	0	506	509	0	0	
5	0	0	0	0	508	508	0	0	
6	0	0	0	0	509	506	0	0	
7	0	0	0	0	511	509	0	0	
8	0	0	0	0	511	508	0	0	
9	0	0	0	0	517	508	0	0	
10	0	0	0	0	515	510	0	0	
11	0	0	0	0	518	509	0	0	
12	0	0	0	0	517	508	0	0	
13	0	0	0	0	515	509	0	0	
14	0	0	0	0	514	509	0	0	
15	0	0	0	0	511	508	0	0	
0	0	0	0	0	512	510	0	0	
1	0	0	0	0	511	508	0	0	
2	0	0	0	0	512	508	0	0	
3	0	0	0	0	507	506	0	0	
4	0	0	0	0	504	505	0	0	
5	0	0	0	0	506	507	0	0	
6	0	0	0	0	508	507	0	0	
7	0	0	0	0	508	507	0	0	
8	0	0	0	0	508	509	0	0	
9	0	0	0	0	510	508	0	0	
10	0	0	0	0	509	508	0	0	
11	0	0	0	0	511	509	0	0	
12	0	0	0	0	513	509	0	0	
13	0	0	0	0	515	510	0	0	
14	0	0	0	0	515	508	0	0	
15	0	0	0	0	513	508	0	0	
0	0	0	0	0	513	509	0	0	
1	0	0	0	0	513	510	0	0	
2	0	0	0	0	513	508	0	0	
3	0	0	0	0	512	507	0	0	
4	0	0	0	0	512	507	0	0	
5	0	0	0	0	509	508	0	0	
6	0	0	0	0	509	508	0	0	
7	0	0	0	0	508	507	0	0	
8	0	0	0	0	507	508	0	0	
9	0	0	0	0	508	507	0	0	
10	0	0	0	0	510	508	0	0	
11	0	0	0	0	506	505	0	0	
12	0	0	0	0	509	507	0	0	
13	0	0	0	0	507	508	0	0	
14	0	0	0	0	508	508	0	0	
15	0	0	0	0	510	510	0	0	
0	0	0	0	0	513	509	0	0	
1	0	0	0	0	515	509	0	0	
2	0	0	0	0	514	508	0	0	
3	0	0	0	0	515	511	0	0	
4	0	0	0	0	518	508	0	0	
5	0	0	0	0	516	509	0	0	
6	0	0	0	0	516	508	0	0	
7	0	0	0	0	514	509	0	0	
8	0	0	0	0	514	508	0	0	
9	0	0	0	0	511	507	0	0	
10	0	0	0	0	509	507	0	0	
11	0	0	0	0	506	506	0	0	
12	0	0	0	0	506	508	0	0	
13	0	0	0	0	507	507	0	0	
14	0	0	0	0	507	508	0	0	
15	0	0	0	0	508	508	0	0	
0	0	0	0	0	510	508	0	0	
1	0	0	0	0	508	508	0	0	
2	0	0	0	0	509	507	0	0	
3	0	0	0	0	511	507	0	0	
4	0	0	0	0	511	506	0	0	
5	0	0	0	0	514	509	0	0	
6	0	0	0	0	515	509	0	0	
7	0	0	0	0	515	509	0	0	
8	0	0	0	0	515	508	0	0	
9	0	0	0	0	518	509	0	0	
10	0	0	0	0	516	509	0	0	
11	0	0	0	0	515	509	0	0	
12	0	0	0	0	515	507	0	0	
13	0	0	0	0	513	507	0	0	
14	0	0	0	0	508	507	0	0	
15	0	0	0	0	508	507	0	0	
0	0	0	0	0	506	507	0	0	
1	0	0	0	0	507	508	0	0	
2	0	0	0	0	506	508	0	0	
3	0	0	0	0	506	505	0	0	
4	0	0	0	0	506	507	0	0	
5	0	0	0	0	507	508	0	0	
6	0	0	0	0	508	508	0	0	
7	0	0	0	0	511	510	0	0	
8	0	0	0	0	513	508	0	0	
9	0	0	0	0	513	507	0	0	
10	0	0	0	0	515	509	0	0	
11	0	0	0	0	516	511	0	0	
12	0	0	0	0	515	510	0	0	
13	0	0	0	0	518	507	0	0	
14	0	0	0	0	514	508	0	0	
15	0	0	0	0	515	507	0	0	
0	0	0	0	0	512	507	0	0	
1	0	0	0	0	512	508	0	0	
2	0	0	0	0	510	507	0	0	
3	0	0	0	0	507	508	0	0	
4	0	0	0	0	508	509	0	0	
5	0	0	0	0	505	509	0	0	
6	0	0	0	0	507	506	0	0	
7	0	0	0	0	507	508	0	0	
8	0	0	0	0	508	508	0	0	
9	0	0	0	0	507	508	0	0	
10	0	0	0	0	509	509	0	0	
11	0	0	0	0	511	508	0	0	
12	0	0	0	0	511	509	0	0	
13	0	0	0	0	514	509	0	0	
14	0	0	0	0	515	508	0	0	
15	0	0	0	0	512	508	0	0	
0	0	0	0	0	515	508	0	0	
1	0	0	0	0	515	507	0	0	
2	0	0	0	0	518	507	0	0	
3	0	0	0	0	515	508	0	0	
4	0	0	0	0	512	509	0	0	
5	0	0	0	0	510	508	0	0	
6	0	0	0	0	510	506	0	0	
7	0	0	0	0	507	506	0	0	
8	0	0	0	0	510	507	0	0	
9	0	0	0	0	507	505	0	0	
10	0	0	0	0	509	506	0	0	
11	0	0	0	0	507	509	0	0	
12	0	0	0	0	507	506	0	0	
13	0	0	0	0	506	508	0	0	
14	0	0	0	0	508	508	0	0	
15	0	0	0	0	510	507	0	0	
0	0	0	0	0	509	511	0	0	
1	0	0	0	0	510	509	0	0	
2	0	0	0	0	514	510	0	0	
3	0	0	0	0	517	511	0	0	
4	0	0	0	0	516	509	0	0	
5	0	0	0	0	521	510	0	0	
6	0	0	0	0	515	508	0	0	
7	0	0	0	0	515	507	0	0	
8	0	0	0	0	514	508	0	0	
9	0	0	0	0	512	508	0	0	
10	0	0	0	0	512	506	0	0	
11	0	0	0	0	508	508	0	0	
12	0	0	0	0	507	508	0	0	
13	0	0	0	0	505	503	0	0	
14	0	0	0	0	505	507	0	0	
15	0	0	0	0	504	509	0	0	
0	0	0	0	0	507	508	0	0	
1	0	0	0	0	508	508	0	0	
2	0	0	0	0	508	510	0	0	
3	0	0	0	0	509	509	0	0	
4	0	0	0	0	511	509	0	0	
5	0	0	0	0	513	508	0	0	
6	0	0	0	0	515	505	0	0	
7	0	0	0	0	514	507	0	0	
8	0	0	0	0	519	508	0	0	
9	0	0	0	0	517	509	0	0	
10	0	0	0	0	518	508	0	0	
11	0	0	0	0	515	509	0	0	
12	0	0	0	0	512	508	0	0	
13	0	0	0	0	512	508	0	0	
14	0	0	0	0	508	508	0	0	
15	0	0	0	0	508	507	0	0	
0	0	0	0	0	509	507	0	0	
1	0	0	0	0	505	506	0	0	
2	0	0	0	0	505	508	0	0	
3	0	0	0	0	506	507	0	0	
4	0	0	0	0	508	505	0	0	
5	0	0	0	0	509	506	0	0	
6	0	0	0	0	507	508	0	0	
7	0	0	0	0	511	509	0	0	
8	0	0	0	0	510	508	0	0	
9	0	0	0	0	515	509	0	0	
10	0	0	0	0	517	510	0	0	
11	0	0	0	0	515	510	0	0	
12	0	0	0	0	516	509	0	0	
13	0	0	0	0	517	508	0	0	
14	0	0	0	0	515	509	0	0	
15	0	0	0	0	514	508	0	0	
0	0	0	0	0	513	507	0	0	
1	0	0	0	0	512	508	0	0	
2	0	0	0	0	511	507	0	0	
3	0	0	0	0	508	508	0	0	
4	0	0	0	0	506	508	0	0	
5	0	0	0	0	506	507	0	0	
6	0	0	0	0	506	506	0	0	
7	0	0	0	0	504	507	0	0	
8	0	0	0	0	507	508	0	0	
9	0	0	0	0	509	509	0	0	
10	0	0	0	0	511	512	0	0	
11	0	0	0	0	511	509	0	0	
12	0	0	0	0	511	508	0	0	
13	0	0	0	0	512	511	0	0	
14	0	0	0	0	514	509	0	0	
15	0	0	0	0	515	509	0	0	
0	0	0	0	0	516	506	0	0	
1	0	0	0	0	516	509	0	0	
2	0	0	0	0	515	508	0	0	
3	0	0	0	0	514	507	0	0	
4	0	0	0	0	515	508	0	0	
5	0	0	0	0	511	508	0	0	
6	0	0	0	0	512	505	0	0	
7	0	0	0	0	507	508	0	0	
8	0	0	0	0	507	508	0	0	
9	0	0	0	0	507	508	0	0	
10	0	0	0	0	507	508	0	0	
11	0	0	0	0	506	506	0	0	
12	0	0	0	0	508	509	0	0	
13	0	0	0	0	508	507	0	0	
14	0	0	0	0	507	508	0	0	
15	0	0	0	0	510	510	0	0	
0	0	0	0	0	513	509	0	0	
1	0	0	0	0	516	507	0	0	
2	0	0	0	0	514	510	0	0	
3	0	0	0	0	514	508	0	0	
4	0	0	0	0	516	508	0	0	
5	0	0	0	0	516	512	0	0	
6	0	0	0	0	516	508	0	0	
7	0	0	0	0	515	507	0	0	
8	0	0	0	0	514	507	0	0	
9	0	0	0	0	513	507	0	0	
10	0	0	0	0	510	508	0	0	
11	0	0	0	0	509	507	0	0	
12	0	0	0	0	507	506	0	0	
13	0	0	0	0	507	506	0	0	
14	0	0	0	0	507	509	0	0	
15	0	0	0	0	505	508	0	0	
0	0	0	0	0	507	506	0	0	
1	0	0	0	0	509	508	0	0	
2	0	0	0	0	511	508	0	0	
3	0	0	0	0	511	509	0	0	
4	0	0	0	0	512	508	0	0	
5	0	0	0	0	514	509	0	0	
6	0	0	0	0	515	510	0	0	
7	0	0	0	0	515	510	0	0	
8	0	0	0	0	517	508	0	0	
9	0	0	0	0	517	508	0	0	
10	0	0	0	0	515	508	0	0	
11	0	0	0	0	515	510	0	0	
12	0	0	0	0	511	509	0	0	
13	0	0	0	0	510	507	0	0	
14	0	0	0	0	510	506	0	0	
15	0	0	0	0	507	508	0	0	
0	0	0	0	0	507	508	0	0	
1	0	0	0	0	506	507	0	0	
2	0	0	0	0	505	507	0	0	
3	0	0	0	0	505	507	0	0	
4	0	0	0	0	508	508	0	0	
5	0	0	0	0	508	510	0	0	
6	0	0	0	0	511	507	0	0	
7	0	0	0	0	511	509	0	0	
8	0	0	0	0	511	509	0	0	
9	0	0	0	0	513	509	0	0	
10	0	0	0	0	515	509	0	0	
11	0	0	0	0	515	509	0	0	
12	0	0	0	0	515	510	0	0	
13	0	0	0	0	518	510	0	0	
14	0	0	0	0	516	508	0	0	
15	0	0	0	0	515	507	0	0	
0	0	0	0	0	513	508	0	0	
1	0	0	0	0	511	509	0	0	
2	0	0	0	0	510	509	0	0	
3	0	0	0	0	508	505	0	0	
4	0	0	0	0	507	505	0	0	
5	0	0	0	0	508	505	0	0	
6	0	0	0	0	508	506	0	0	
7	0	0	0	0	507	508	0	0	
8	0	0	0	0	504	508	0	0	
9	0	0	0	0	508	508	0	0	
10	0	0	0	0	505	509	0	0	
11	0	0	0	0	509	510	0	0	
12	0	0	0	0	513	508	0	0	
13	0	0	0	0	514	508	0	0	
14	0	0	0	0	516	508	0	0	
15	0	0	0	0	515	510	0	0	
0	0	0	0	0	516	508	0	0	
1	0	0	0	0	517	510	0	0	
2	0	0	0	0	515	508	0	0	
3	0	0	0	0	513	507	0	0	
4	0	0	0	0	515	509	0	0	
5	0	0	0	0	512	507	0	0	
6	0	0	0	0	509	506	0	0	
7	0	0	0	0	508	507	0	0	
8	0	0	0	0	507	508	0	0	
9	0	0	0	0	508	507	0	0	
10	0	0	0	0	507	508	0	0	
11	0	0	0	0	505	506	0	0	
12	0	0	0	0	508	506	0	0	
13	0	0	0	0	510	509	0	0	
14	0	0	0	0	511	508	0	0	
15	0	0	0	0	511	508	0	0	
0	0	0	0	0	511	508	0	0	
1	0	0	0	0	513	510	0	0	
2	0	0	0	0	513	509	0	0	
3	0	0	0	0	517	508	0	0	
4	0	0	0	0	516	507	0	0	
5	0	0	0	0	515	510	0	0	
6	0	0	0	0	516	508	0	0	
7	0	0	0	0	513	510	0	0	
8	0	0	0	0	511	509	0	0	
9	0	0	0	0	510	507	0	0	
10	0	0	0	0	509	508	0	0	
11	0	0	0	0	506	508	0	0	
12	0	0	0	0	507	508	0	0	
13	0	0	0	0	508	507	0	0	
14	0	0	0	0	508	508	0	0	
15	0	0	0	0	507	507	0	0	
0	0	0	0	0	505	505	0	0	
1	0	0	0	0	508	507	0	0	
2	0	0	0	0	507	510	0	0	
3	0	0	0	0	510	510	0	0	
4	0	0	0	0	513	509	0	0	
5	0	0	0	0	515	508	0	0	
6	0	0	0	0	514	509	0	0	
7	0	0	0	0	516	509	0	0	
8	0	0	0	0	516	508	0	0	
9	0	0	0	0	517	509	0	0	
10	0	0	0	0	515	507	0	0	
11	0	0	0	0	514	509	0	0	
12	0	0	0	0	512	508	0	0	
13	0	0	0	0	511	508	0	0	
14	0	0	0	0	509	508	0	0	
15	0	0	0	0	509	507	0	0	
0	0	0	0	0	506	506	0	0	
1	0	0	0	0	507	507	0	0	
2	0	0	0	0	505	508	0	0	
3	0	0	0	0	505	507	0	0	
4	0	0	0	0	508	506	0	0	
5	0	0	0	0	509	508	0	0	
6	0	0	0	0	507	508	0	0	
7	0	0	0	0	512	509	0	0	
8	0	0	0	0	512	510	0	0	
9	0	0	0	0	515	511	0	0	
10	0	0	0	0	514	508	0	0	
11	0	0	0	0	514	509	0	0	
12	0	0	0	0	517	508	0	0	
13	0	0	0	0	518	511	0	0	
14	0	0	0	0	515	509	0	0	
15	0	0	0	0	513	507	0	0	
0	0	0	0	0	513	507	0	0	
1	0	0	0	0	510	508	0	0	
2	0	0	0	0	509	509	0	0	
3	0	0	0	0	508	508	0	0	
4	0	0	0	0	507	507	0	0	
5	0	0	0	0	507	507	0	0	
6	0	0	0	0	507	505	0	0	
7	0	0	0	0	506	507	0	0	
8	0	0	0	0	505	507	0	0	
9	0	0	0	0	505	507	0	0	
10	0	0	0	0	509	506	0	0	
11	0	0	0	0	511	510	0	0	
12	0	0	0	0	511	510	0	0	
13	0	0	0	0	515	508	0	0	
14	0	0	0	0	516	509	0	0	
15	0	0	0	0	514	509	0	0	
0	0	0	0	0	516	508	0	0	
1	0	0	0	0	516	509	0	0	
2	0	0	0	0	515	509	0	0	
3	0	0	0	0	515	509	0	0	
4	0	0	0	0	512	507	0	0	
5	0	0	0	0	510	508	0	0	
6	0	0	0	0	510	508	0	0	
7	0	0	0	0	508	506	0	0	
8	0	0	0	0	507	507	0	0	
9	0	0	0	0	507	507	0	0	
10	0	0	0	0	508	506	0	0	
11	0	0	0	0	508	508	0	0	
12	0	0	0	0	507	507	0	0	
13	0	0	0	0	508	509	0	0	
14	0	0	0	0	508	507	0	0	
15	0	0	0	0	512	509	0	0	
0	0	0	0	0	511	510	0	0	
1	0	0	0	0	512	508	0	0	
2	0	0	0	0	516	510	0	0	
3	0	0	0	0	517	509	0	0	
4	0	0	0	0	515	508	0	0	
5	0	0	0	0	517	508	0	0	
6	0	0	0	0	516	511	0	0	
7	0	0	0	0	517	508	0	0	
8	0	0	0	0	513	508	0	0	
9	0	0	0	0	510	508	0	0	
10	0	0	0	0	508	507	0	0	
11	0	0	0	0	507	505	0	0	
12	0	0	0	0	508	508	0	0	
13	0	0	0	0	507	506	0	0	
14	0	0	0	0	505	507	0	0	
15	0	0	0	0	507	507	0	0	
0	0	0	0	0	508	508	0	0	
1	0	0	0	0	508	507	0	0	
2	0	0	0	0	511	508	0	0	
3	0	0	0	0	508	507	0	0	
4	0	0	0	0	512	509	0	0	
5	0	0	0	0	513	510	0	0	
6	0	0	0	0	515	509	0	0	
7	0	0	0	0	513	508	0	0	
8	0	0	0	0	516	508	0	0	
9	0	0	0	0	518	508	0	0	
10	0	0	0	0	514	508	0	0	
11	0	0	0	0	516	509	0	0	
12	0	0	0	0	513	508	0	0	
13	0	0	0	0	510	510	0	0	
14	0	0	0	0	511	508	0	0	
15	0	0	0	0	508	507	0	0	
0	0	0	0	0	507	506	0	0	
1	0	0	0	0	507	508	0	0	
2	0	0	0	0	505	506	0	0	
3	0	0	0	0	505	508	0	0	
4	0	0	0	0	508	507	0	0	
5	0	0	0	0	508	508	0	0	
6	0	0	0	0	508	506	0	0	
7	0	0	0	0	511	507	0	0	
8	0	0	0	0	511	509	0	0	
9	0	0	0	0	516	510	0	0	
10	0	0	0	0	513	510	0	0	
11	0	0	0	0	518	510	0	0	
12	0	0	0	0	514	510	0	0	
13	0	0	0	0	517	508	0	0	
14	0	0	0	0	517	509	0	0	
15	0	0	0	0	513	506	0	0	
0	0	0	0	0	512	507	0	0	
1	0	0	0	0	511	510	0	0	
2	0	0	0	0	510	509	0	0	
3	0	0	0	0	506	506	0	0	
4	0	0	0	0	508	508	0	0	
5	0	0	0	0	508	507	0	0	
6	0	0	0	0	507	507	0	0	
7	0	0	0	0	508	506	0	0	
8	0	0	0	0	508	507	0	0	
9	0	0	0	0	508	508	0	0	
10	0	0	0	0	510	509	0	0	
11	0	0	0	0	510	506	0	0	
12	0	0	0	0	513	509	0	0	
13	0	0	0	0	514	510	0	0	
14	0	0	0	0	515	509	0	0	
15	0	0	0	0	514	507	0	0	
0	0	0	0	0	513	510	0	0	
1	0	0	0	0	515	510	0	0	
2	0	0	0	0	516	509	0	0	
3	0	0	0	0	516	507	0	0	
4	0	0	0	0	512	507	0	0	
5	0	0	0	0	510	506	0	0	
6	0	0	0	0	511	506	0	0	
7	0	0	0	0	508	507	0	0	
8	0	0	0	0	506	508	0	0	
9	0	0	0	0	506	508	0	0	
10	0	0	0	0	508	507	0	0	
11	0	0	0	0	506	508	0	0	
12	0	0	0	0	507	506	0	0	
13	0	0	0	0	510	508	0	0	
14	0	0	0	0	511	510	0	0	
15	0	0	0	0	509	508	0	0	
0	0	0	0	0	511	510	0	0	
1	0	0	0	0	515	509	0	0	
2	0	0	0	0	513	510	0	0	
3	0	0	0	0	515	509	0	0	
4	0	0	0	0	516	509	0	0	
5	0	0	0	0	515	509	0	0	
6	0	0	0	0	516	508	0	0	
7	0	0	0	0	512	508	0	0	
8	0	0	0	0	513	507	0	0	
9	0	0	0	0	510	508	0	0	
10	0	0	0	0	510	507	0	0	
11	0	0	0	0	507	506	0	0	
12	0	0	0	0	506	505	0	0	
13	0	0	0	0	509	505	0	0	
14	0	0	0	0	507	508	0	0	
15	0	0	0	0	509	509	0	0	
0	0	0	0	0	507	508	0	0	
1	0	0	0	0	509	510	0	0	
2	0	0	0	0	509	505	0	0	
3	0	0	0	0	512	509	0	0	
4	0	0	0	0	512	509	0	0	
5	0	0	0	0	513	508	0	0	
6	0	0	0	0	514	507	0	0	
7	0	0	0	0	518	508	0	0	
8	0	0	0	0	517	508	0	0	
9	0	0	0	0	515	510	0	0	
10	0	0	0	0	516	508	0	0	
11	0	0	0	0	515	508	0	0	
12	0	0	0	0	512	506	0	0	
13	0	0	0	0	510	508	0	0	
14	0	0	0	0	509	507	0	0	
15	0	0	0	0	508	507	0	0	
0	0	0	0	0	508	507	0	0	
1	0	0	0	0	505	510	0	0	
2	0	0	0	0	506	508	0	0	
3	0	0	0	0	506	508	0	0	
4	0	0	0	0	507	508	0	0	
5	0	0	0	0	507	509	0	0	
6	0	0	0	0	507	508	0	0	
7	0	0	0	0	510	509	0	0	
8	0	0	0	0	511	509	0	0	
9	0	0	0	0	512	508	0	0	
10	0	0	0	0	513	509	0	0	
11	0	0	0	0	516	509	0	0	
12	0	0	0	0	518	510	0	0	
13	0	0	0	0	516	509	0	0	
14	0	0	0	0	516	510	0	0	
15	0	0	0	0	512	509	0	0	
0	0	0	0	0	512	508	0	0	
1	0	0	0	0	512	507	0	0	
2	0	0	0	0	508	508	0	0	
3	0	0	0	0	508	505	0	0	
4	0	0	0	0	508	506	0	0	
5	0	0	0	0	509	505	0	0	
6	0	0	0	0	504	507	0	0	
7	0	0	0	0	505	508	0	0	
8	0	0	0	0	509	508	0	0	
9	0	0	0	0	512	508	0	0	
10	0	0	0	0	513	507	0	0	
11	0	0	0	0	509	508	0	0	
12	0	0	0	0	510	507	0	0	
13	0	0	0	0	515	509	0	0	
14	0	0	0	0	518	510	0	0	
15	0	0	0	0	514	510	0	0	
0	0	0	0	0	514	511	0	0	
1	0	0	0	0	515	509	0	0	
2	0	0	0	0	516	508	0	0	
3	0	0	0	0	515	507	0	0	
4	0	0	0	0	514	508	0	0	
5	0	0	0	0	510	507	0	0	
6	0	0	0	0	509	507	0	0	
7	0	0	0	0	508	508	0	0	
8	0	0	0	0	508	506	0	0	
9	0	0	0	0	509	508	0	0	
10	0	0	0	0	507	507	0	0	
11	0	0	0	0	505	505	0	0	
12	0	0	0	0	506	507	0	0	
13	0	0	0	0	509	510	0	0	
14	0	0	0	0	509	509	0	0	
15	0	0	0	0	510	510	0	0	
0	0	0	0	0	511	510	0	0	
1	0	0	0	0	512	509	0	0	
2	0	0	0	0	516	509	0	0	
3	0	0	0	0	513	507	0	0	
4	0	0	0	0	515	508	0	0	
5	0	0	0	0	516	508	0	0	
6	0	0	0	0	514	509	0	0	
7	0	0	0	0	512	508	0	0	
8	0	0	0	0	513	507	0	0	
9	0	0	0	0	508	506	0	0	
10	0	0	0	0	509	507	0	0	
11	0	0	0	0	508	506	0	0	
12	0	0	0	0	508	507	0	0	
13	0	0	0	0	508	509	0	0	
14	0	0	0	0	509	508	0	0	
15	0	0	0	0	508	507	0	0	
0	0	0	0	0	508	508	0	0	
1	0	0	0	0	511	507	0	0	
2	0	0	0	0	510	508	0	0	
3	0	0	0	0	510	509	0	0	
4	0	0	0	0	511	506	0	0	
5	0	0	0	0	514	508	0	0	
6	0	0	0	0	513	509	0	0	
7	0	0	0	0	515	509	0	0	
8	0	0	0	0	516	510	0	0	
9	0	0	0	0	518	508	0	0	
10	0	0	0	0	514	508	0	0	
11	0	0	0	0	515	509	0	0	
12	0	0	0	0	516	508	0	0	
13	0	0	0	0	511	510	0	0	
14	0	0	0	0	508	507	0	0	
15	0	0	0	0	508	508	0	0	
0	0	0	0	0	506	508	0	0	
1	0	0	0	0	508	507	0	0	
2	0	0	0	0	506	506	0	0	
3	0	0	0	0	505	505	0	0	
4	0	0	0	0	505	508	0	0	
5	0	0	0	0	508	507	0	0	
6	0	0	0	0	508	508	0	0	
7	0	0	0	0	510	509	0	0	
8	0	0	0	0	511	509	0	0	
9	0	0	0	0	515	511	0	0	
10	0	0	0	0	516	508	0	0	
11	0	0	0	0	517	508	0	0	
12	0	0	0	0	516	508	0	0	
13	0	0	0	0	515	508	0	0	
14	0	0	0	0	515	508	0	0	
15	0	0	0	0	513	507	0	0	
0	0	0	0	0	511	508	0	0	
1	0	0	0	0	511	508	0	0	
2	0	0	0	0	510	508	0	0	
3	0	0	0	0	507	507	0	0	
4	0	0	0	0	505	507	0	0	
5	0	0	0	0	505	507	0	0	
6	0	0	0	0	507	506	0	0	
7	0	0	0	0	506	509	0	0	
8	0	0	0	0	507	510	0	0	
9	0	0	0	0	508	506	0	0	
10	0	0	0	0	508	507	0	0	
11	0	0	0	0	512	508	0	0	
12	0	0	0	0	512	508	0	0	
13	0	0	0	0	514	508	0	0	
14	0	0	0	0	515	508	0	0	
15	0	0	0	0	517	509	0	0	
0	0	0	0	0	514	510	0	0	
1	0	0	0	0	516	510	0	0	
2	0	0	0	0	515	509	0	0	
3	0	0	0	0	513	508	0	0	
4	0	0	0	0	514	506	0	0	
5	0	0	0	0	510	505	0	0	
6	0	0	0	0	510	506	0	0	
7	0	0	0	0	510	508	0	0	
8	0	0	0	0	505	508	0	0	
9	0	0	0	0	508	508	0	0	
10	0	0	0	0	505	508	0	0	
11	0	0	0	0	505	507	0	0	
12	0	0	0	0	507	507	0	0	
13	0	0	0	0	509	508	0	0	
14	0	0	0	0	509	509	0	0	
15	0	0	0	0	509	511	0	0	
0	0	0	0	0	513	510	0	0	
1	0	0	0	0	517	509	0	0	
2	0	0	0	0	516	509	0	0	
3	0	0	0	0	517	510	0	0	
4	0	0	0	0	516	508	0	0	
5	0	0	0	0	516	508	0	0	
6	0	0	0	0	514	508	0	0	
7	0	0	0	0	514	508	0	0	
8	0	0	0	0	512	508	0	0	
9	0	0	0	0	510	506	0	0	
10	0	0	0	0	508	506	0	0	
11	0	0	0	0	508	508	0	0	
12	0	0	0	0	507	507	0	0	
13	0	0	0	0	506	507	0	0	
14	0	0	0	0	507	508	0	0	
15	0	0	0	0	505	506	0	0	
0	0	0	0	0	507	509	0	0	
1	0	0	0	0	507	508	0	0	
2	0	0	0	0	507	508	0	0	
3	0	0	0	0	510	508	0	0	
4	0	0	0	0	510	508	0	0	
5	0	0	0	0	511	508	0	0	
6	0	0	0	0	517	508	0	0	
7	0	0	0	0	518	509	0	0	
8	0	0	0	0	515	509	0	0	
9	0	0	0	0	519	509	0	0	
10	0	0	0	0	516	510	0	0	
11	0	0	0	0	515	509	0	0	
12	0	0	0	0	513	509	0	0	
13	0	0	0	0	511	507	0	0	
14	0	0	0	0	511	508	0	0	
15	0	0	0	0	507	506	0	0	
0	0	0	0	0	509	505	0	0	
1	0	0	0	0	507	508	0	0	
2	0	0	0	0	506	507	0	0	
3	0	0	0	0	505	508	0	0	
4	0	0	0	0	507	508	0	0	
5	0	0	0	0	509	508	0	0	
6	0	0	0	0	509	509	0	0	
7	0	0	0	0	511	507	0	0	
8	0	0	0	0	511	510	0	0	
9	0	0	0	0	513	506	0	0	
10	0	0	0	0	513	508	0	0	
11	0	0	0	0	515	508	0	0	
12	0	0	0	0	517	509	0	0	
13	0	0	0	0	518	508	0	0	
14	0	0	0	0	516	509	0	0	
15	0	0	0	0	516	506	0	0	
0	0	0	0	0	511	508	0	0	
1	0	0	0	0	511	508	0	0	
2	0	0	0	0	510	508	0	0	
3	0	0	0	0	509	508	0	0	
4	0	0	0	0	507	508	0	0	
5	0	0	0	0	505	508	0	0	
6	0	0	0	0	506	505	0	0	
7	0	0	0	0	506	507	0	0	
8	0	0	0	0	506	508	0	0	
9	0	0	0	0	508	509	0	0	
10	0	0	0	0	509	510	0	0	
11	0	0	0	0	510	508	0	0	
12	0	0	0	0	512	511	0	0	
13	0	0	0	0	514	508	0	0	
14	0	0	0	0	515	509	0	0	
15	0	0	0	0	513	508	0	0	
0	0	0	0	0	517	509	0	0	
1	0	0	0	0	517	508	0	0	
2	0	0	0	0	515	508	0	0	
3	0	0	0	0	515	507	0	0	
4	0	0	0	0	515	505	0	0	
5	0	0	0	0	511	506	0	0	
6	0	0	0	0	508	510	0	0	
7	0	0	0	0	508	508	0	0	
8	0	0	0	0	507	507	0	0	
9	0	0	0	0	506	507	0	0	
10	0	0	0	0	504	507	0	0	
11	0	0	0	0	505	508	0	0	
12	0	0	0	0	504	507	0	0	
13	0	0	0	0	506	510	0	0	
14	0	0	0	0	510	507	0	0	
15	0	0	0	0	511	508	0	0	
0	0	0	0	0	515	509	0	0	
1	0	0	0	0	515	508	0	0	
2	0	0	0	0	514	508	0	0	
3	0	0	0	0	518	510	0	0	
4	0	0	0	0	515	510	0	0	
5	0	0	0	0	516	511	0	0	
6	0	0	0	0	513	510	0	0	
7	0	0	0	0	515	508	0	0	
8	0	0	0	0	514	508	0	0	
9	0	0	0	0	511	505	0	0	
10	0	0	0	0	510	507	0	0	
11	0	0	0	0	508	507	0	0	
12	0	0	0	0	508	506	0	0	
13	0	0	0	0	505	506	0	0	
14	0	0	0	0	507	508	0	0	
15	0	0	0	0	508	508	0	0	
0	0	0	0	0	507	506	0	0	
1	0	0	0	0	508	508	0	0	
2	0	0	0	0	508	507	0	0	
3	0	0	0	0	506	507	0	0	
4	0	0	0	0	510	508	0	0	
5	0	0	0	0	513	510	0	0	
6	0	0	0	0	517	511	0	0	
7	0	0	0	0	516	507	0	0	
8	0	0	0	0	520	510	0	0	
9	0	0	0	0	517	510	0	0	
10	0	0	0	0	515	508	0	0	
11	0	0	0	0	515	510	0	0	
12	0	0	0	0	511	508	0	0	
13	0	0	0	0	511	508	0	0	
14	0	0	0	0	511	508	0	0	
15	0	0	0	0	506	507	0	0	
0	0	0	0	0	508	507	0	0	
1	0	0	0	0	507	507	0	0	
2	0	0	0	0	505	507	0	0	
3	0	0	0	0	506	506	0	0	
4	0	0	0	0	506	506	0	0	
5	0	0	0	0	508	508	0	0	
6	0	0	0	0	508	507	0	0	
7	0	0	0	0	510	508	0	0	
8	0	0	0	0	514	509	0	0	
9	0	0	0	0	514	510	0	0	
10	0	0	0	0	516	511	0	0	
11	0	0	0	0	517	511	0	0	
12	0	0	0	0	516	508	0	0	
13	0	0	0	0	518	509	0	0	
14	0	0	0	0	513	508	0	0	
15	0	0	0	0	514	506	0	0	
0	0	0	0	0	512	507	0	0	
1	0	0	0	0	510	508	0	0	
2	0	0	0	0	509	507	0	0	
3	0	0	0	0	507	508	0	0	
4	0	0	0	0	507	507	0	0	
5	0	0	0	0	504	507	0	0	
6	0	0	0	0	507	507	0	0	
7	0	0	0	0	508	508	0	0	
8	0	0	0	0	507	507	0	0	
9	0	0	0	0	509	509	0	0	
10	0	0	0	0	508	505	0	0	
11	0	0	0	0	513	511	0	0	
12	0	0	0	0	514	510	0	0	
13	0	0	0	0	512	508	0	0	
14	0	0	0	0	514	509	0	0	
15	0	0	0	0	516	511	0	0	
0	0	0	0	0	517	509	0	0	
1	0	0	0	0	517	506	0	0	
2	0	0	0	0	516	505	0	0	
3	0	0	0	0	515	507	0	0	
4	0	0	0	0	511	507	0	0	
5	0	0	0	0	511	506	0	0	
6	0	0	0	0	509	508	0	0	
7	0	0	0	0	509	508	0	0	
8	0	0	0	0	507	508	0	0	
9	0	0	0	0	508	508	0	0	
10	0	0	0	0	505	508	0	0	
11	0	0	0	0	508	508	0	0	
12	0	0	0	0	507	507	0	0	
13	0	0	0	0	507	508	0	0	
14	0	0	0	0	507	509	0	0	
15	0	0	0	0	511	507	0	0	
0	0	0	0	0	512	509	0	0	
1	0	0	0	0	513	509	0	0	
2	0	0	0	0	514	509	0	0	
3	0	0	0	0	515	509	0	0	
4	0	0	0	0	518	507	0	0	
5	0	0	0	0	515	510	0	0	
6	0	0	0	0	516	509	0	0	
7	0	0	0	0	512	506	0	0	
8	0	0	0	0	513	505	0	0	
9	0	0	0	0	510	508	0	0	
10	0	0	0	0	512	508	0	0	
11	0	0	0	0	508	508	0	0	
12	0	0	0	0	507	509	0	0	
13	0	0	0	0	507	507	0	0	
14	0	0	0	0	505	507	0	0	
15	0	0	0	0	504	507	0	0	
0	0	0	0	0	507	507	0	0	
1	0	0	0	0	508	507	0	0	
2	0	0	0	0	510	508	0	0	
3	0	0	0	0	510	509	0	0	
4	0	0	0	0	513	509	0	0	
5	0	0	0	0	514	510	0	0	
6	0	0	0	0	515	508	0	0	
7	0	0	0	0	514	510	0	0	
8	0	0	0	0	519	510	0	0	
9	0	0	0	0	517	509	0	0	
10	0	0	0	0	517	509	0	0	
11	0	0	0	0	513	508	0	0	
12	0	0	0	0	511	508	0	0	
13	0	0	0	0	510	509	0	0	
14	0	0	0	0	509	505	0	0	
15	0	0	0	0	506	507	0	0	
0	0	0	0	0	507	508	0	0	
1	0	0	0	0	508	508	0	0	
2	0	0	0	0	507	505	0	0	
3	0	0	0	0	508	506	0	0	
4	0	0	0	0	508	507	0	0	
5	0	0	0	0	510	508	0	0	
6	0	0	0	0	511	509	0	0	
7	0	0	0	0	509	510	0	0	
8	0	0	0	0	510	508	0	0	
9	0	0	0	0	512	507	0	0	
10	0	0	0	0	513	510	0	0	
11	0	0	0	0	516	508	0	0	
12	0	0	0	0	517	509	0	0	
13	0	0	0	0	517	508	0	0	
14	0	0	0	0	515	509	0	0	
15	0	0	0	0	516	508	0	0	
0	0	0	0	0	513	507	0	0	
1	0	0	0	0	510	508	0	0	
2	0	0	0	0	508	507	0	0	
3	0	0	0	0	509	507	0	0	
4	0	0	0	0	508	507	0	0	
5	0	0	0	0	507	508	0	0	
6	0	0	0	0	507	507	0	0	
7	0	0	0	0	506	507	0	0	
8	0	0	0	0	507	507	0	0	
9	0	0	0	0	508	507	0	0	
10	0	0	0	0	508	505	0	0	
11	0	0	0	0	511	507	0	0	
12	0	0	0	0	511	509	0	0	
13	0	0	0	0	514	510	0	0	
14	0	0	0	0	517	510	0	0	
15	0	0	0	0	515	509	0	0	
0	0	0	0	0	516	510	0	0	
1	0	0	0	0	516	509	0	0	
2	0	0	0	0	515	508	0	0	
3	0	0	0	0	512	508	0	0	
4	0	0	0	0	511	509	0	0	
5	0	0	0	0	511	509	0	0	
6	0	0	0	0	509	508	0	0	
7	0	0	0	0	507	505	0	0	
8	0	0	0	0	507	509	0	0	
9	0	0	0	0	506	510	0	0	
10	0	0	0	0	509	505	0	0	
11	0	0	0	0	507	507	0	0	
12	0	0	0	0	507	507	0	0	
13	0	0	0	0	507	507	0	0	
14	0	0	0	0	509	506	0	0	
15	0	0	0	0	511	509	0	0	
0	0	0	0	0	513	510	0	0	
1	0	0	0	0	511	509	0	0	
2	0	0	0	0	516	508	0	0	
3	0	0	0	0	515	508	0	0	
4	0	0	0	0	518	509	0	0	
5	0	0	0	0	517	509	0	0	
6	0	0	0	0	514	510	0	0	
7	0	0	0	0	518	509	0	0	
8	0	0	0	0	511	510	0	0	
9	0	0	0	0	511	508	0	0	
10	0	0	0	0	507	505	0	0	
11	0	0	0	0	507	507	0	0	
12	0	0	0	0	504	506	0	0	
13	0	0	0	0	506	507	0	0	
14	0	0	0	0	506	507	0	0	
15	0	0	0	0	509	509	0	0	
0	0	0	0	0	508	507	0	0	
1	0	0	0	0	509	508	0	0	
2	0	0	0	0	511	507	0	0	
3	0	0	0	0	510	508	0	0	
4	0	0	0	0	513	511	0	0	
5	0	0	0	0	513	510	0	0	
6	0	0	0	0	516	510	0	0	
7	0	0	0	0	515	510	0	0	
8	0	0	0	0	516	508	0	0	
9	0	0	0	0	513	508	0	0	
10	0	0	0	0	515	507	0	0	
11	0	0	0	0	512	508	0	0	
12	0	0	0	0	512	508	0	0	
13	0	0	0	0	510	508	0	0	
14	0	0	0	0	511	507	0	0	
15	0	0	0	0	508	508	0	0	
0	0	0	0	0	511	510	0	0	
1	0	0	0	0	507	506	0	0	
2	0	0	0	0	507	508	0	0	
3	0	0	0	0	509	505	0	0	
4	0	0	0	0	507	506	0	0	
5	0	0	0	0	510	506	0	0	
6	0	0	0	0	508	507	0	0	
7	0	0	0	0	509	507	0	0	
8	0	0	0	0	513	509	0	0	
9	0	0	0	0	513	509	0	0	
10	0	0	0	0	514	508	0	0	
11	0	0	0	0	513	510	0	0	
12	0	0	0	0	515	508	0	0	
13	0	0	0	0	516	509	0	0	
14	0	0	0	0	515	508	0	0	
15	0	0	0	0	515	508	0	0	
0	0	0	0	0	514	507	0	0	
1	0	0	0	0	513	508	0	0	
2	0	0	0	0	511	505	0	0	
3	0	0	0	0	508	506	0	0	
4	0	0	0	0	507	506	0	0	
5	0	0	0	0	506	509	0	0	
6	0	0	0	0	505	506	0	0	
7	0	0	0	0	506	509	0	0	
8	0	0	0	0	507	507	0	0	
9	0	0	0	0	508	507	0	0	
10	0	0	0	0	511	509	0	0	
11	0	0	0	0	511	508	0	0	
12	0	0	0	0	514	507	0	0	
13	0	0	0	0	515	507	0	0	
14	0	0	0	0	516	510	0	0	
15	0	0	0	0	515	510	0	0	
0	0	0	0	0	518	509	0	0	
1	0	0	0	0	514	508	0	0	
2	0	0	0	0	514	511	0	0	
3	0	0	0	0	512	507	0	0	
4	0	0	0	0	509	508	0	0	
5	0	0	0	0	511	507	0	0	
6	0	0	0	0	511	509	0	0	
7	0	0	0	0	510	507	0	0	
8	0	0	0	0	508	506	0	0	
9	0	0	0	0	505	507	0	0	
10	0	0	0	0	506	508	0	0	
11	0	0	0	0	506	508	0	0	
12	0	0	0	0	509	510	0	0	
13	0	0	0	0	509	508	0	0	
14	0	0	0	0	510	506	0	0	
15	0	0	0	0	509	509	0	0	
0	0	0	0	0	510	508	0	0	
1	0	0	0	0	512	510	0	0	
2	0	0	0	0	508	510	0	0	
3	0	0	0	0	513	508	0	0	
4	0	0	0	0	517	509	0	0	
5	0	0	0	0	519	506	0	0	
6	0	0	0	0	518	507	0	0	
7	0	0	0	0	516	507	0	0	
8	0	0	0	0	513	507	0	0	
9	0	0	0	0	511	506	0	0	
10	0	0	0	0	509	508	0	0	
11	0	0	0	0	504	509	0	0	
12	0	0	0	0	507	508	0	0	
13	0	0	0	0	505	506	0	0	
14	0	0	0	0	506	505	0	0	
15	0	0	0	0	508	507	0	0	
0	0	0	0	0	511	507	0	0	
1	0	0	0	0	511	508	0	0	
2	0	0	0	0	512	508	0	0	
3	0	0	0	0	511	509	0	0	
4	0	0	0	0	512	508	0	0	
5	0	0	0	0	513	509	0	0	
6	0	0	0	0	513	508	0	0	
7	0	0	0	0	513	509	0	0	
8	0	0	0	0	516	506	0	0	
9	0	0	0	0	516	507	0	0	
10	0	0	0	0	514	507	0	0	
11	0	0	0	0	512	508	0	0	
12	0	0	0	0	511	507	0	0	
13	0	0	0	0	510	507	0	0	
14	0	0	0	0	512	507	0	0	
15	0	0	0	0	510	508	0	0	
0	0	0	0	0	507	508	0	0	
1	0	0	0	0	510	508	0	0	
2	0	0	0	0	505	509	0	0	
3	0	0	0	0	504	507	0	0	
4	0	0	0	0	508	508	0	0	
5	0	0	0	0	508	508	0	0	
6	0	0	0	0	510	508	0	0	
7	0	0	0	0	511	507	0	0	
8	0	0	0	0	512	508	0	0	
9	0	0	0	0	514	509	0	0	
10	0	0	0	0	517	510	0	0	
11	0	0	0	0	514	508	0	0	
12	0	0	0	0	515	508	0	0	
13	0	0	0	0	516	507	0	0	
14	0	0	0	0	513	506	0	0	
15	0	0	0	0	515	508	0	0	
0	0	0	0	0	512	507	0	0	
1	0	0	0	0	511	507	0	0	
2	0	0	0	0	509	508	0	0	
3	0	0	0	0	509	507	0	0	
4	0	0	0	0	503	508	0	0	
5	0	0	0	0	505	508	0	0	
6	0	0	0	0	508	508	0	0	
7	0	0	0	0	509	508	0	0	
8	0	0	0	0	510	508	0	0	
9	0	0	0	0	508	507	0	0	
10	0	0	0	0	508	508	0	0	
11	0	0	0	0	511	508	0	0	
12	0	0	0	0	510	508	0	0	
13	0	0	0	0	512	508	0	0	
14	0	0	0	0	514	510	0	0	
15	0	0	0	0	516	510	0	0	
0	0	0	0	0	515	509	0	0	
1	0	0	0	0	518	509	0	0	
2	0	0	0	0	516	508	0	0	
3	0	0	0	0	512	508	0	0	
4	0	0	0	0	511	508	0	0	
5	0	0	0	0	512	509	0	0	
6	0	0	0	0	510	508	0	0	
7	0	0	0	0	509	505	0	0	
8	0	0	0	0	508	506	0	0	
9	0	0	0	0	506	508	0	0	
10	0	0	0	0	507	506	0	0	
11	0	0	0	0	507	508	0	0	
12	0	0	0	0	510	509	0	0	
13	0	0	0	0	509	508	0	0	
14	0	0	0	0	508	507	0	0	
15	0	0	0	0	511	509	0	0	
0	0	0	0	0	514	510	0	0	
1	0	0	0	0	513	509	0	0	
2	0	0	0	0	514	509	0	0	
3	0	0	0	0	515	508	0	0	
4	0	0	0	0	517	510	0	0	
5	0	0	0	0	516	509	0	0	
6	0	0	0	0	514	508	0	0	
7	0	0	0	0	517	507	0	0	
8	0	0	0	0	510	508	0	0	
9	0	0	0	0	508	508	0	0	
10	0	0	0	0	508	507	0	0	
11	0	0	0	0	508	508	0	0	
12	0	0	0	0	506	508	0	0	
13	0	0	0	0	506	507	0	0	
14	0	0	0	0	506	508	0	0	
15	0	0	0	0	506	509	0	0	
0	0	0	0	0	513	507	0	0	
1	0	0	0	0	511	509	0	0	
2	0	0	0	0	508	507	0	0	
3	0	0	0	0	512	507	0	0	
4	0	0	0	0	513	509	0	0	
5	0	0	0	0	512	509	0	0	
6	0	0	0	0	515	509	0	0	
7	0	0	0	0	514	508	0	0	
8	0	0	0	0	515	510	0	0	
9	0	0	0	0	514	509	0	0	
10	0	0	0	0	515	508	0	0	
11	0	0	0	0	516	508	0	0	
12	0	0	0	0	513	507	0	0	
13	0	0	0	0	511	508	0	0	
14	0	0	0	0	511	507	0	0	
15	0	0	0	0	507	508	0	0	
0	0	0	0	0	506	508	0	0	
1	0	0	0	0	505	508	0	0	
2	0	0	0	0	507	505	0	0	
3	0	0	0	0	506	505	0	0	
4	0	0	0	0	509	507	0	0	
5	0	0	0	0	507	509	0	0	
6	0	0	0	0	507	508	0	0	
7	0	0	0	0	508	508	0	0	
8	0	0	0	0	510	509	0	0	
9	0	0	0	0	512	508	0	0	
10	0	0	0	0	515	509	0	0	
11	0	0	0	0	515	508	0	0	
12	0	0	0	0	516	509	0	0	
13	0	0	0	0	518	508	0	0	
14	0	0	0	0	515	510	0	0	
15	0	0	0	0	519	509	0	0	
0	0	0	0	0	513	508	0	0	
1	0	0	0	0	513	507	0	0	
2	0	0	0	0	509	507	0	0	
3	0	0	0	0	509	509	0	0	
4	0	0	0	0	508	507	0	0	
5	0	0	0	0	506	508	0	0	
6	0	0	0	0	504	507	0	0	
7	0	0	0	0	496	507	0	0	
8	0	0	0	0	499	508	0	0	
9	0	0	0	0	506	509	0	0	
10	0	0	0	0	512	508	0	0	
11	0	0	0	0	513	508	0	0	
12	0	0	0	0	518	508	0	0	
13	0	0	0	0	522	509	0	0	
14	0	0	0	0	518	510	0	0	
15	0	0	0	0	520	509	0	0	
0	0	0	0	0	519	509	0	0	
1	0	0	0	0	517	510	0	0	
2	0	0	0	0	514	508	0	0	
3	0	0	0	0	508	507	0	0	
4	0	0	0	0	508	506	0	0	
5	0	0	0	0	509	507	0	0	
6	0	0	0	0	510	508	0	0	
7	0	0	0	0	507	508	0	0	
8	0	0	0	0	505	506	0	0	
9	0	0	0	0	507	507	0	0	
10	0	0	0	0	508	507	0	0	
11	0	0	0	0	508	509	0	0	
12	0	0	0	0	508	506	0	0	
13	0	0	0	0	507	504	0	0	
14	0	0	0	0	509	507	0	0	
15	0	0	0	0	507	508	0	0	
0	0	0	0	0	507	508	0	0	
1	0	0	0	0	514	511	0	0	
2	0	0	0	0	518	510	0	0	
3	0	0	0	0	515	509	0	0	
4	0	0	0	0	516	509	0	0	
5	0	0	0	0	516	509	0	0	
6	0	0	0	0	515	507	0	0	
7	0	0	0	0	514	510	0	0	
8	0	0	0	0	513	508	0	0	
9	0	0	0	0	511	507	0	0	
10	0	0	0	0	508	507	0	0	
11	0	0	0	0	507	506	0	0	
12	0	0	0	0	508	506	0	0	
13	0	0	0	0	508	507	0	0	
14	0	0	0	0	506	507	0	0	
15	0	0	0	0	507	507	0	0	
0	0	0	0	0	507	507	0	0	
1	0	0	0	0	509	509	0	0	
2	0	0	0	0	511	509	0	0	
3	0	0	0	0	511	508	0	0	
4	0	0	0	0	510	509	0	0	
5	0	0	0	0	512	510	0	0	
6	0	0	0	0	515	507	0	0	
7	0	0	0	0	516	509	0	0	
8	0	0	0	0	518	508	0	0	
9	0	0	0	0	517	509	0	0	
10	0	0	0	0	514	508	0	0	
11	0	0	0	0	513	509	0	0	
12	0	0	0	0	511	507	0	0	
13	0	0	0	0	511	507	0	0	
14	0	0	0	0	511	507	0	0	
15	0	0	0	0	506	505	0	0	
0	0	0	0	0	504	509	0	0	
1	0	0	0	0	506	506	0	0	
2	0	0	0	0	507	506	0	0	
3	0	0	0	0	505	509	0	0	
4	0	0	0	0	508	510	0	0	
5	0	0	0	0	508	508	0	0	
6	0	0	0	0	510	508	0	0	
7	0	0	0	0	509	509	0	0	
8	0	0	0	0	509	510	0	0	
9	0	0	0	0	511	507	0	0	
10	0	0	0	0	513	507	0	0	
11	0	0	0	0	521	508	0	0	
12	0	0	0	0	529	513	0	0	
13	0	0	0	0	530	510	0	0	
14	0	0	0	0	518	509	0	0	
15	0	0	0	0	515	506	0	0	
0	0	0	0	0	509	506	0	0	
1	0	0	0	0	508	505	0	0	
2	0	0	0	0	510	506	0	0	
3	0	0	0	0	507	507	0	0	
4	0	0	0	0	501	506	0	0	
5	0	0	0	0	504	509	0	0	
6	0	0	0	0	504	508	0	0	
7	0	0	0	0	502	507	0	0	
8	0	0	0	0	504	507	0	0	
9	0	0	0	0	504	508	0	0	
10	0	0	0	0	507	507	0	0	
11	0	0	0	0	515	508	0	0	
12	0	0	0	0	513	508	0	0	
13	0	0	0	0	512	508	0	0	
14	0	0	0	0	514	508	0	0	
15	0	0	0	0	513	511	0	0	
0	0	0	0	0	516	508	0	0	
1	0	0	0	0	519	508	0	0	
2	0	0	0	0	517	510	0	0	
3	0	0	0	0	519	508	0	0	
4	0	0	0	0	513	508	0	0	
5	0	0	0	0	512	508	0	0	
6	0	0	0	0	509	508	0	0	
7	0	0	0	0	508	508	0	0	
8	0	0	0	0	505	510	0	0	
9	0	0	0	0	504	505	0	0	
10	0	0	0	0	503	507	0	0	
11	0	0	0	0	507	504	0	0	
12	0	0	0	0	509	507	0	0	
13	0	0	0	0	508	508	0	0	
14	0	0	0	0	509	509	0	0	
15	0	0	0	0	510	511	0	0	
0	0	0	0	0	513	508	0	0	
1	0	0	0	0	520	509	0	0	
2	0	0	0	0	520	509	0	0	
3	0	0	0	0	516	509	0	0	
4	0	0	0	0	516	510	0	0	
5	0	0	0	0	516	508	0	0	
6	0	0	0	0	513	508	0	0	
7	0	0	0	0	512	507	0	0	
8	0	0	0	0	510	508	0	0	
9	0	0	0	0	512	507	0	0	
10	0	0	0	0	509	506	0	0	
11	0	0	0	0	505	509	0	0	
12	0	0	0	0	509	508	0	0	
13	0	0	0	0	509	505	0	0	
14	0	0	0	0	505	509	0	0	
15	0	0	0	0	502	507	0	0	
0	0	0	0	0	504	509	0	0	
1	0	0	0	0	509	508	0	0	
2	0	0	0	0	511	510	0	0	
3	0	0	0	0	512	508	0	0	
4	0	0	0	0	511	508	0	0	
5	0	0	0	0	517	510	0	0	
6	0	0	0	0	516	509	0	0	
7	0	0	0	0	514	509	0	0	
8	0	0	0	0	516	510	0	0	
9	0	0	0	0	514	509	0	0	
10	0	0	0	0	513	511	0	0	
11	0	0	0	0	511	508	0	0	
12	0	0	0	0	511	505	0	0	
13	0	0	0	0	509	507	0	0	
14	0	0	0	0	510	508	0	0	
15	0	0	0	0	506	508	0	0	
0	0	0	0	0	510	508	0	0	
1	0	0	0	0	508	505	0	0	
2	0	0	0	0	507	505	0	0	
3	0	0	0	0	501	507	0	0	
4	0	0	0	0	500	506	0	0	
5	0	0	0	0	500	508	0	0	
6	0	0	0	0	503	507	0	0	
7	0	0	0	0	504	508	0	0	
8	0	0	0	0	515	508	0	0	
9	0	0	0	0	522	509	0	0	
10	0	0	0	0	540	509	0	0	
11	0	0	0	0	548	511	0	0	
12	0	0	0	0	527	510	0	0	
13	0	0	0	0	514	509	0	0	
14	0	0	0	0	507	508	0	0	
15	0	0	0	0	503	507	0	0	
0	0	0	0	0	508	507	0	0	
1	0	0	0	0	507	508	0	0	
2	0	0	0	0	508	508	0	0	
3	0	0	0	0	513	507	0	0	
4	0	0	0	0	510	507	0	0	
5	0	0	0	0	507	507	0	0	
6	0	0	0	0	507	507	0	0	
7	0	0	0	0	507	508	0	0	
8	0	0	0	0	504	507	0	0	
9	0	0	0	0	504	507	0	0	
10	0	0	0	0	502	509	0	0	
11	0	0	0	0	508	509	0	0	
12	0	0	0	0	515	508	0	0	
13	0	0	0	0	514	508	0	0	
14	0	0	0	0	511	507	0	0	
15	0	0	0	0	510	508	0	0	
0	0	0	0	0	519	509	0	0	
1	0	0	0	0	518	509	0	0	
2	0	0	0	0	510	510	0	0	
3	0	0	0	0	508	508	0	0	
4	0	0	0	0	508	506	0	0	
5	0	0	0	0	508	509	0	0	
6	0	0	0	0	506	508	0	0	
7	0	0	0	0	504	507	0	0	
8	0	0	0	0	504	509	0	0	
9	0	0	0	0	508	508	0	0	
10	0	0	0	0	513	506	0	0	
11	0	0	0	0	515	507	0	0	
12	0	0	0	0	516	508	0	0	
13	0	0	0	0	517	507	0	0	
14	0	0	0	0	508	509	0	0	
15	0	0	0	0	509	509	0	0	
0	0	0	0	0	509	507	0	0	
1	0	0	0	0	510	508	0	0	
2	0	0	0	0	515	508	0	0	
3	0	0	0	0	517	508	0	0	
4	0	0	0	0	521	509	0	0	
5	0	0	0	0	516	508	0	0	
6	0	0	0	0	515	509	0	0	
7	0	0	0	0	511	509	0	0	
8	0	0	0	0	502	507	0	0	
9	0	0	0	0	498	507	0	0	
10	0	0	0	0	497	507	0	0	
11	0	0	0	0	495	508	0	0	
12	0	0	0	0	503	508	0	0	
13	0	0	0	0	516	505	0	0	
14	0	0	0	0	519	506	0	0	
15	0	0	0	0	533	507	0	0	
0	0	0	0	0	531	508	0	0	
1	0	0	0	0	511	508	0	0	
2	0	0	0	0	503	508	0	0	
3	0	0	0	0	505	508	0	0	
4	0	0	0	0	506	510	0	0	
5	0	0	0	0	518	509	0	0	
6	0	0	0	0	511	509	0	0	
7	0	0	0	0	504	508	0	0	
8	0	0	0	0	520	510	0	0	
9	0	0	0	0	525	510	0	0	
10	0	0	0	0	524	509	0	0	
11	0	0	0	0	507	508	0	0	
12	0	0	0	0	507	508	0	0	
13	0	0	0	0	507	507	0	0	
14	0	0	0	0	506	505	0	0	
15	0	0	0	0	502	504	0	0	
0	0	0	0	0	504	507	0	0	
1	0	0	0	0	515	507	0	0	
2	0	0	0	0	514	507	0	0	
3	0	0	0	0	509	506	0	0	
4	0	0	0	0	508	507	0	0	
5	0	0	0	0	508	509	0	0	
6	0	0	0	0	505	508	0	0	
7	0	0	0	0	504	508	0	0	
8	0	0	0	0	504	508	0	0	
9	0	0	0	0	496	508	0	0	
10	0	0	0	0	498	508	0	0	
11	0	0	0	0	504	510	0	0	
12	0	0	0	0	504	509	0	0	
13	0	0	0	0	507	508	0	0	
14	0	0	0	0	503	510	0	0	
15	0	0	0	0	517	508	0	0	
0	0	0	0	0	535	509	0	0	
1	0	0	0	0	527	510	0	0	
2	0	0	0	0	515	508	0	0	
3	0	0	0	0	535	506	0	0	
4	0	0	0	0	565	508	0	0	
5	0	0	0	0	551	508	0	0	
6	0	0	0	0	512	510	0	0	
7	0	0	0	0	494	508	0	0	
8	0	0	0	0	489	507	0	0	
9	0	0	0	0	491	508	0	0	
10	0	0	0	0	487	508	0	0	
11	0	0	0	0	491	507	0	0	
12	0	0	0	0	500	506	0	0	
13	0	0	0	0	508	507	0	0	
14	0	0	0	0	522	509	0	0	
15	0	0	0	0	517	509	0	0	
0	0	0	0	0	519	508	0	0	
1	0	0	0	0	525	509	0	0	
2	0	0	0	0	514	508	0	0	
3	0	0	0	0	504	505	0	0	
4	0	0	0	0	508	509	0	0	
5	0	0	0	0	513	509	0	0	
6	0	0	0	0	517	509	0	0	
7	0	0	0	0	504	506	0	0	
8	0	0	0	0	490	508	0	0	
9	0	0	0	0	493	508	0	0	
10	0	0	0	0	493	508	0	0	
11	0	0	0	0	500	509	0	0	
12	0	0	0	0	519	509	0	0	
13	0	0	0	0	527	509	0	0	
14	0	0	0	0	518	508	0	0	
15	0	0	0	0	511	507	0	0	
0	0	0	0	0	517	508	1	0	
1	0	0	0	0	509	509	1	0	
2	0	0	0	0	486	510	2	0	
3	0	0	0	0	481	508	2	0	
4	0	0	0	0	480	513	2	0	
5	0	0	0	0	484	513	0	0	
6	0	0	0	0	516	510	2	0	
7	0	0	0	0	561	508	2	0	
8	0	0	0	0	595	504	1	0	
9	0	0	0	0	556	502	3	0	
10	0	0	0	0	533	501	5	0	
11	0	0	0	0	526	501	7	0	
12	0	0	0	0	510	505	8	0	
13	0	0	0	0	490	505	4	0	
14	0	0	0	0	500	510	9	0	
15	0	0	0	0	517	510	9	0	
0	0	0	0	0	512	509	9	0	
1	0	0	0	0	493	508	14	0	
2	0	0	0	0	494	509	15	0	
3	0	0	0	0	488	509	18	0	
4	0	0	0	0	484	508	13	0	
5	0	0	0	0	503	510	14	0	
6	0	0	0	0	524	507	14	0	
7	0	0	0	0	526	507	14	0	
8	0	0	0	0	529	511	13	0	
9	0	0	0	0	514	513	14	0	
10	0	0	0	0	494	508	18	0	
11	0	0	0	0	491	508	14	0	
12	0	0	0	0	498	508	19	0	
13	0	0	0	0	536	510	20	0	
14	0	0	0	0	543	511	22	0	
15	0	0	0	0	509	508	21	0	
0	0	0	0	0	492	507	23	0	
1	0	0	0	0	493	508	21	0	
2	0	0	0	0	501	504	22	0	
3	0	0	0	0	488	502	25	0	
4	0	0	0	0	483	505	24	0	
5	0	0	0	0	478	506	22	0	
6	0	0	0	0	478	506	20	0	
7	0	0	0	0	500	505	20	0	
8	0	0	0	0	510	508	24	0	
9	0	0	0	0	518	508	23	0	
10	0	0	0	0	576	510	22	0	
11	0	0	0	0	659	516	23	0	
12	0	0	0	0	572	515	21	0	
13	0	0	0	0	490	512	23	0	
14	0	0	0	0	452	510	24	0	
15	0	0	0	0	457	509	23	0	
0	0	0	0	0	473	504	33	0	
1	0	0	0	0	486	500	34	0	
2	0	0	0	0	507	497	28	0	
3	0	0	0	0	558	503	29	0	
4	0	0	0	0	632	510	39	0	
5	0	0	0	0	549	510	37	0	
6	0	0	0	0	475	512	37	0	
7	0	0	0	0	463	519	39	0	
8	0	0	0	0	488	518	43	0	
9	0	0	0	0	502	510	43	0	
10	0	0	0	0	519	508	39	0	
11	0	0	0	0	512	507	45	0	
12	0	0	0	0	508	511	44	0	
13	0	0	0	0	513	504	47	0	
14	0	0	0	0	499	493	48	0	
15	0	0	0	0	495	503	42	0	
0	0	0	0	0	482	501	48	0	
1	0	0	0	0	505	500	52	0	
2	0	0	0	0	544	508	61	0	
3	0	0	0	0	558	515	55	0	
4	0	0	0	0	551	515	54	0	
5	0	0	0	0	508	517	58	0	
6	0	0	0	0	486	512	56	0	
7	0	0	0	0	480	506	61	0	
8	0	0	0	0	481	503	53	0	
9	0	0	0	0	490	501	54	0	
10	0	0	0	0	503	508	59	0	
11	0	0	0	0	514	513	57	0	
12	0	0	0	0	511	508	65	0	
13	0	0	0	0	494	507	66	0	
14	0	0	0	0	501	508	67	0	
15	0	0	0	0	503	510	68	0	
0	0	0	0	0	493	506	69	0	
1	0	0	0	0	519	502	69	0	
2	0	0	0	0	542	509	67	0	
3	0	0	0	0	547	511	68	0	
4	0	0	0	0	535	516	70	0	
5	0	0	0	0	534	515	65	0	
6	0	0	0	0	523	510	63	0	
7	0	0	0	0	507	515	63	0	
8	0	0	0	0	507	528	65	0	
9	0	0	0	0	527	521	66	0	
10	0	0	0	0	521	515	65	0	
11	0	0	0	0	503	508	67	0	
12	0	0	0	0	503	503	66	0	
13	0	0	0	0	502	485	64	0	
14	0	0	0	0	500	469	67	0	
15	0	0	0	0	496	481	67	0	
0	0	0	0	0	496	488	65	0	
1	0	0	0	0	504	511	66	0	
2	0	0	0	0	469	516	65	0	
3	0	0	0	0	454	515	60	0	
4	0	0	0	0	478	517	62	0	
5	0	0	0	0	487	515	62	0	
6	0	0	0	0	551	515	61	0	
7	0	0	0	0	579	512	61	0	
8	0	0	0	0	620	512	64	0	
9	0	0	0	0	544	512	66	0	
10	0	0	0	0	504	501	68	0	
11	0	0	0	0	529	501	67	0	
12	0	0	0	0	541	512	65	0	
13	0	0	0	0	532	515	65	0	
14	0	0	0	0	489	509	68	0	
15	0	0	0	0	488	507	72	0	
0	0	0	0	0	503	519	70	0	
1	0	0	0	0	499	519	69	0	
2	0	0	0	0	486	519	66	0	
3	0	0	0	0	487	512	73	0	
4	0	0	0	0	484	511	76	0	
5	0	0	0	0	455	503	78	0	
6	0	0	0	0	476	498	78	0	
7	0	0	0	0	495	499	78	0	
8	0	0	0	0	484	499	81	0	
9	0	0	0	0	519	502	85	0	
10	0	0	0	0	543	501	85	0	
11	0	0	0	0	611	504	88	0	
12	0	0	0	0	595	514	85	0	
13	0	0	0	0	537	519	89	0	
14	0	0	0	0	480	516	87	0	
15	0	0	0	0	489	522	89	0	
0	0	0	0	0	498	515	95	0	
1	0	0	0	0	482	508	96	0	
2	0	0	0	0	480	499	89	0	
3	0	0	0	0	488	499	94	0	
4	0	0	0	0	523	495	96	0	
5	0	0	0	0	539	492	96	0	
6	0	0	0	0	519	496	96	0	
7	0	0	0	0	545	511	99	0	
8	0	0	0	0	522	518	99	0	
9	0	0	0	0	470	509	101	0	
10	0	0	0	0	470	504	99	0	
11	0	0	0	0	494	503	99	0	
12	0	0	0	0	531	504	98	0	
13	0	0	0	0	545	510	103	0	
14	0	0	0	0	544	514	100	0	
15	0	0	0	0	493	515	95	0	
0	0	0	0	0	426	517	96	0	
1	0	0	0	0	452	519	97	0	
2	0	0	0	0	494	513	99	0	
3	0	0	0	0	472	510	97	0	
4	0	0	0	0	563	511	95	0	
5	0	0	0	0	660	517	95	0	
6	0	0	0	0	649	514	95	0	
7	0	0	0	0	550	500	97	0	
8	0	0	0	0	504	499	98	0	
9	0	0	0	0	470	493	100	0	
10	0	0	0	0	467	500	96	0	
11	0	0	0	0	490	498	94	0	
12	0	0	0	0	448	500	97	0	
13	0	0	0	0	484	514	99	0	
14	0	0	0	0	526	518	99	0	
15	0	0	0	0	472	507	98	0	
0	0	0	0	0	446	507	97	0	
1	0	0	0	0	521	517	99	0	
2	0	0	0	0	569	520	101	0	
3	0	0	0	0	537	508	101	0	
4	0	0	0	0	521	508	103	0	
5	0	0	0	0	511	514	101	0	
6	0	0	0	0	507	511	103	0	
7	0	0	0	0	518	510	103	0	
8	0	0	0	0	524	515	103	0	
9	0	0	0	0	507	505	104	0	
10	0	0	0	0	501	497	105	0	
11	0	0	0	0	481	492	106	0	
12	0	0	0	0	464	480	107	0	
13	0	0	0	0	462	470	108	0	
14	0	0	0	0	481	489	108	0	
15	0	0	0	0	496	517	115	0	
0	0	0	0	0	526	537	115	3	
1	0	0	0	0	526	541	113	2	
2	0	0	0	0	541	542	112	3	
3	0	0	0	0	547	536	114	4	
4	0	0	0	0	537	524	114	4	
5	0	0	0	0	574	501	113	5	
6	0	0	0	0	622	497	116	5	
7	0	0	0	0	549	496	118	7	
8	0	0	0	0	487	498	116	7	
9	0	0	0	0	502	485	117	7	
10	0	0	0	0	485	487	116	7	
11	0	0	0	0	453	493	117	9	
12	0	0	0	0	467	498	120	12	
13	0	0	0	0	532	507	122	16	
14	0	0	0	0	499	507	122	18	
15	0	0	0	0	490	501	122	21	
0	0	0	0	0	587	511	122	22	
1	0	0	0	0	618	537	122	23	
2	0	0	0	0	526	554	122	24	
3	0	0	0	0	438	549	125	24	
4	0	0	0	0	419	529	127	24	
5	0	0	0	0	465	513	128	24	
6	0	0	0	0	497	458	128	24	
7	0	0	0	0	480	435	128	24	
8	0	0	0	0	478	449	127	27	
9	0	0	0	0	451	494	129	30	
10	0	0	0	0	421	536	131	32	
11	0	0	0	0	470	535	128	32	
12	0	0	0	0	453	532	127	34	
13	0	0	0	0	507	544	125	36	
14	0	0	0	0	614	522	126	39	
15	0	0	0	0	662	508	129	35	
0	0	0	0	0	594	501	124	37	
1	0	0	0	0	550	481	123	42	
2	0	0	0	0	518	465	128	47	
3	0	0	0	0	538	495	132	50	
4	0	0	0	0	483	535	130	49	
5	0	0	0	0	446	538	130	51	
6	0	0	0	0	472	513	132	54	
7	0	0	0	0	538	516	134	56	
8	0	0	0	0	519	515	133	57	
9	0	0	0	0	518	513	138	65	
10	0	0	0	0	512	482	144	71	
11	0	0	0	0	444	487	145	79	
12	0	0	0	0	471	512	153	91	
13	0	0	0	0	549	514	178	98	
14	0	0	0	0	468	507	184	95	
15	0	0	0	0	454	524	187	97	
0	0	0	0	0	481	525	191	106	
1	0	0	0	0	545	523	193	110	
2	0	0	0	0	682	505	197	113	
3	0	0	0	0	744	509	201	121	
4	0	0	0	0	661	503	205	125	
5	0	0	0	0	441	504	204	130	
6	0	0	0	0	354	476	209	130	
7	0	0	0	0	397	479	206	130	
8	0	0	0	0	457	489	209	134	
9	0	0	0	0	555	498	204	135	
10	0	0	0	0	578	490	209	139	
11	0	0	0	0	553	510	210	144	
12	0	0	0	0	502	534	212	147	
13	0	0	0	0	434	522	220	146	
14	0	0	0	0	471	540	220	155	
15	0	0	0	0	475	542	222	153	
0	0	0	0	0	544	508	223	162	
1	0	0	0	0	588	488	224	176	
2	0	0	0	0	547	507	225	177	
3	0	0	0	0	486	496	240	184	
4	0	0	0	0	426	495	242	188	
5	0	0	0	0	382	507	243	189	
6	0	0	0	0	417	513	251	188	
7	0	0	0	0	496	533	249	191	
8	0	0	0	0	600	526	252	193	
9	0	0	0	0	644	540	254	194	
10	0	0	0	0	651	500	260	204	
11	0	0	0	0	567	483	259	202	
12	0	0	0	0	463	475	259	211	
13	0	0	0	0	518	476	260	211	
14	0	0	0	0	497	492	263	208	
15	0	0	0	0	451	520	264	212	
0	0	0	0	0	470	524	265	217	
1	0	0	0	0	496	517	261	218	
2	0	0	0	0	496	534	263	219	
3	0	0	0	0	452	526	265	225	
4	0	0	0	0	487	525	261	231	
5	0	0	0	0	474	525	262	235	
6	0	0	0	0	499	521	260	232	
7	0	0	0	0	608	504	257	235	
8	0	0	0	0	577	497	255	236	
9	0	0	0	0	504	491	257	234	
10	0	0	0	0	509	470	262	233	
11	0	0	0	0	548	480	264	236	
12	0	0	0	0	445	506	260	237	
13	0	0	0	0	465	490	265	238	
14	0	0	0	0	492	495	264	241	
15	0	0	0	0	639	519	268	243	
0	0	0	0	0	611	519	272	247	
1	0	0	0	0	518	523	271	252	
2	0	0	0	0	409	560	275	256	
3	0	0	0	0	440	558	275	259	
4	0	0	0	0	631	531	270	260	
5	0	0	0	0	592	498	270	262	
6	0	0	0	0	525	499	272	261	
7	0	0	0	0	504	509	269	264	
8	0	0	0	0	469	483	268	262	
9	0	0	0	0	487	482	269	262	
10	0	0	0	0	456	505	276	266	
11	0	0	0	0	494	494	276	275	
12	0	0	0	0	517	478	277	280	
13	0	0	0	0	502	499	279	283	
14	0	0	0	0	520	495	277	283	
15	0	0	0	0	462	513	278	280	
0	0	0	0	0	398	494	279	280	
1	0	0	0	0	434	499	295	281	
2	0	0	0	0	582	522	298	282	
3	0	0	0	0	788	531	302	282	
4	0	0	0	0	608	528	304	287	
5	0	0	0	0	470	532	307	290	
6	0	0	0	0	441	511	309	291	
7	0	0	0	0	408	507	311	297	
8	0	0	0	0	359	521	309	295	
9	0	0	0	0	529	495	311	294	
10	0	0	0	0	565	470	312	295	
11	0	0	0	0	494	480	307	291	
12	0	0	0	0	529	513	312	294	
13	0	0	0	0	536	521	314	299	
14	0	0	0	0	533	522	320	295	
15	0	0	0	0	541	524	320	295	
0	0	0	0	0	491	504	322	295	
1	0	0	0	0	460	473	320	295	
2	0	0	0	0	427	489	321	295	
3	0	0	0	0	438	515	320	295	
4	0	0	0	0	450	526	319	295	
5	0	0	0	0	591	531	313	294	
6	0	0	0	0	537	508	316	292	
7	0	0	0	0	468	511	317	291	
8	0	0	0	0	446	498	318	293	
9	0	0	0	0	525	497	320	292	
10	0	0	0	0	741	510	320	296	
11	0	0	0	0	865	523	320	302	
12	0	0	0	0	572	508	322	301	
13	0	0	0	0	346	510	318	303	
14	0	0	0	0	320	520	323	301	
15	0	0	0	0	403	516	328	304	
0	0	0	0	0	606	508	328	307	
1	0	0	0	0	611	507	326	308	
2	0	0	0	0	540	495	327	311	
3	0	0	0	0	567	517	331	311	
4	0	0	0	0	539	532	331	314	
5	0	0	0	0	452	509	330	313	
6	0	0	0	0	468	485	330	317	
7	0	0	0	0	433	483	329	316	
8	0	0	0	0	417	516	332	312	
9	0	0	0	0	389	524	329	315	
10	0	0	0	0	466	513	331	316	
11	0	0	0	0	507	507	337	318	
12	0	0	0	0	513	492	337	319	
13	0	0	0	0	597	495	340	321	
14	0	0	0	0	583	497	340	320	
15	0	0	0	0	612	523	342	318	
0	0	0	0	0	532	524	342	320	
1	0	0	0	0	512	499	339	319	
2	0	0	0	0	507	496	341	321	
3	0	0	0	0	472	525	340	320	
4	0	0	0	0	491	543	339	322	
5	0	0	0	0	463	535	340	321	
6	0	0	0	0	513	521	344	323	
7	0	0	0	0	549	512	346	323	
8	0	0	0	0	470	478	344	325	
9	0	0	0	0	429	457	345	325	
10	0	0	0	0	420	467	345	326	
11	0	0	0	0	535	488	348	326	
12	0	0	0	0	649	523	347	326	
13	0	0	0	0	668	531	345	327	
14	0	0	0	0	508	508	346	326	
15	0	0	0	0	493	504	349	327	
0	0	0	0	0	531	518	350	327	
1	0	0	0	0	515	551	351	327	
2	0	0	0	0	496	520	351	327	
3	0	0	0	0	467	483	352	326	
4	0	0	0	0	489	504	351	325	
5	0	0	0	0	502	510	350	327	
6	0	0	0	0	525	492	349	324	
7	0	0	0	0	413	504	350	323	
8	0	0	0	0	389	503	353	322	
9	0	0	0	0	448	501	353	323	
10	0	0	0	0	585	490	354	322	
11	0	0	0	0	592	502	352	321	
12	0	0	0	0	592	495	353	325	
13	0	0	0	0	626	505	354	323	
14	0	0	0	0	501	524	355	321	
15	0	0	0	0	416	532	355	321	
0	0	0	0	0	503	531	355	324	
1	0	0	0	0	611	519	355	324	
2	0	0	0	0	497	492	355	324	
3	0	0	0	0	388	506	355	326	
4	0	0	0	0	444	511	355	326	
5	0	0	0	0	439	525	355	324	
6	0	0	0	0	565	519	355	323	
7	0	0	0	0	817	517	355	324	
8	0	0	0	0	608	525	356	324	
9	0	0	0	0	463	509	356	323	
10	0	0	0	0	482	483	358	325	
11	0	0	0	0	448	489	357	325	
12	0	0	0	0	399	500	360	325	
13	0	0	0	0	414	492	361	324	
14	0	0	0	0	479	487	362	321	
15	0	0	0	0	559	495	362	323	
0	0	0	0	0	615	516	361	322	
1	0	0	0	0	518	519	363	323	
2	0	0	0	0	431	530	363	323	
3	0	0	0	0	406	519	363	323	
4	0	0	0	0	404	521	363	324	
5	0	0	0	0	476	509	364	323	
6	0	0	0	0	619	502	364	324	
7	0	0	0	0	619	504	365	324	
8	0	0	0	0	648	523	363	325	
9	0	0	0	0	648	526	364	325	
10	0	0	0	0	496	510	365	324	
11	0	0	0	0	454	499	364	326	
12	0	0	0	0	459	494	364	325	
13	0	0	0	0	479	491	364	325	
14	0	0	0	0	489	486	366	324	
15	0	0	0	0	438	505	367	324	
0	0	0	0	0	494	488	367	325	
1	0	0	0	0	511	486	366	325	
2	0	0	0	0	477	515	367	325	
3	0	0	0	0	515	534	366	325	
4	0	0	0	0	622	523	365	324	
5	0	0	0	0	583	509	366	323	
6	0	0	0	0	511	520	366	324	
7	0	0	0	0	427	514	367	322	
8	0	0	0	0	429	511	367	320	
9	0	0	0	0	497	519	368	320	
10	0	0	0	0	642	511	368	321	
11	0	0	0	0	591	508	367	321	
12	0	0	0	0	453	517	366	319	
13	0	0	0	0	441	522	368	318	
14	0	0	0	0	489	504	369	319	
15	0	0	0	0	562	490	368	318	
0	0	0	0	0	569	507	368	316	
1	0	0	0	0	552	518	368	315	
2	0	0	0	0	503	486	369	316	
3	0	0	0	0	475	473	368	316	
4	0	0	0	0	427	504	368	318	
5	0	0	0	0	405	526	367	319	
6	0	0	0	0	517	526	369	318	
7	0	0	0	0	610	516	369	317	
8	0	0	0	0	541	514	367	318	
9	0	0	0	0	485	497	368	318	
10	0	0	0	0	500	492	366	318	
11	0	0	0	0	480	500	366	318	
12	0	0	0	0	493	519	366	319	
13	0	0	0	0	567	529	364	318	
14	0	0	0	0	568	530	364	319	
15	0	0	0	0	464	500	363	319	
0	0	0	0	0	396	493	364	319	
1	0	0	0	0	430	493	364	320	
2	0	0	0	0	410	495	364	319	
3	0	0	0	0	629	492	364	320	
4	0	0	0	0	749	514	364	319	
5	0	0	0	0	580	519	364	319	
6	0	0	0	0	500	506	365	319	
7	0	0	0	0	564	508	364	318	
8	0	0	0	0	524	517	364	318	
9	0	0	0	0	496	511	364	317	
10	0	0	0	0	519	519	365	318	
11	0	0	0	0	512	519	366	318	
12	0	0	0	0	512	512	364	317	
13	0	0	0	0	506	511	366	316	
14	0	0	0	0	416	508	365	316	
15	0	0	0	0	443	499	364	315	
0	0	0	0	0	413	492	365	315	
1	0	0	0	0	459	495	364	314	
2	0	0	0	0	446	504	364	313	
3	0	0	0	0	465	506	364	313	
4	0	0	0	0	612	515	364	312	
5	0	0	0	0	600	514	363	310	
6	0	0	0	0	597	523	362	311	
7	0	0	0	0	633	529	362	311	
8	0	0	0	0	545	544	362	310	
9	0	0	0	0	468	532	361	310	
10	0	0	0	0	483	497	362	311	
11	0	0	0	0	491	480	359	310	
12	0	0	0	0	508	463	359	310	
13	0	0	0	0	452	458	358	310	
14	0	0	0	0	431	493	357	311	
15	0	0	0	0	415	530	357	311	
0	0	0	0	0	403	539	357	310	
1	0	0	0	0	498	515	356	310	
2	0	0	0	0	687	497	357	310	
3	0	0	0	0	685	500	358	310	
4	0	0	0	0	569	495	357	310	
5	0	0	0	0	535	498	358	310	
6	0	0	0	0	562	516	357	311	
7	0	0	0	0	469	514	355	311	
8	0	0	0	0	413	508	355	311	
9	0	0	0	0	367	517	354	312	
10	0	0	0	0	401	517	355	312	
11	0	0	0	0	437	526	353	312	
12	0	0	0	0	520	537	354	313	
13	0	0	0	0	695	519	353	313	
14	0	0	0	0	706	508	353	313	
15	0	0	0	0	522	494	353	313	
0	0	0	0	0	509	475	355	313	
1	0	0	0	0	484	474	354	315	
2	0	0	0	0	455	493	353	314	
3	0	0	0	0	443	505	353	315	
4	0	0	0	0	425	517	353	315	
5	0	0	0	0	501	515	352	315	
6	0	0	0	0	485	518	351	316	
7	0	0	0	0	583	520	351	316	
8	0	0	0	0	697	527	350	315	
9	0	0	0	0	592	533	351	315	
10	0	0	0	0	480	522	349	316	
11	0	0	0	0	471	516	350	315	
12	0	0	0	0	510	505	349	315	
13	0	0	0	0	514	498	348	316	
14	0	0	0	0	469	497	349	317	
15	0	0	0	0	445	501	347	318	
0	0	0	0	0	467	502	346	316	
1	0	0	0	0	479	495	347	316	
2	0	0	0	0	522	504	344	315	
3	0	0	0	0	538	508	342	315	
4	0	0	0	0	522	495	342	316	
5	0	0	0	0	515	491	341	316	
6	0	0	0	0	489	500	340	316	
7	0	0	0	0	497	512	339	317	
8	0	0	0	0	509	524	338	316	
9	0	0	0	0	525	538	338	316	
10	0	0	0	0	510	535	337	318	
11	0	0	0	0	519	524	336	317	
12	0	0	0	0	498	511	338	316	
13	0	0	0	0	411	495	335	317	
14	0	0	0	0	399	477	332	318	
15	0	0	0	0	466	479	331	317	
0	0	0	0	0	704	492	331	316	
1	0	0	0	0	670	505	331	316	
2	0	0	0	0	534	508	330	317	
3	0	0	0	0	472	519	331	317	
4	0	0	0	0	488	534	329	319	
5	0	0	0	0	530	524	329	318	
6	0	0	0	0	555	504	328	319	
7	0	0	0	0	603	508	328	318	
8	0	0	0	0	537	503	329	318	
9	0	0	0	0	455	489	327	317	
10	0	0	0	0	459	504	328	316	
11	0	0	0	0	444	510	326	319	
12	0	0	0	0	451	516	327	319	
13	0	0	0	0	510	528	326	320	
14	0	0	0	0	533	531	327	319	
15	0	0	0	0	475	519	326	318	
0	0	0	0	0	455	499	325	318	
1	0	0	0	0	469	492	327	318	
2	0	0	0	0	560	494	326	317	
3	0	0	0	0	636	477	326	317	
4	0	0	0	0	699	497	325	318	
5	0	0	0	0	503	500	325	315	
6	0	0	0	0	410	513	325	316	
7	0	0	0	0	430	521	325	316	
8	0	0	0	0	434	508	324	315	
9	0	0	0	0	465	514	322	313	
10	0	0	0	0	476	506	322	312	
11	0	0	0	0	466	495	322	314	
12	0	0	0	0	511	504	321	313	
13	0	0	0	0	545	510	320	312	
14	0	0	0	0	633	513	321	314	
15	0	0	0	0	583	524	321	312	
0	0	0	0	0	488	520	320	314	
1	0	0	0	0	456	522	321	314	
2	0	0	0	0	512	512	317	314	
3	0	0	0	0	558	509	316	315	
4	0	0	0	0	512	504	315	315	
5	0	0	0	0	518	490	316	315	
6	0	0	0	0	510	494	315	315	
7	0	0	0	0	477	515	315	314	
8	0	0	0	0	428	508	314	313	
9	0	0	0	0	450	509	315	313	
10	0	0	0	0	571	511	316	313	
11	0	0	0	0	663	515	316	312	
12	0	0	0	0	671	512	315	312	
13	0	0	0	0	569	503	315	312	
14	0	0	0	0	481	509	315	313	
15	0	0	0	0	465	512	315	311	
0	0	0	0	0	481	509	315	311	
1	0	0	0	0	454	509	315	311	
2	0	0	0	0	486	517	315	310	
3	0	0	0	0	485	519	315	309	
4	0	0	0	0	457	497	315	307	
5	0	0	0	0	459	495	315	308	
6	0	0	0	0	446	496	315	307	
7	0	0	0	0	441	498	315	307	
8	0	0	0	0	493	521	315	309	
9	0	0	0	0	534	530	313	309	
10	0	0	0	0	541	520	315	308	
11	0	0	0	0	617	515	313	307	
12	0	0	0	0	515	488	313	308	
13	0	0	0	0	476	478	315	308	
14	0	0	0	0	542	476	315	308	
15	0	0	0	0	563	495	315	308	
0	0	0	0	0	593	518	315	307	
1	0	0	0	0	573	514	315	307	
2	0	0	0	0	513	530	314	306	
3	0	0	0	0	439	546	313	307	
4	0	0	0	0	449	535	314	308	
5	0	0	0	0	481	513	312	308	
6	0	0	0	0	495	499	312	308	
7	0	0	0	0	517	486	312	307	
8	0	0	0	0	518	475	312	307	
9	0	0	0	0	539	471	311	307	
10	0	0	0	0	513	497	310	307	
11	0	0	0	0	503	519	310	307	
12	0	0	0	0	480	536	307	307	
13	0	0	0	0	511	523	310	308	
14	0	0	0	0	510	511	311	308	
15	0	0	0	0	490	513	310	308	
0	0	0	0	0	472	505	310	307	
1	0	0	0	0	499	501	311	308	
2	0	0	0	0	511	508	310	307	
3	0	0	0	0	472	497	309	307	
4	0	0	0	0	479	515	309	306	
5	0	0	0	0	614	520	309	304	
6	0	0	0	0	599	516	309	304	
7	0	0	0	0	579	516	310	303	
8	0	0	0	0	516	515	307	303	
9	0	0	0	0	524	523	305	303	
10	0	0	0	0	545	528	306	301	
11	0	0	0	0	510	505	305	302	
12	0	0	0	0	497	492	304	302	
13	0	0	0	0	486	484	304	301	
14	0	0	0	0	510	469	305	302	
15	0	0	0	0	517	492	304	302	
0	0	0	0	0	494	492	304	301	
1	0	0	0	0	473	500	303	302	
2	0	0	0	0	462	511	302	301	
3	0	0	0	0	486	516	299	300	
4	0	0	0	0	452	523	300	300	
5	0	0	0	0	493	519	301	299	
6	0	0	0	0	508	512	302	298	
7	0	0	0	0	536	518	302	298	
8	0	0	0	0	516	512	300	298	
9	0	0	0	0	504	504	299	297	
10	0	0	0	0	493	510	299	297	
11	0	0	0	0	509	507	300	297	
12	0	0	0	0	588	516	297	297	
13	0	0	0	0	545	511	297	296	
14	0	0	0	0	509	511	297	296	
15	0	0	0	0	532	517	298	297	
0	0	0	0	0	522	521	299	296	
1	0	0	0	0	531	510	299	297	
2	0	0	0	0	531	504	299	297	
3	0	0	0	0	461	496	301	297	
4	0	0	0	0	452	492	303	298	
5	0	0	0	0	476	503	301	299	
6	0	0	0	0	556	516	301	298	
7	0	0	0	0	547	513	301	297	
8	0	0	0	0	522	506	302	297	
9	0	0	0	0	505	502	302	296	
10	0	0	0	0	571	494	302	297	
11	0	0	0	0	552	511	302	297	
12	0	0	0	0	525	527	302	296	
13	0	0	0	0	499	527	303	296	
14	0	0	0	0	465	514	302	296	
15	0	0	0	0	463	514	303	296	
0	0	0	0	0	463	496	304	296	
1	0	0	0	0	487	476	304	296	
2	0	0	0	0	478	502	305	296	
3	0	0	0	0	515	534	306	297	
4	0	0	0	0	527	521	307	298	
5	0	0	0	0	545	487	308	297	
6	0	0	0	0	536	496	307	297	
7	0	0	0	0	459	499	307	297	
8	0	0	0	0	496	491	305	297	
9	0	0	0	0	526	497	305	298	
10	0	0	0	0	576	511	304	297	
11	0	0	0	0	504	512	303	298	
12	0	0	0	0	446	519	303	297	
13	0	0	0	0	421	516	303	298	
14	0	0	0	0	409	513	302	298	
15	0	0	0	0	470	518	302	298	
0	0	0	0	0	622	512	303	298	
1	0	0	0	0	715	512	303	297	
2	0	0	0	0	634	510	303	296	
3	0	0	0	0	552	516	303	296	
4	0	0	0	0	457	521	303	297	
5	0	0	0	0	447	498	304	297	
6	0	0	0	0	485	493	304	297	
7	0	0	0	0	494	506	301	297	
8	0	0	0	0	531	511	302	296	
9	0	0	0	0	536	492	304	296	
10	0	0	0	0	516	504	303	296	
11	0	0	0	0	466	511	303	295	
12	0	0	0	0	482	516	303	295	
13	0	0	0	0	424	511	302	296	
14	0	0	0	0	489	504	302	295	
15	0	0	0	0	553	504	301	296	
0	0	0	0	0	558	509	299	295	
1	0	0	0	0	548	518	299	295	
2	0	0	0	0	528	517	299	295	
3	0	0	0	0	473	507	299	294	
4	0	0	0	0	454	508	298	293	
5	0	0	0	0	448	505	297	293	
6	0	0	0	0	544	511	298	294	
7	0	0	0	0	589	513	300	293	
8	0	0	0	0	556	523	298	293	
9	0	0	0	0	512	510	296	295	
10	0	0	0	0	528	495	297	294	
11	0	0	0	0	513	502	296	293	
12	0	0	0	0	468	505	295	294	
13	0	0	0	0	452	514	296	295	
14	0	0	0	0	434	500	295	295	
15	0	0	0	0	445	504	295	294	
0	0	0	0	0	529	512	294	295	
1	0	0	0	0	547	512	294	294	
2	0	0	0	0	509	509	294	294	
3	0	0	0	0	608	507	294	294	
4	0	0	0	0	647	510	293	294	
5	0	0	0	0	585	509	294	294	
6	0	0	0	0	505	511	294	295	
7	0	0	0	0	494	517	294	294	
8	0	0	0	0	501	517	293	294	
9	0	0	0	0	477	508	295	294	
10	0	0	0	0	465	510	293	294	
11	0	0	0	0	472	502	295	295	
12	0	0	0	0	489	485	294	295	
13	0	0	0	0	517	491	295	295	
14	0	0	0	0	500	499	293	295	
15	0	0	0	0	508	491	295	295	
0	0	0	0	0	515	497	294	295	
1	0	0	0	0	484	513	295	295	
2	0	0	0	0	480	523	294	295	
3	0	0	0	0	488	524	295	295	
4	0	0	0	0	499	526	294	296	
5	0	0	0	0	517	512	294	295	
6	0	0	0	0	548	509	294	296	
7	0	0	0	0	595	512	294	296	
8	0	0	0	0	511	513	294	296	
9	0	0	0	0	443	523	295	296	
10	0	0	0	0	417	526	295	296	
11	0	0	0	0	464	503	295	297	
12	0	0	0	0	502	499	296	297	
13	0	0	0	0	585	492	295	296	
14	0	0	0	0	643	466	296	296	
15	0	0	0	0	652	484	295	297	
0	0	0	0	0	523	522	295	297	
1	0	0	0	0	483	527	295	297	
2	0	0	0	0	532	520	295	296	
3	0	0	0	0	503	489	294	296	
4	0	0	0	0	446	494	294	296	
5	0	0	0	0	422	508	293	296	
6	0	0	0	0	447	512	293	296	
7	0	0	0	0	467	521	293	296	
8	0	0	0	0	520	522	292	296	
9	0	0	0	0	544	516	294	296	
10	0	0	0	0	543	494	294	296	
11	0	0	0	0	508	490	294	295	
12	0	0	0	0	507	494	291	295	
13	0	0	0	0	489	515	293	295	
14	0	0	0	0	454	513	292	295	
15	0	0	0	0	458	511	295	295	
0	0	0	0	0	593	512	294	295	
1	0	0	0	0	593	522	294	295	
2	0	0	0	0	520	514	295	295	
3	0	0	0	0	520	507	295	295	
4	0	0	0	0	518	514	295	295	
5	0	0	0	0	511	514	293	295	
6	0	0	0	0	518	508	293	295	
7	0	0	0	0	524	509	294	295	
8	0	0	0	0	472	514	295	295	
9	0	0	0	0	459	507	295	296	
10	0	0	0	0	461	499	295	295	
11	0	0	0	0	466	505	295	295	
12	0	0	0	0	497	507	296	294	
13	0	0	0	0	599	503	297	293	
14	0	0	0	0	697	505	298	295	
15	0	0	0	0	595	516	297	294	
0	0	0	0	0	510	510	297	293	
1	0	0	0	0	481	506	296	293	
2	0	0	0	0	451	505	296	292	
3	0	0	0	0	435	506	295	292	
4	0	0	0	0	425	507	296	292	
5	0	0	0	0	394	499	295	291	
6	0	0	0	0	433	501	295	290	
7	0	0	0	0	459	511	296	290	
8	0	0	0	0	595	523	296	289	
9	0	0	0	0	768	515	298	289	
10	0	0	0	0	591	508	298	288	
11	0	0	0	0	514	510	298	286	
12	0	0	0	0	496	507	297	286	
13	0	0	0	0	481	500	297	285	
14	0	0	0	0	460	502	296	284	
15	0	0	0	0	485	508	297	282	
0	0	0	0	0	512	512	296	280	
1	0	0	0	0	505	513	293	280	
2	0	0	0	0	506	512	292	279	
3	0	0	0	0	544	508	292	278	
4	0	0	0	0	566	502	294	279	
5	0	0	0	0	466	500	293	278	
6	0	0	0	0	454	509	293	278	
7	0	0	0	0	471	508	291	278	
8	0	0	0	0	480	510	291	278	
9	0	0	0	0	536	502	291	278	
10	0	0	0	0	513	507	291	277	
11	0	0	0	0	468	516	291	277	
12	0	0	0	0	488	507	291	278	
13	0	0	0	0	499	510	289	278	
14	0	0	0	0	523	521	289	278	
15	0	0	0	0	536	511	287	277	
0	0	0	0	0	561	510	287	278	
1	0	0	0	0	555	496	288	278	
2	0	0	0	0	493	494	288	278	
3	0	0	0	0	486	506	288	277	
4	0	0	0	0	513	512	288	278	
5	0	0	0	0	579	508	287	278	
6	0	0	0	0	634	504	288	278	
7	0	0	0	0	497	514	288	277	
8	0	0	0	0	421	511	288	276	
9	0	0	0	0	376	519	289	277	
10	0	0	0	0	455	521	289	276	
11	0	0	0	0	574	516	290	277	
12	0	0	0	0	701	498	290	277	
13	0	0	0	0	591	494	290	277	
14	0	0	0	0	514	492	289	278	
15	0	0	0	0	512	483	289	277	
0	0	0	0	0	470	498	289	277	
1	0	0	0	0	453	519	289	278	
2	0	0	0	0	462	527	291	278	
3	0	0	0	0	458	523	289	278	
4	0	0	0	0	492	508	290	277	
5	0	0	0	0	500	498	289	278	
6	0	0	0	0	517	512	289	278	
7	0	0	0	0	579	508	289	277	
8	0	0	0	0	497	502	289	278	
9	0	0	0	0	426	503	290	277	
10	0	0	0	0	427	497	290	278	
11	0	0	0	0	423	501	291	277	
12	0	0	0	0	529	511	291	277	
13	0	0	0	0	667	519	291	277	
14	0	0	0	0	613	514	291	276	
15	0	0	0	0	558	511	291	276	
0	0	0	0	0	496	513	291	277	
1	0	0	0	0	475	511	293	276	
2	0	0	0	0	470	515	293	276	
3	0	0	0	0	531	501	294	276	
4	0	0	0	0	547	495	293	276	
5	0	0	0	0	514	510	293	275	
6	0	0	0	0	455	509	294	275	
7	0	0	0	0	454	519	295	275	
8	0	0	0	0	496	518	295	274	
9	0	0	0	0	524	507	295	274	
10	0	0	0	0	555	505	296	273	
11	0	0	0	0	570	514	296	275	
12	0	0	0	0	543	496	296	275	
13	0	0	0	0	512	493	297	275	
14	0	0	0	0	505	504	297	274	
15	0	0	0	0	500	512	298	274	
0	0	0	0	0	506	510	299	275	
1	0	0	0	0	506	512	299	275	
2	0	0	0	0	513	509	299	275	
3	0	0	0	0	512	510	299	274	
4	0	0	0	0	499	514	299	273	
5	0	0	0	0	475	506	300	274	
6	0	0	0	0	436	511	300	274	
7	0	0	0	0	417	507	300	274	
8	0	0	0	0	411	502	300	273	
9	0	0	0	0	547	509	300	273	
10	0	0	0	0	671	510	300	271	
11	0	0	0	0	579	506	299	271	
12	0	0	0	0	549	512	301	271	
13	0	0	0	0	572	510	301	272	
14	0	0	0	0	488	512	301	271	
15	0	0	0	0	508	507	301	270	
0	0	0	0	0	518	507	300	271	
1	0	0	0	0	473	508	301	270	
2	0	0	0	0	448	509	301	269	
3	0	0	0	0	464	513	302	268	
4	0	0	0	0	493	507	303	266	
5	0	0	0	0	570	503	303	266	
6	0	0	0	0	540	507	303	267	
7	0	0	0	0	579	508	302	265	
8	0	0	0	0	551	508	302	267	
9	0	0	0	0	480	512	302	265	
10	0	0	0	0	468	513	303	265	
11	0	0	0	0	480	513	302	266	
12	0	0	0	0	470	513	303	266	
13	0	0	0	0	507	509	303	268	
14	0	0	0	0	558	497	302	266	
15	0	0	0	0	507	509	302	265	
0	0	0	0	0	435	495	301	266	
1	0	0	0	0	460	499	300	265	
2	0	0	0	0	454	496	300	264	
3	0	0	0	0	467	504	300	263	
4	0	0	0	0	598	512	300	262	
5	0	0	0	0	523	510	300	263	
6	0	0	0	0	509	505	299	262	
7	0	0	0	0	652	511	299	262	
8	0	0	0	0	683	517	298	262	
9	0	0	0	0	597	522	298	262	
10	0	0	0	0	504	512	298	262	
11	0	0	0	0	479	515	297	261	
12	0	0	0	0	474	510	297	261	
13	0	0	0	0	440	504	297	261	
14	0	0	0	0	412	495	297	262	
15	0	0	0	0	415	488	297	262	
0	0	0	0	0	408	504	296	262	
1	0	0	0	0	387	521	296	262	
2	0	0	0	0	445	525	296	262	
3	0	0	0	0	584	513	295	262	
4	0	0	0	0	713	492	295	262	
5	0	0	0	0	777	495	294	263	
6	0	0	0	0	620	508	293	263	
7	0	0	0	0	486	511	293	261	
8	0	0	0	0	468	512	293	263	
9	0	0	0	0	465	516	293	263	
10	0	0	0	0	446	520	292	263	
11	0	0	0	0	461	514	291	265	
12	0	0	0	0	489	508	289	265	
13	0	0	0	0	446	497	288	265	
14	0	0	0	0	488	506	288	265	
15	0	0	0	0	580	500	287	265	
0	0	0	0	0	556	499	287	264	
1	0	0	0	0	473	508	287	264	
2	0	0	0	0	463	507	287	264	
3	0	0	0	0	511	514	286	264	
4	0	0	0	0	539	526	286	265	
5	0	0	0	0	497	506	285	264	
6	0	0	0	0	470	504	285	265	
7	0	0	0	0	491	522	285	265	
8	0	0	0	0	457	499	285	266	
9	0	0	0	0	422	477	285	264	
10	0	0	0	0	506	493	286	263	
11	0	0	0	0	701	511	286	263	
12	0	0	0	0	582	509	285	261	
13	0	0	0	0	535	521	284	261	
14	0	0	0	0	532	517	284	259	
15	0	0	0	0	545	518	284	259	
0	0	0	0	0	551	520	284	259	
1	0	0	0	0	471	517	284	258	
2	0	0	0	0	470	512	284	256	
3	0	0	0	0	448	509	284	257	
4	0	0	0	0	477	493	284	255	
5	0	0	0	0	467	495	277	255	
6	0	0	0	0	470	500	276	255	
7	0	0	0	0	473	502	277	253	
8	0	0	0	0	508	506	277	252	
9	0	0	0	0	572	510	277	250	
10	0	0	0	0	573	514	277	248	
11	0	0	0	0	571	512	277	247	
12	0	0	0	0	536	524	277	245	
13	0	0	0	0	512	519	275	245	
14	0	0	0	0	487	519	276	244	
15	0	0	0	0	508	507	275	243	
0	0	0	0	0	569	494	275	241	
1	0	0	0	0	527	494	275	243	
2	0	0	0	0	465	488	275	241	
3	0	0	0	0	431	496	275	239	
4	0	0	0	0	409	503	276	239	
5	0	0	0	0	414	510	276	236	
6	0	0	0	0	446	505	277	235	
7	0	0	0	0	554	502	278	235	
8	0	0	0	0	669	514	278	234	
9	0	0	0	0	617	524	278	231	
10	0	0	0	0	620	526	279	231	
11	0	0	0	0	549	523	279	230	
12	0	0	0	0	452	517	278	232	
13	0	0	0	0	497	513	279	235	
14	0	0	0	0	522	504	280	231	
15	0	0	0	0	503	502	279	229	
0	0	0	0	0	543	504	280	228	
1	0	0	0	0	513	490	280	228	
2	0	0	0	0	501	493	280	228	
3	0	0	0	0	494	511	279	227	
4	0	0	0	0	510	517	279	226	
5	0	0	0	0	554	514	280	226	
6	0	0	0	0	472	511	278	226	
7	0	0	0	0	419	503	279	226	
8	0	0	0	0	455	501	278	227	
9	0	0	0	0	497	497	277	226	
10	0	0	0	0	494	505	278	226	
11	0	0	0	0	492	518	278	226	
12	0	0	0	0	485	512	277	225	
13	0	0	0	0	451	494	276	227	
14	0	0	0	0	452	502	277	226	
15	0	0	0	0	464	510	276	225	
0	0	0	0	0	535	515	277	229	
1	0	0	0	0	607	513	276	230	
2	0	0	0	0	501	508	277	229	
3	0	0	0	0	568	512	277	226	
4	0	0	0	0	595	519	277	225	
5	0	0	0	0	550	515	278	227	
6	0	0	0	0	571	512	278	227	
7	0	0	0	0	581	513	277	227	
8	0	0	0	0	535	498	278	227	
9	0	0	0	0	513	487	278	228	
10	0	0	0	0	521	497	278	227	
11	0	0	0	0	455	524	278	226	
12	0	0	0	0	430	521	277	226	
13	0	0	0	0	470	495	277	227	
14	0	0	0	0	486	497	277	228	
15	0	0	0	0	559	499	277	225	
0	0	0	0	0	544	509	277	226	
1	0	0	0	0	412	509	277	226	
2	0	0	0	0	425	511	279	227	
3	0	0	0	0	491	508	279	226	
4	0	0	0	0	605	513	279	225	
5	0	0	0	0	599	515	278	224	
6	0	0	0	0	540	515	278	224	
7	0	0	0	0	537	519	278	224	
8	0	0	0	0	542	521	275	222	
9	0	0	0	0	518	514	275	222	
10	0	0	0	0	507	504	274	221	
11	0	0	0	0	491	497	274	223	
12	0	0	0	0	480	490	274	222	
13	0	0	0	0	509	496	274	221	
14	0	0	0	0	488	514	274	222	
15	0	0	0	0	470	510	274	222	
0	0	0	0	0	470	511	273	222	
1	0	0	0	0	443	509	273	221	
2	0	0	0	0	451	497	273	222	
3	0	0	0	0	528	509	274	220	
4	0	0	0	0	667	503	274	219	
5	0	0	0	0	618	499	276	221	
6	0	0	0	0	487	519	276	219	
7	0	0	0	0	453	514	277	221	
8	0	0	0	0	483	520	277	222	
9	0	0	0	0	466	520	278	221	
10	0	0	0	0	519	513	277	221	
11	0	0	0	0	551	511	277	221	
12	0	0	0	0	515	511	276	221	
13	0	0	0	0	511	491	277	222	
14	0	0	0	0	508	491	278	222	
15	0	0	0	0	435	504	276	220	
0	0	0	0	0	433	494	277	223	
1	0	0	0	0	454	498	277	220	
2	0	0	0	0	505	511	277	221	
3	0	0	0	0	738	516	276	221	
4	0	0	0	0	676	517	276	220	
5	0	0	0	0	524	530	276	219	
6	0	0	0	0	467	515	277	220	
7	0	0	0	0	476	503	277	220	
8	0	0	0	0	478	503	276	218	
9	0	0	0	0	468	502	275	220	
10	0	0	0	0	462	503	276	217	
11	0	0	0	0	487	504	275	219	
12	0	0	0	0	497	512	274	217	
13	0	0	0	0	499	522	274	217	
14	0	0	0	0	540	519	274	220	
15	0	0	0	0	590	509	273	219	
0	0	0	0	0	597	495	272	218	
1	0	0	0	0	518	490	271	217	
2	0	0	0	0	454	502	273	215	
3	0	0	0	0	368	509	271	215	
4	0	0	0	0	420	522	273	214	
5	0	0	0	0	536	526	273	216	
6	0	0	0	0	564	520	273	215	
7	0	0	0	0	574	494	273	213	
8	0	0	0	0	544	503	272	213	
9	0	0	0	0	530	511	272	212	
10	0	0	0	0	521	494	272	216	
11	0	0	0	0	489	476	272	216	
12	0	0	0	0	486	495	272	215	
13	0	0	0	0	468	516	272	215	
14	0	0	0	0	499	520	273	216	
15	0	0	0	0	518	520	272	215	
0	0	0	0	0	507	519	272	215	
1	0	0	0	0	582	522	273	215	
2	0	0	0	0	547	508	273	214	
3	0	0	0	0	581	504	273	215	
4	0	0	0	0	537	497	273	214	
5	0	0	0	0	482	501	273	215	
6	0	0	0	0	465	510	273	215	
7	0	0	0	0	458	510	273	215	
8	0	0	0	0	455	508	274	215	
9	0	0	0	0	579	507	273	217	
10	0	0	0	0	536	512	273	217	
11	0	0	0	0	440	520	274	216	
12	0	0	0	0	410	513	274	216	
13	0	0	0	0	473	503	275	216	
14	0	0	0	0	574	502	276	215	
15	0	0	0	0	527	505	275	216	
0	0	0	0	0	585	518	276	217	
1	0	0	0	0	575	515	276	217	
2	0	0	0	0	520	525	276	216	
3	0	0	0	0	494	523	276	217	
4	0	0	0	0	480	502	275	217	
5	0	0	0	0	495	491	275	216	
6	0	0	0	0	472	480	275	216	
7	0	0	0	0	483	480	276	216	
8	0	0	0	0	529	495	276	216	
9	0	0	0	0	587	513	276	216	
10	0	0	0	0	543	519	275	218	
11	0	0	0	0	449	517	276	218	
12	0	0	0	0	450	515	275	217	
13	0	0	0	0	487	508	275	218	
14	0	0	0	0	513	505	276	218	
15	0	0	0	0	581	508	274	217	
0	0	0	0	0	579	512	276	217	
1	0	0	0	0	513	515	275	216	
2	0	0	0	0	515	510	276	215	
3	0	0	0	0	455	502	273	214	
4	0	0	0	0	577	519	275	217	
5	0	0	0	0	595	526	275	217	
6	0	0	0	0	425	519	276	217	
7	0	0	0	0	428	514	275	215	
8	0	0	0	0	526	497	276	214	
9	0	0	0	0	529	486	276	214	
10	0	0	0	0	524	503	275	213	
11	0	0	0	0	506	509	274	211	
12	0	0	0	0	471	514	274	211	
13	0	0	0	0	432	503	273	211	
14	0	0	0	0	432	502	273	212	
15	0	0	0	0	467	509	274	210	
0	0	0	0	0	504	510	275	211	
1	0	0	0	0	595	507	275	211	
2	0	0	0	0	608	512	275	211	
3	0	0	0	0	536	516	274	212	
4	0	0	0	0	504	511	275	209	
5	0	0	0	0	523	509	274	209	
6	0	0	0	0	525	498	275	209	
7	0	0	0	0	456	494	275	210	
8	0	0	0	0	463	498	275	211	
9	0	0	0	0	529	516	275	210	
10	0	0	0	0	591	519	275	211	
11	0	0	0	0	599	518	275	212	
12	0	0	0	0	553	518	276	213	
13	0	0	0	0	517	515	275	206	
14	0	0	0	0	468	501	274	208	
15	0	0	0	0	485	494	275	208	
0	0	0	0	0	492	499	275	209	
1	0	0	0	0	519	510	275	209	
2	0	0	0	0	534	516	275	210	
3	0	0	0	0	493	516	274	209	
4	0	0	0	0	480	512	275	211	
5	0	0	0	0	455	503	275	210	
6	0	0	0	0	449	504	276	210	
7	0	0	0	0	480	500	276	210	
8	0	0	0	0	538	507	275	209	
9	0	0	0	0	588	515	273	210	
10	0	0	0	0	572	515	273	211	
11	0	0	0	0	530	517	271	210	
12	0	0	0	0	497	507	275	209	
13	0	0	0	0	488	499	276	211	
14	0	0	0	0	460	502	274	210	
15	0	0	0	0	471	510	276	211	
0	0	0	0	0	469	501	275	211	
1	0	0	0	0	496	492	275	209	
2	0	0	0	0	508	499	274	209	
3	0	0	0	0	611	505	275	209	
4	0	0	0	0	607	522	275	210	
5	0	0	0	0	563	521	274	209	
6	0	0	0	0	492	516	275	208	
7	0	0	0	0	478	522	275	209	
8	0	0	0	0	482	523	275	208	
9	0	0	0	0	492	512	274	209	
10	0	0	0	0	472	499	273	208	
11	0	0	0	0	463	500	274	209	
12	0	0	0	0	473	483	274	208	
13	0	0	0	0	495	489	274	209	
14	0	0	0	0	524	511	274	209	
15	0	0	0	0	534	521	274	208	
0	0	0	0	0	522	518	273	209	
1	0	0	0	0	528	503	273	210	
2	0	0	0	0	583	496	272	209	
3	0	0	0	0	569	505	272	210	
4	0	0	0	0	489	510	272	211	
5	0	0	0	0	457	503	272	210	
6	0	0	0	0	481	506	272	211	
7	0	0	0	0	490	517	273	211	
8	0	0	0	0	504	532	272	211	
9	0	0	0	0	576	519	273	211	
10	0	0	0	0	526	487	273	211	
11	0	0	0	0	477	488	273	209	
12	0	0	0	0	431	499	274	209	
13	0	0	0	0	422	505	274	209	
14	0	0	0	0	516	508	274	208	
15	0	0	0	0	581	523	271	207	
0	0	0	0	0	588	524	274	206	
1	0	0	0	0	686	522	273	206	
2	0	0	0	0	557	512	273	205	
3	0	0	0	0	470	489	274	205	
4	0	0	0	0	477	499	275	205	
5	0	0	0	0	512	508	275	206	
6	0	0	0	0	519	504	275	203	
7	0	0	0	0	502	512	276	204	
8	0	0	0	0	480	512	276	204	
9	0	0	0	0	438	508	275	203	
10	0	0	0	0	421	502	277	204	
11	0	0	0	0	511	509	277	204	
12	0	0	0	0	557	512	277	205	
13	0	0	0	0	497	509	278	206	
14	0	0	0	0	559	508	278	206	
15	0	0	0	0	526	512	278	206	
0	0	0	0	0	488	515	278	205	
1	0	0	0	0	497	516	279	205	
2	0	0	0	0	517	506	279	206	
3	0	0	0	0	497	505	279	206	
4	0	0	0	0	493	512	279	207	
5	0	0	0	0	496	514	279	206	
6	0	0	0	0	483	508	279	206	
7	0	0	0	0	512	504	278	204	
8	0	0	0	0	494	496	278	205	
9	0	0	0	0	458	493	278	204	
10	0	0	0	0	489	503	278	204	
11	0	0	0	0	487	512	279	203	
12	0	0	0	0	523	509	279	202	
13	0	0	0	0	552	512	278	203	
14	0	0	0	0	554	512	279	201	
15	0	0	0	0	597	513	279	201	
0	0	0	0	0	612	510	279	200	
1	0	0	0	0	571	509	279	199	
2	0	0	0	0	479	503	279	198	
3	0	0	0	0	521	500	278	198	
4	0	0	0	0	532	502	277	198	
5	0	0	0	0	465	512	277	199	
6	0	0	0	0	455	518	277	198	
7	0	0	0	0	495	510	278	199	
8	0	0	0	0	518	514	278	199	
9	0	0	0	0	513	500	279	198	
10	0	0	0	0	508	499	279	197	
11	0	0	0	0	501	508	279	196	
12	0	0	0	0	455	507	280	195	
13	0	0	0	0	436	504	279	195	
14	0	0	0	0	460	505	279	195	
15	0	0	0	0	517	504	280	195	
0	0	0	0	0	531	515	279	193	
1	0	0	0	0	551	522	280	194	
2	0	0	0	0	567	516	279	195	
3	0	0	0	0	626	514	279	195	
4	0	0	0	0	579	517	279	195	
5	0	0	0	0	542	511	279	195	
6	0	0	0	0	542	504	279	194	
7	0	0	0	0	511	510	279	195	
8	0	0	0	0	482	513	279	195	
9	0	0	0	0	461	508	279	195	
10	0	0	0	0	405	494	278	195	
11	0	0	0	0	381	498	279	196	
12	0	0	0	0	421	499	278	196	
13	0	0	0	0	493	492	279	195	
14	0	0	0	0	556	491	278	195	
15	0	0	0	0	576	509	278	194	
0	0	0	0	0	448	518	278	193	
1	0	0	0	0	481	516	279	192	
2	0	0	0	0	703	516	279	193	
3	0	0	0	0	657	510	279	193	
4	0	0	0	0	493	514	279	192	
5	0	0	0	0	469	516	280	192	
6	0	0	0	0	484	510	279	197	
7	0	0	0	0	472	501	279	198	
8	0	0	0	0	480	502	279	198	
9	0	0	0	0	499	513	279	196	
10	0	0	0	0	495	519	280	194	
11	0	0	0	0	591	502	278	192	
12	0	0	0	0	531	500	278	191	
13	0	0	0	0	470	512	279	191	
14	0	0	0	0	473	510	279	190	
15	0	0	0	0	504	516	279	192	
0	0	0	0	0	526	506	280	191	
1	0	0	0	0	510	503	279	191	
2	0	0	0	0	483	512	278	191	
3	0	0	0	0	485	517	279	191	
4	0	0	0	0	520	518	278	190	
5	0	0	0	0	501	527	278	190	
6	0	0	0	0	501	525	277	190	
7	0	0	0	0	508	507	278	188	
8	0	0	0	0	489	490	277	187	
9	0	0	0	0	532	482	277	187	
10	0	0	0	0	550	485	277	187	
11	0	0	0	0	544	477	277	185	
12	0	0	0	0	581	482	276	183	
13	0	0	0	0	541	513	277	185	
14	0	0	0	0	523	537	276	184	
15	0	0	0	0	547	517	276	184	
0	0	0	0	0	501	492	275	182	
1	0	0	0	0	427	508	276	184	
2	0	0	0	0	417	536	276	186	
3	0	0	0	0	434	536	276	185	
4	0	0	0	0	425	535	276	187	
5	0	0	0	0	450	522	276	188	
6	0	0	0	0	587	514	275	189	
7	0	0	0	0	595	507	276	188	
8	0	0	0	0	629	451	275	188	
9	0	0	0	0	611	417	276	186	
10	0	0	0	0	517	482	275	187	
11	0	0	0	0	477	534	274	185	
12	0	0	0	0	505	528	275	185	
13	0	0	0	0	480	531	274	187	
14	0	0	0	0	468	528	273	189	
15	0	0	0	0	485	502	274	188	
0	0	0	0	0	606	490	274	188	
1	0	0	0	0	614	511	273	188	
2	0	0	0	0	534	528	271	189	
3	0	0	0	0	452	524	272	189	
4	0	0	0	0	436	510	272	192	
5	0	0	0	0	466	501	271	192	
6	0	0	0	0	503	509	270	190	
7	0	0	0	0	498	515	269	191	
8	0	0	0	0	451	518	269	191	
9	0	0	0	0	413	512	268	192	
10	0	0	0	0	382	511	267	191	
11	0	0	0	0	428	507	266	192	
12	0	0	0	0	491	494	267	194	
13	0	0	0	0	673	491	265	192	
14	0	0	0	0	755	496	265	192	
15	0	0	0	0	648	512	264	192	
0	0	0	0	0	513	515	262	193	
1	0	0	0	0	537	515	262	190	
2	0	0	0	0	561	505	262	190	
3	0	0	0	0	527	509	260	193	
4	0	0	0	0	472	519	259	192	
5	0	0	0	0	430	518	259	192	
6	0	0	0	0	434	508	258	194	
7	0	0	0	0	490	502	256	194	
8	0	0	0	0	519	504	256	194	
9	0	0	0	0	573	504	255	195	
10	0	0	0	0	574	511	253	197	
11	0	0	0	0	513	513	252	196	
12	0	0	0	0	491	507	251	197	
13	0	0	0	0	489	506	250	199	
14	0	0	0	0	508	503	249	197	
15	0	0	0	0	427	507	247	197	
0	0	0	0	0	392	518	245	198	
1	0	0	0	0	430	512	242	199	
2	0	0	0	0	456	504	240	200	
3	0	0	0	0	481	502	239	200	
4	0	0	0	0	573	505	237	201	
5	0	0	0	0	580	511	236	199	
6	0	0	0	0	528	512	236	199	
7	0	0	0	0	500	513	235	201	
8	0	0	0	0	515	508	234	201	
9	0	0	0	0	599	511	231	202	
10	0	0	0	0	579	511	230	201	
11	0	0	0	0	496	500	229	202	
12	0	0	0	0	477	492	226	202	
13	0	0	0	0	474	507	225	202	
14	0	0	0	0	484	516	222	202	
15	0	0	0	0	456	511	222	202	
0	0	0	0	0	535	509	222	201	
1	0	0	0	0	611	509	220	202	
2	0	0	0	0	575	509	221	202	
3	0	0	0	0	556	508	220	201	
4	0	0	0	0	516	527	219	200	
5	0	0	0	0	459	524	215	200	
6	0	0	0	0	458	521	216	200	
7	0	0	0	0	480	504	217	199	
8	0	0	0	0	508	489	215	199	
9	0	0	0	0	494	492	214	199	
10	0	0	0	0	495	501	215	199	
11	0	0	0	0	491	502	214	199	
12	0	0	0	0	547	510	214	199	
13	0	0	0	0	519	507	211	199	
14	0	0	0	0	540	496	209	199	
15	0	0	0	0	593	492	210	199	
0	0	0	0	0	528	503	209	200	
1	0	0	0	0	476	507	209	200	
2	0	0	0	0	467	493	208	200	
3	0	0	0	0	477	507	208	201	
4	0	0	0	0	486	525	207	199	
5	0	0	0	0	508	517	207	200	
6	0	0	0	0	540	511	209	200	
7	0	0	0	0	475	506	209	200	
8	0	0	0	0	437	510	208	199	
9	0	0	0	0	598	515	209	199	
10	0	0	0	0	591	522	209	200	
11	0	0	0	0	479	519	209	201	
12	0	0	0	0	470	514	208	199	
13	0	0	0	0	508	507	209	201	
14	0	0	0	0	559	502	209	200	
15	0	0	0	0	568	502	209	199	
0	0	0	0	0	568	504	209	199	
1	0	0	0	0	520	504	208	200	
2	0	0	0	0	469	503	207	200	
3	0	0	0	0	455	512	207	201	
4	0	0	0	0	506	507	208	202	
5	0	0	0	0	527	515	208	201	
6	0	0	0	0	510	516	208	201	
7	0	0	0	0	504	512	208	201	
8	0	0	0	0	507	499	207	201	
9	0	0	0	0	465	502	206	202	
10	0	0	0	0	384	515	206	201	
11	0	0	0	0	382	512	208	202	
12	0	0	0	0	426	500	207	202	
13	0	0	0	0	583	509	208	204	
14	0	0	0	0	712	513	206	204	
15	0	0	0	0	595	498	206	202	
0	0	0	0	0	543	506	207	204	
1	0	0	0	0	499	511	206	203	
2	0	0	0	0	500	511	206	202	
3	0	0	0	0	512	521	204	202	
4	0	0	0	0	523	509	203	202	
5	0	0	0	0	493	489	201	201	
6	0	0	0	0	480	494	200	200	
7	0	0	0	0	504	511	198	199	
8	0	0	0	0	507	509	196	199	
9	0	0	0	0	451	510	195	199	
10	0	0	0	0	460	511	195	199	
11	0	0	0	0	534	514	195	198	
12	0	0	0	0	549	518	194	198	
13	0	0	0	0	583	503	194	196	
14	0	0	0	0	596	503	193	196	
15	0	0	0	0	562	513	194	195	
0	0	0	0	0	502	517	195	196	
1	0	0	0	0	473	509	194	194	
2	0	0	0	0	484	512	193	194	
3	0	0	0	0	498	518	194	193	
4	0	0	0	0	520	511	193	193	
5	0	0	0	0	511	507	194	192	
6	0	0	0	0	508	506	194	191	
7	0	0	0	0	492	493	192	192	
8	0	0	0	0	487	491	192	191	
9	0	0	0	0	512	504	191	194	
10	0	0	0	0	516	515	191	194	
11	0	0	0	0	509	508	190	194	
12	0	0	0	0	489	513	190	195	
13	0	0	0	0	435	511	188	193	
14	0	0	0	0	432	503	187	191	
15	0	0	0	0	470	513	191	192	
0	0	0	0	0	480	495	191	192	
1	0	0	0	0	604	505	189	192	
2	0	0	0	0	707	521	187	191	
3	0	0	0	0	558	513	189	192	
4	0	0	0	0	480	503	191	190	
5	0	0	0	0	449	495	188	191	
6	0	0	0	0	419	505	189	190	
7	0	0	0	0	472	509	189	189	
8	0	0	0	0	582	502	190	189	
9	0	0	0	0	624	514	188	188	
10	0	0	0	0	519	521	188	187	
11	0	0	0	0	474	512	188	187	
12	0	0	0	0	471	500	189	188	
13	0	0	0	0	453	496	191	188	
14	0	0	0	0	506	496	190	190	
15	0	0	0	0	601	505	191	188	
0	0	0	0	0	566	526	191	188	
1	0	0	0	0	565	526	194	189	
2	0	0	0	0	512	517	194	188	
3	0	0	0	0	466	505	193	189	
4	0	0	0	0	487	499	193	189	
5	0	0	0	0	533	497	193	189	
6	0	0	0	0	513	500	193	190	
7	0	0	0	0	450	508	193	189	
8	0	0	0	0	442	510	193	189	
9	0	0	0	0	440	505	196	191	
10	0	0	0	0	451	509	196	190	
11	0	0	0	0	481	517	196	190	
12	0	0	0	0	496	515	193	190	
13	0	0	0	0	524	512	193	190	
14	0	0	0	0	618	511	195	190	
15	0	0	0	0	630	511	199	190	
0	0	0	0	0	531	513	201	191	
1	0	0	0	0	453	504	199	191	
2	0	0	0	0	486	510	202	190	
3	0	0	0	0	548	514	199	190	
4	0	0	0	0	575	504	200	191	
5	0	0	0	0	525	503	200	191	
6	0	0	0	0	514	513	198	191	
7	0	0	0	0	517	512	198	192	
8	0	0	0	0	511	507	200	192	
9	0	0	0	0	482	506	199	191	
10	0	0	0	0	494	503	202	191	
11	0	0	0	0	495	495	201	191	
12	0	0	0	0	481	498	204	191	
13	0	0	0	0	502	505	205	191	
14	0	0	0	0	508	514	204	190	
15	0	0	0	0	459	511	205	190	
0	0	0	0	0	476	512	204	190	
1	0	0	0	0	522	510	207	189	
2	0	0	0	0	529	505	208	189	
3	0	0	0	0	538	505	208	188	
4	0	0	0	0	502	510	208	187	
5	0	0	0	0	428	514	209	187	
6	0	0	0	0	425	509	210	187	
7	0	0	0	0	498	510	210	187	
8	0	0	0	0	631	505	211	187	
9	0	0	0	0	755	509	210	184	
10	0	0	0	0	598	508	210	184	
11	0	0	0	0	508	502	211	184	
12	0	0	0	0	480	507	212	183	
13	0	0	0	0	474	512	212	182	
14	0	0	0	0	460	514	214	182	
15	0	0	0	0	452	513	213	183	
0	0	0	0	0	476	508	214	184	
1	0	0	0	0	505	507	214	182	
2	0	0	0	0	504	508	215	182	
3	0	0	0	0	482	516	214	183	
4	0	0	0	0	494	514	214	183	
5	0	0	0	0	482	511	213	183	
6	0	0	0	0	537	507	214	182	
7	0	0	0	0	606	503	215	182	
8	0	0	0	0	551	489	215	182	
9	0	0	0	0	512	487	217	182	
10	0	0	0	0	502	497	216	183	
11	0	0	0	0	479	508	216	182	
12	0	0	0	0	480	512	217	183	
13	0	0	0	0	461	516	217	183	
14	0	0	0	0	448	510	218	184	
15	0	0	0	0	496	514	218	184	
0	0	0	0	0	474	519	218	185	
1	0	0	0	0	513	521	219	184	
2	0	0	0	0	558	512	219	184	
3	0	0	0	0	628	500	220	184	
4	0	0	0	0	594	504	219	184	
5	0	0	0	0	526	503	219	184	
6	0	0	0	0	500	504	219	184	
7	0	0	0	0	484	503	218	184	
8	0	0	0	0	464	515	217	183	
9	0	0	0	0	475	522	217	186	
10	0	0	0	0	514	515	217	186	
11	0	0	0	0	539	510	217	184	
12	0	0	0	0	521	503	216	182	
13	0	0	0	0	518	500	216	182	
14	0	0	0	0	494	490	215	182	
15	0	0	0	0	482	496	216	179	
0	0	0	0	0	483	506	214	180	
1	0	0	0	0	500	509	215	178	
2	0	0	0	0	547	510	214	179	
3	0	0	0	0	543	512	214	178	
4	0	0	0	0	513	518	213	176	
5	0	0	0	0	493	515	212	177	
6	0	0	0	0	495	502	211	176	
7	0	0	0	0	497	506	211	175	
8	0	0	0	0	487	521	209	176	
9	0	0	0	0	477	508	209	173	
10	0	0	0	0	500	504	209	173	
11	0	0	0	0	541	512	207	173	
12	0	0	0	0	554	498	207	174	
13	0	0	0	0	571	505	207	174	
14	0	0	0	0	513	510	205	175	
15	0	0	0	0	472	510	205	174	
0	0	0	0	0	460	519	204	172	
1	0	0	0	0	480	515	206	174	
2	0	0	0	0	546	508	206	172	
3	0	0	0	0	585	507	206	172	
4	0	0	0	0	526	518	207	172	
5	0	0	0	0	480	523	207	172	
6	0	0	0	0	502	521	206	170	
7	0	0	0	0	545	500	205	172	
8	0	0	0	0	558	493	205	178	
9	0	0	0	0	512	484	208	187	
10	0	0	0	0	503	481	208	187	
11	0	0	0	0	493	484	209	187	
12	0	0	0	0	490	509	212	191	
13	0	0	0	0	505	516	211	190	
14	0	0	0	0	473	513	211	187	
15	0	0	0	0	491	514	212	188	
0	0	0	0	0	504	514	211	184	
1	0	0	0	0	521	512	214	184	
2	0	0	0	0	540	509	211	188	
3	0	0	0	0	511	509	212	189	
4	0	0	0	0	527	518	212	183	
5	0	0	0	0	530	520	216	179	
6	0	0	0	0	511	510	216	179	
7	0	0	0	0	496	509	216	177	
8	0	0	0	0	491	508	215	177	
9	0	0	0	0	519	503	219	176	
10	0	0	0	0	530	502	217	176	
11	0	0	0	0	520	502	217	173	
12	0	0	0	0	524	506	216	173	
13	0	0	0	0	504	504	216	171	
14	0	0	0	0	509	505	213	171	
15	0	0	0	0	497	511	214	170	
0	0	0	0	0	495	511	214	165	
1	0	0	0	0	499	510	212	163	
2	0	0	0	0	515	509	213	153	
3	0	0	0	0	500	511	213	147	
4	0	0	0	0	521	508	212	147	
5	0	0	0	0	537	510	211	146	
6	0	0	0	0	515	510	210	145	
7	0	0	0	0	479	509	210	143	
8	0	0	0	0	467	507	209	142	
9	0	0	0	0	486	506	210	142	
10	0	0	0	0	511	508	213	143	
11	0	0	0	0	529	504	217	139	
12	0	0	0	0	531	506	211	139	
13	0	0	0	0	523	511	212	136	
14	0	0	0	0	508	509	216	134	
15	0	0	0	0	506	507	214	132	
0	0	0	0	0	509	505	216	124	
1	0	0	0	0	516	509	218	118	
2	0	0	0	0	530	509	212	118	
3	0	0	0	0	528	508	211	115	
4	0	0	0	0	509	508	210	115	
5	0	0	0	0	498	508	210	114	
6	0	0	0	0	496	510	208	110	
7	0	0	0	0	504	513	205	105	
8	0	0	0	0	528	506	208	107	
9	0	0	0	0	514	507	202	105	
10	0	0	0	0	508	510	200	103	
11	0	0	0	0	505	506	200	101	
12	0	0	0	0	505	508	200	106	
13	0	0	0	0	519	509	200	89	
14	0	0	0	0	535	511	200	90	
15	0	0	0	0	515	508	201	82	
0	0	0	0	0	498	506	197	78	
1	0	0	0	0	494	506	198	74	
2	0	0	0	0	513	509	197	74	
3	0	0	0	0	534	507	197	72	
4	0	0	0	0	518	507	197	70	
5	0	0	0	0	503	508	198	69	
6	0	0	0	0	507	505	196	70	
7	0	0	0	0	540	508	196	71	
8	0	0	0	0	536	507	196	72	
9	0	0	0	0	503	510	196	74	
10	0	0	0	0	502	513	195	71	
11	0	0	0	0	502	511	194	67	
12	0	0	0	0	503	505	193	66	
13	0	0	0	0	508	507	193	58	
14	0	0	0	0	501	511	193	52	
15	0	0	0	0	501	515	192	55	
0	0	0	0	0	507	511	193	50	
1	0	0	0	0	506	506	192	54	
2	0	0	0	0	511	507	191	51	
3	0	0	0	0	516	505	192	52	
4	0	0	0	0	511	505	191	50	
5	0	0	0	0	521	507	191	39	
6	0	0	0	0	519	510	192	41	
7	0	0	0	0	504	507	189	44	
8	0	0	0	0	501	508	189	44	
9	0	0	0	0	502	505	188	45	
10	0	0	0	0	507	506	186	41	
11	0	0	0	0	508	509	185	39	
12	0	0	0	0	514	510	184	36	
13	0	0	0	0	516	507	183	34	
14	0	0	0	0	511	505	181	36	
15	0	0	0	0	505	508	181	32	
0	0	0	0	0	514	509	180	32	
1	0	0	0	0	515	512	178	27	
2	0	0	0	0	515	512	177	25	
3	0	0	0	0	514	508	175	28	
4	0	0	0	0	515	507	173	29	
5	0	0	0	0	510	507	168	28	
6	0	0	0	0	511	508	167	24	
7	0	0	0	0	511	509	164	27	
8	0	0	0	0	515	507	165	24	
9	0	0	0	0	515	506	163	24	
10	0	0	0	0	512	510	159	24	
11	0	0	0	0	507	507	159	24	
12	0	0	0	0	504	505	159	19	
13	0	0	0	0	510	507	156	17	
14	0	0	0	0	510	505	154	23	
15	0	0	0	0	510	508	151	17	
0	0	0	0	0	512	509	149	16	
1	0	0	0	0	511	510	143	16	
2	0	0	0	0	512	512	134	14	
3	0	0	0	0	514	507	115	13	
4	0	0	0	0	514	508	89	13	
5	0	0	0	0	515	508	85	13	
6	0	0	0	0	512	507	84	12	
7	0	0	0	0	514	509	84	11	
8	0	0	0	0	512	508	83	9	
9	0	0	0	0	508	508	81	9	
10	0	0	0	0	511	511	83	9	
11	0	0	0	0	509	508	83	9	
12	0	0	0	0	508	510	81	8	
13	0	0	0	0	511	508	84	7	
14	0	0	0	0	511	507	84	7	
15	0	0	0	0	513	506	84	6	
0	0	0	0	0	513	505	83	5	
1	0	0	0	0	516	507	81	5	
2	0	0	0	0	511	507	82	5	
3	0	0	0	0	509	506	85	4	
4	0	0	0	0	506	505	82	0	
5	0	0	0	0	503	504	84	0	
6	0	0	0	0	504	505	84	0	
7	0	0	0	0	507	509	83	0	
8	0	0	0	0	506	510	83	0	
9	0	0	0	0	503	511	81	0	
10	0	0	0	0	499	513	81	0	
11	0	0	0	0	513	511	82	0	
12	0	0	0	0	517	512	84	0	
13	0	0	0	0	517	509	79	0	
14	0	0	0	0	518	509	81	0	
15	0	0	0	0	518	511	80	0	
0	0	0	0	0	517	507	80	0	
1	0	0	0	0	515	507	80	0	
2	0	0	0	0	514	506	79	0	
3	0	0	0	0	511	507	78	0	
4	0	0	0	0	509	507	77	0	
5	0	0	0	0	510	506	78	0	
6	0	0	0	0	509	506	78	0	
7	0	0	0	0	508	509	78	0	
8	0	0	0	0	508	507	76	0	
9	0	0	0	0	512	509	76	0	
10	0	0	0	0	512	509	76	0	
11	0	0	0	0	511	510	75	0	
12	0	0	0	0	515	509	74	0	
13	0	0	0	0	516	509	73	0	
14	0	0	0	0	515	508	73	0	
15	0	0	0	0	516	509	75	0	
0	0	0	0	0	518	509	72	0	
1	0	0	0	0	517	509	71	0	
2	0	0	0	0	515	509	71	0	
3	0	0	0	0	514	509	70	0	
4	0	0	0	0	512	507	67	0	
5	0	0	0	0	513	508	66	0	
6	0	0	0	0	508	506	64	0	
7	0	0	0	0	507	507	61	0	
8	0	0	0	0	507	507	59	0	
9	0	0	0	0	508	508	56	0	
10	0	0	0	0	507	508	55	0	
11	0	0	0	0	506	507	50	0	
12	0	0	0	0	508	508	44	0	
13	0	0	0	0	508	508	28	0	
14	0	0	0	0	511	508	5	0	
15	0	0	0	0	511	508	2	0	
0	0	0	0	0	513	510	0	0	
1	0	0	0	0	514	509	0	0	
2	0	0	0	0	514	508	0	0	
3	0	0	0	0	515	510	0	0	
4	0	0	0	0	515	510	0	0	
5	0	0	0	0	515	510	0	0	
6	0	0	0	0	513	508	0	0	
7	0	0	0	0	511	507	0	0	
8	0	0	0	0	510	508	0	0	
9	0	0	0	0	511	506	0	0	
10	0	0	0	0	510	506	0	0	
11	0	0	0	0	510	506	0	0	
12	0	0	0	0	509	506	0	0	
13	0	0	0	0	505	507	0	0	
14	0	0	0	0	505	507	0	0	
15	0	0	0	0	505	508	0	0	
0	0	0	0	0	505	508	0	0	
1	0	0	0	0	508	509	0	0	
2	0	0	0	0	507	509	0	0	
3	0	0	0	0	511	509	0	0	
4	0	0	0	0	511	510	0	0	
5	0	0	0	0	515	510	0	0	
6	0	0	0	0	517	508	0	0	
7	0	0	0	0	518	508	0	0	
8	0	0	0	0	516	512	0	0	
9	0	0	0	0	515	507	0	0	
10	0	0	0	0	513	507	0	0	
11	0	0	0	0	514	507	0	0	
12	0	0	0	0	513	505	0	0	
13	0	0	0	0	510	508	0	0	
14	0	0	0	0	509	509	0	0	
15	0	0	0	0	508	505	0	0	
0	0	0	0	0	506	508	0	0	
1	0	0	0	0	505	509	0	0	
2	0	0	0	0	506	509	0	0	
3	0	0	0	0	506	506	0	0	
4	0	0	0	0	508	509	0	0	
5	0	0	0	0	508	508	0	0	
6	0	0	0	0	510	507	0	0	
7	0	0	0	0	509	508	0	0	
8	0	0	0	0	511	510	0	0	
9	0	0	0	0	514	510	0	0	
10	0	0	0	0	516	511	0	0	
11	0	0	0	0	514	509	0	0	
12	0	0	0	0	516	509	0	0	
13	0	0	0	0	516	507	0	0	
14	0	0	0	0	518	508	0	0	
15	0	0	0	0	515	508	0	0	
0	0	0	0	0	513	506	0	0	
1	0	0	0	0	512	505	0	0	
2	0	0	0	0	509	505	0	0	
3	0	0	0	0	507	504	0	0	
4	0	0	0	0	506	505	0	0	
5	0	0	0	0	508	507	0	0	
6	0	0	0	0	507	508	0	0	
7	0	0	0	0	507	510	0	0	
8	0	0	0	0	508	507	0	0	
9	0	0	0	0	508	508	0	0	
10	0	0	0	0	508	510	0	0	
11	0	0	0	0	509	508	0	0	
12	0	0	0	0	511	509	0	0	
13	0	0	0	0	515	510	0	0	
14	0	0	0	0	514	507	0	0	
15	0	0	0	0	515	510	0	0	
0	0	0	0	0	519	510	0	0	
1	0	0	0	0	518	508	0	0	
2	0	0	0	0	515	510	0	0	
3	0	0	0	0	513	509	0	0	
4	0	0	0	0	510	507	0	0	
5	0	0	0	0	511	507	0	0	
6	0	0	0	0	510	508	0	0	
7	0	0	0	0	507	505	0	0	
8	0	0	0	0	506	506	0	0	
9	0	0	0	0	507	507	0	0	
10	0	0	0	0	507	507	0	0	
11	0	0	0	0	507	507	0	0	
12	0	0	0	0	509	507	0	0	
13	0	0	0	0	508	508	0	0	
14	0	0	0	0	511	508	0	0	
15	0	0	0	0	511	510	0	0	
0	0	0	0	0	514	511	0	0	
1	0	0	0	0	515	508	0	0	
2	0	0	0	0	516	507	0	0	
3	0	0	0	0	515	509	0	0	
4	0	0	0	0	516	508	0	0	
5	0	0	0	0	516	510	0	0	
6	0	0	0	0	515	507	0	0	
7	0	0	0	0	511	506	0	0	
8	0	0	0	0	510	509	0	0	
9	0	0	0	0	511	508	0	0	
10	0	0	0	0	510	508	0	0	
11	0	0	0	0	509	507	0	0	
12	0	0	0	0	508	507	0	0	
13	0	0	0	0	508	506	0	0	
14	0	0	0	0	505	506	0	0	
15	0	0	0	0	508	508	0	0	
0	0	0	0	0	505	508	0	0	
1	0	0	0	0	510	508	0	0	
2	0	0	0	0	511	509	0	0	
3	0	0	0	0	510	509	0	0	
4	0	0	0	0	512	510	0	0	
5	0	0	0	0	514	511	0	0	
6	0	0	0	0	516	507	0	0	
7	0	0	0	0	516	511	0	0	
8	0	0	0	0	515	509	0	0	
9	0	0	0	0	516	509	0	0	
10	0	0	0	0	514	508	0	0	
11	0	0	0	0	513	508	0	0	
12	0	0	0	0	514	506	0	0	
13	0	0	0	0	510	507	0	0	
14	0	0	0	0	508	506	0	0	
15	0	0	0	0	508	508	0	0	
0	0	0	0	0	508	508	0	0	
1	0	0	0	0	506	508	0	0	
2	0	0	0	0	505	506	0	0	
3	0	0	0	0	505	509	0	0	
4	0	0	0	0	507	508	0	0	
5	0	0	0	0	508	507	0	0	
6	0	0	0	0	510	508	0	0	
7	0	0	0	0	511	508	0	0	
8	0	0	0	0	513	509	0	0	
9	0	0	0	0	515	509	0	0	
10	0	0	0	0	516	508	0	0	
11	0	0	0	0	513	508	0	0	
12	0	0	0	0	516	510	0	0	
13	0	0	0	0	516	510	0	0	
14	0	0	0	0	514	511	0	0	
15	0	0	0	0	513	508	0	0	
0	0	0	0	0	511	507	0	0	
1	0	0	0	0	509	508	0	0	
2	0	0	0	0	509	509	0	0	
3	0	0	0	0	507	507	0	0	
4	0	0	0	0	507	505	0	0	
5	0	0	0	0	506	506	0	0	
6	0	0	0	0	504	507	0	0	
7	0	0	0	0	508	508	0	0	
8	0	0	0	0	509	508	0	0	
9	0	0	0	0	509	510	0	0	
10	0	0	0	0	510	508	0	0	
11	0	0	0	0	511	508	0	0	
12	0	0	0	0	513	511	0	0	
13	0	0	0	0	515	511	0	0	
14	0	0	0	0	515	508	0	0	
15	0	0	0	0	516	508	0	0	
0	0	0	0	0	517	508	0	0	
1	0	0	0	0	516	508	0	0	
2	0	0	0	0	514	507	0	0	
3	0	0	0	0	513	507	0	0	
4	0	0	0	0	513	509	0	0	
5	0	0	0	0	512	508	0	0	
6	0	0	0	0	512	508	0	0	
7	0	0	0	0	508	506	0	0	
8	0	0	0	0	508	508	0	0	
9	0	0	0	0	505	508	0	0	
10	0	0	0	0	505	507	0	0	
11	0	0	0	0	508	505	0	0	
12	0	0	0	0	507	507	0	0	
13	0	0	0	0	508	508	0	0	
14	0	0	0	0	507	509	0	0	
15	0	0	0	0	510	509	0	0	
0	0	0	0	0	514	509	0	0	
1	0	0	0	0	514	508	0	0	
2	0	0	0	0	513	508	0	0	
3	0	0	0	0	514	509	0	0	
4	0	0	0	0	516	508	0	0	
5	0	0	0	0	517	509	0	0	
6	0	0	0	0	515	508	0	0	
7	0	0	0	0	513	507	0	0	
8	0	0	0	0	514	507	0	0	
9	0	0	0	0	512	509	0	0	
10	0	0	0	0	509	507	0	0	
11	0	0	0	0	507	507	0	0	
12	0	0	0	0	508	507	0	0	
13	0	0	0	0	505	506	0	0	
14	0	0	0	0	508	507	0	0	
15	0	0	0	0	505	508	0	0	
0	0	0	0	0	509	507	0	0	
1	0	0	0	0	509	507	0	0	
2	0	0	0	0	509	508	0	0	
3	0	0	0	0	509	508	0	0	
4	0	0	0	0	515	509	0	0	
5	0	0	0	0	513	508	0	0	
6	0	0	0	0	513	508	0	0	
7	0	0	0	0	516	508	0	0	
8	0	0	0	0	516	510	0	0	
9	0	0	0	0	515	510	0	0	
10	0	0	0	0	515	508	0	0	
11	0	0	0	0	515	508	0	0	
12	0	0	0	0	512	509	0	0	
13	0	0	0	0	509	507	0	0	
14	0	0	0	0	509	505	0	0	
15	0	0	0	0	508	507	0	0	
0	0	0	0	0	507	507	0	0	
1	0	0	0	0	505	508	0	0	
2	0	0	0	0	504	505	0	0	
3	0	0	0	0	504	508	0	0	
4	0	0	0	0	506	509	0	0	
5	0	0	0	0	508	507	0	0	
6	0	0	0	0	509	509	0	0	
7	0	0	0	0	511	509	0	0	
8	0	0	0	0	515	509	0	0	
9	0	0	0	0	515	510	0	0	
10	0	0	0	0	513	510	0	0	
11	0	0	0	0	517	508	0	0	
12	0	0	0	0	519	510	0	0	
13	0	0	0	0	516	508	0	0	
14	0	0	0	0	515	506	0	0	
15	0	0	0	0	512	508	0	0	
0	0	0	0	0	514	509	0	0	
1	0	0	0	0	511	507	0	0	
2	0	0	0	0	507	508	0	0	
3	0	0	0	0	508	507	0	0	
4	0	0	0	0	508	508	0	0	
5	0	0	0	0	506	507	0	0	
6	0	0	0	0	505	508	0	0	
7	0	0	0	0	506	508	0	0	
8	0	0	0	0	508	511	0	0	
9	0	0	0	0	508	507	0	0	
10	0	0	0	0	508	508	0	0	
11	0	0	0	0	510	508	0	0	
12	0	0	0	0	513	506	0	0	
13	0	0	0	0	514	509	0	0	
14	0	0	0	0	515	511	0	0	
15	0	0	0	0	515	508	0	0	
0	0	0	0	0	516	509	0	0	
1	0	0	0	0	517	510	0	0	
2	0	0	0	0	518	511	0	0	
3	0	0	0	0	513	510	0	0	
4	0	0	0	0	513	508	0	0	
5	0	0	0	0	511	507	0	0	
6	0	0	0	0	508	508	0	0	
7	0	0	0	0	505	507	0	0	
8	0	0	0	0	509	506	0	0	
9	0	0	0	0	509	508	0	0	
10	0	0	0	0	509	506	0	0	
11	0	0	0	0	506	506	0	0	
12	0	0	0	0	508	508	0	0	
13	0	0	0	0	509	507	0	0	
14	0	0	0	0	509	507	0	0	
15	0	0	0	0	510	507	0	0	
0	0	0	0	0	511	508	0	0	
1	0	0	0	0	512	509	0	0	
2	0	0	0	0	515	509	0	0	
3	0	0	0	0	516	511	0	0	
4	0	0	0	0	517	508	0	0	
5	0	0	0	0	517	508	0	0	
6	0	0	0	0	515	509	0	0	
7	0	0	0	0	514	509	0	0	
8	0	0	0	0	514	507	0	0	
9	0	0	0	0	510	508	0	0	
10	0	0	0	0	510	509	0	0	
11	0	0	0	0	507	507	0	0	
12	0	0	0	0	506	509	0	0	
13	0	0	0	0	507	508	0	0	
14	0	0	0	0	504	508	0	0	
15	0	0	0	0	508	506	0	0	
0	0	0	0	0	508	509	0	0	
1	0	0	0	0	509	508	0	0	
2	0	0	0	0	509	505	0	0	
3	0	0	0	0	509	509	0	0	
4	0	0	0	0	510	511	0	0	
5	0	0	0	0	514	508	0	0	
6	0	0	0	0	515	508	0	0	
7	0	0	0	0	519	508	0	0	
8	0	0	0	0	518	512	0	0	
9	0	0	0	0	516	509	0	0	
10	0	0	0	0	515	508	0	0	
11	0	0	0	0	512	505	0	0	
12	0	0	0	0	512	507	0	0	
13	0	0	0	0	510	508	0	0	
14	0	0	0	0	510	509	0	0	
15	0	0	0	0	506	509	0	0	
0	0	0	0	0	509	508	0	0	
1	0	0	0	0	508	506	0	0	
2	0	0	0	0	507	507	0	0	
3	0	0	0	0	505	506	0	0	
4	0	0	0	0	506	506	0	0	
5	0	0	0	0	507	508	0	0	
6	0	0	0	0	509	509	0	0	
7	0	0	0	0	512	508	0	0	
8	0	0	0	0	511	510	0	0	
9	0	0	0	0	515	509	0	0	
10	0	0	0	0	519	509	0	0	
11	0	0	0	0	518	508	0	0	
12	0	0	0	0	520	507	0	0	
13	0	0	0	0	518	508	0	0	
14	0	0	0	0	518	507	0	0	
15	0	0	0	0	514	508	0	0	
0	0	0	0	0	512	508	0	0	
1	0	0	0	0	509	510	0	0	
2	0	0	0	0	507	509	0	0	
3	0	0	0	0	509	506	0	0	
4	0	0	0	0	509	506	0	0	
5	0	0	0	0	506	506	0	0	
6	0	0	0	0	503	507	0	0	
7	0	0	0	0	504	506	0	0	
8	0	0	0	0	508	507	0	0	
9	0	0	0	0	508	506	0	0	
10	0	0	0	0	506	511	0	0	
11	0	0	0	0	512	508	0	0	
12	0	0	0	0	514	509	0	0	
13	0	0	0	0	515	510	0	0	
14	0	0	0	0	515	509	0	0	
15	0	0	0	0	516	509	0	0	
0	0	0	0	0	520	510	0	0	
1	0	0	0	0	519	508	0	0	
2	0	0	0	0	516	506	0	0	
3	0	0	0	0	515	509	0	0	
4	0	0	0	0	510	509	0	0	
5	0	0	0	0	511	507	0	0	
6	0	0	0	0	508	505	0	0	
7	0	0	0	0	507	507	0	0	
8	0	0	0	0	504	507	0	0	
9	0	0	0	0	504	508	0	0	
10	0	0	0	0	505	506	0	0	
11	0	0	0	0	506	508	0	0	
12	0	0	0	0	508	507	0	0	
13	0	0	0	0	509	508	0	0	
14	0	0	0	0	510	510	0	0	
15	0	0	0	0	512	508	0	0	
0	0	0	0	0	512	508	0	0	
1	0	0	0	0	515	510	0	0	
2	0	0	0	0	515	507	0	0	
3	0	0	0	0	518	510	0	0	
4	0	0	0	0	517	510	0	0	
5	0	0	0	0	516	508	0	0	
6	0	0	0	0	516	508	0	0	
7	0	0	0	0	515	509	0	0	
8	0	0	0	0	511	509	0	0	
9	0	0	0	0	513	510	0	0	
10	0	0	0	0	511	508	0	0	
11	0	0	0	0	508	507	0	0	
12	0	0	0	0	505	508	0	0	
13	0	0	0	0	505	506	0	0	
14	0	0	0	0	504	507	0	0	
15	0	0	0	0	506	506	0	0	
0	0	0	0	0	507	508	0	0	
1	0	0	0	0	508	508	0	0	
2	0	0	0	0	509	507	0	0	
3	0	0	0	0	509	508	0	0	
4	0	0	0	0	513	509	0	0	
5	0	0	0	0	513	509	0	0	
6	0	0	0	0	514	508	0	0	
7	0	0	0	0	516	510	0	0	
8	0	0	0	0	519	511	0	0	
9	0	0	0	0	517	507	0	0	
10	0	0	0	0	516	508	0	0	
11	0	0	0	0	515	507	0	0	
12	0	0	0	0	513	507	0	0	
13	0	0	0	0	512	508	0	0	
14	0	0	0	0	509	507	0	0	
15	0	0	0	0	507	506	0	0	
0	0	0	0	0	507	507	0	0	
1	0	0	0	0	505	506	0	0	
2	0	0	0	0	506	507	0	0	
3	0	0	0	0	505	508	0	0	
4	0	0	0	0	506	509	0	0	
5	0	0	0	0	508	511	0	0	
6	0	0	0	0	508	508	0	0	
7	0	0	0	0	510	510	0	0	
8	0	0	0	0	512	506	0	0	
9	0	0	0	0	517	510	0	0	
10	0	0	0	0	515	509	0	0	
11	0	0	0	0	515	509	0	0	
12	0	0	0	0	517	510	0	0	
13	0	0	0	0	518	507	0	0	
14	0	0	0	0	518	508	0	0	
15	0	0	0	0	515	508	0	0	
0	0	0	0	0	515	507	0	0	
1	0	0	0	0	512	508	0	0	
2	0	0	0	0	511	506	0	0	
3	0	0	0	0	506	505	0	0	
4	0	0	0	0	504	507	0	0	
5	0	0	0	0	506	507	0	0	
6	0	0	0	0	504	506	0	0	
7	0	0	0	0	505	510	0	0	
8	0	0	0	0	505	508	0	0	
9	0	0	0	0	506	509	0	0	
10	0	0	0	0	508	508	0	0	
11	0	0	0	0	509	509	0	0	
12	0	0	0	0	512	509	0	0	
13	0	0	0	0	516	508	0	0	
14	0	0	0	0	515	511	0	0	
15	0	0	0	0	516	508	0	0	
0	0	0	0	0	519	510	0	0	
1	0	0	0	0	517	508	0	0	
2	0	0	0	0	517	510	0	0	
3	0	0	0	0	516	507	0	0	
4	0	0	0	0	516	508	0	0	
5	0	0	0	0	509	508	0	0	
6	0	0	0	0	507	507	0	0	
7	0	0	0	0	506	507	0	0	
8	0	0	0	0	508	507	0	0	
9	0	0	0	0	504	507	0	0	
10	0	0	0	0	504	507	0	0	
11	0	0	0	0	505	507	0	0	
12	0	0	0	0	503	508	0	0	
13	0	0	0	0	505	507	0	0	
14	0	0	0	0	508	508	0	0	
15	0	0	0	0	510	509	0	0	
0	0	0	0	0	513	508	0	0	
1	0	0	0	0	516	511	0	0	
2	0	0	0	0	516	508	0	0	
3	0	0	0	0	516	510	0	0	
4	0	0	0	0	518	509	0	0	
5	0	0	0	0	517	508	0	0	
6	0	0	0	0	516	509	0	0	
7	0	0	0	0	514	509	0	0	
8	0	0	0	0	514	505	0	0	
9	0	0	0	0	511	506	0	0	
10	0	0	0	0	508	507	0	0	
11	0	0	0	0	505	507	0	0	
12	0	0	0	0	506	507	0	0	
13	0	0	0	0	506	506	0	0	
14	0	0	0	0	506	508	0	0	
15	0	0	0	0	504	507	0	0	
0	0	0	0	0	505	507	0	0	
1	0	0	0	0	509	509	0	0	
2	0	0	0	0	510	509	0	0	
3	0	0	0	0	509	509	0	0	
4	0	0	0	0	514	508	0	0	
5	0	0	0	0	513	508	0	0	
6	0	0	0	0	514	509	0	0	
7	0	0	0	0	519	509	0	0	
8	0	0	0	0	520	508	0	0	
9	0	0	0	0	518	508	0	0	
10	0	0	0	0	519	508	0	0	
11	0	0	0	0	514	508	0	0	
12	0	0	0	0	512	508	0	0	
13	0	0	0	0	512	507	0	0	
14	0	0	0	0	510	507	0	0	
15	0	0	0	0	509	507	0	0	
0	0	0	0	0	506	508	0	0	
1	0	0	0	0	506	507	0	0	
2	0	0	0	0	504	507	0	0	
3	0	0	0	0	504	507	0	0	
4	0	0	0	0	505	505	0	0	
5	0	0	0	0	507	506	0	0	
6	0	0	0	0	510	511	0	0	
7	0	0	0	0	512	509	0	0	
8	0	0	0	0	511	508	0	0	
9	0	0	0	0	516	509	0	0	
10	0	0	0	0	515	509	0	0	
11	0	0	0	0	516	510	0	0	
12	0	0	0	0	519	508	0	0	
13	0	0	0	0	518	509	0	0	
14	0	0	0	0	517	508	0	0	
15	0	0	0	0	515	508	0	0	
0	0	0	0	0	511	508	0	0	
1	0	0	0	0	511	510	0	0	
2	0	0	0	0	509	507	0	0	
3	0	0	0	0	506	506	0	0	
4	0	0	0	0	504	504	0	0	
5	0	0	0	0	507	507	0	0	
6	0	0	0	0	505	505	0	0	
7	0	0	0	0	505	508	0	0	
8	0	0	0	0	504	509	0	0	
9	0	0	0	0	505	510	0	0	
10	0	0	0	0	508	509	0	0	
11	0	0	0	0	511	508	0	0	
12	0	0	0	0	511	507	0	0	
13	0	0	0	0	515	508	0	0	
14	0	0	0	0	515	509	0	0	
15	0	0	0	0	516	508	0	0	
0	0	0	0	0	519	510	0	0	
1	0	0	0	0	518	509	0	0	
2	0	0	0	0	516	508	0	0	
3	0	0	0	0	514	509	0	0	
4	0	0	0	0	515	508	0	0	
5	0	0	0	0	510	508	0	0	
6	0	0	0	0	509	508	0	0	
7	0	0	0	0	507	505	0	0	
8	0	0	0	0	508	508	0	0	
9	0	0	0	0	506	508	0	0	
10	0	0	0	0	506	508	0	0	
11	0	0	0	0	506	506	0	0	
12	0	0	0	0	505	507	0	0	
13	0	0	0	0	505	507	0	0	
14	0	0	0	0	508	509	0	0	
15	0	0	0	0	512	508	0	0	
0	0	0	0	0	511	508	0	0	
1	0	0	0	0	518	510	0	0	
2	0	0	0	0	517	511	0	0	
3	0	0	0	0	518	509	0	0	
4	0	0	0	0	517	508	0	0	
5	0	0	0	0	517	508	0	0	
6	0	0	0	0	517	508	0	0	
7	0	0	0	0	515	507	0	0	
8	0	0	0	0	513	508	0	0	
9	0	0	0	0	512	506	0	0	
10	0	0	0	0	510	507	0	0	
11	0	0	0	0	505	508	0	0	
12	0	0	0	0	507	508	0	0	
13	0	0	0	0	507	506	0	0	
14	0	0	0	0	504	507	0	0	
15	0	0	0	0	505	509	0	0	
0	0	0	0	0	505	507	0	0	
1	0	0	0	0	508	507	0	0	
2	0	0	0	0	508	509	0	0	
3	0	0	0	0	509	508	0	0	
4	0	0	0	0	511	508	0	0	
5	0	0	0	0	515	509	0	0	
6	0	0	0	0	515	508	0	0	
7	0	0	0	0	516	509	0	0	
8	0	0	0	0	519	510	0	0	
9	0	0	0	0	519	508	0	0	
10	0	0	0	0	518	507	0	0	
11	0	0	0	0	514	507	0	0	
12	0	0	0	0	512	509	0	0	
13	0	0	0	0	512	507	0	0	
14	0	0	0	0	510	508	0	0	
15	0	0	0	0	508	508	0	0	
0	0	0	0	0	505	508	0	0	
1	0	0	0	0	506	507	0	0	
2	0	0	0	0	503	506	0	0	
3	0	0	0	0	504	508	0	0	
4	0	0	0	0	504	509	0	0	
5	0	0	0	0	505	507	0	0	
6	0	0	0	0	508	508	0	0	
7	0	0	0	0	512	508	0	0	
8	0	0	0	0	513	508	0	0	
9	0	0	0	0	518	507	0	0	
10	0	0	0	0	517	507	0	0	
11	0	0	0	0	519	510	0	0	
12	0	0	0	0	519	511	0	0	
13	0	0	0	0	517	507	0	0	
14	0	0	0	0	516	507	0	0	
15	0	0	0	0	515	511	0	0	
0	0	0	0	0	513	507	0	0	
1	0	0	0	0	510	509	0	0	
2	0	0	0	0	506	507	0	0	
3	0	0	0	0	507	507	0	0	
4	0	0	0	0	506	507	0	0	
5	0	0	0	0	504	508	0	0	
6	0	0	0	0	503	506	0	0	
7	0	0	0	0	506	508	0	0	
8	0	0	0	0	505	509	0	0	
9	0	0	0	0	507	506	0	0	
10	0	0	0	0	508	510	0	0	
11	0	0	0	0	511	507	0	0	
12	0	0	0	0	511	509	0	0	
13	0	0	0	0	515	510	0	0	
14	0	0	0	0	516	511	0	0	
15	0	0	0	0	518	510	0	0	
0	0	0	0	0	521	509	0	0	
1	0	0	0	0	519	509	0	0	
2	0	0	0	0	517	509	0	0	
3	0	0	0	0	513	508	0	0	
4	0	0	0	0	511	506	0	0	
5	0	0	0	0	511	506	0	0	
6	0	0	0	0	508	507	0	0	
7	0	0	0	0	505	508	0	0	
8	0	0	0	0	506	505	0	0	
9	0	0	0	0	506	508	0	0	
10	0	0	0	0	502	508	0	0	
11	0	0	0	0	503	508	0	0	
12	0	0	0	0	506	507	0	0	
13	0	0	0	0	507	506	0	0	
14	0	0	0	0	507	508	0	0	
15	0	0	0	0	512	508	0	0	
0	0	0	0	0	515	509	0	0	
1	0	0	0	0	516	510	0	0	
2	0	0	0	0	518	512	0	0	
3	0	0	0	0	518	508	0	0	
4	0	0	0	0	519	509	0	0	
5	0	0	0	0	515	508	0	0	
6	0	0	0	0	518	508	0	0	
7	0	0	0	0	514	509	0	0	
8	0	0	0	0	511	506	0	0	
9	0	0	0	0	511	509	0	0	
10	0	0	0	0	510	507	0	0	
11	0	0	0	0	508	507	0	0	
12	0	0	0	0	507	508	0	0	
13	0	0	0	0	505	507	0	0	
14	0	0	0	0	505	508	0	0	
15	0	0	0	0	506	508	0	0	
0	0	0	0	0	506	506	0	0	
1	0	0	0	0	506	508	0	0	
2	0	0	0	0	508	507	0	0	
3	0	0	0	0	509	508	0	0	
4	0	0	0	0	512	510	0	0	
5	0	0	0	0	515	507	0	0	
6	0	0	0	0	519	511	0	0	
7	0	0	0	0	519	509	0	0	
8	0	0	0	0	519	509	0	0	
9	0	0	0	0	517	510	0	0	
10	0	0	0	0	515	507	0	0	
11	0	0	0	0	514	508	0	0	
12	0	0	0	0	513	508	0	0	
13	0	0	0	0	511	507	0	0	
14	0	0	0	0	510	507	0	0	
15	0	0	0	0	508	507	0	0	
0	0	0	0	0	503	508	0	0	
1	0	0	0	0	506	508	0	0	
2	0	0	0	0	505	507	0	0	
3	0	0	0	0	505	506	0	0	
4	0	0	0	0	508	508	0	0	
5	0	0	0	0	507	507	0	0	
6	0	0	0	0	510	507	0	0	
7	0	0	0	0	510	508	0	0	
8	0	0	0	0	512	509	0	0	
9	0	0	0	0	513	511	0	0	
10	0	0	0	0	515	509	0	0	
11	0	0	0	0	517	509	0	0	
12	0	0	0	0	518	510	0	0	
13	0	0	0	0	520	507	0	0	
14	0	0	0	0	520	509	0	0	
15	0	0	0	0	516	510	0	0	
0	0	0	0	0	512	508	0	0	
1	0	0	0	0	510	506	0	0	
2	0	0	0	0	508	507	0	0	
3	0	0	0	0	506	506	0	0	
4	0	0	0	0	505	508	0	0	
5	0	0	0	0	504	509	0	0	
6	0	0	0	0	505	507	0	0	
7	0	0	0	0	504	508	0	0	
8	0	0	0	0	506	507	0	0	
9	0	0	0	0	507	507	0	0	
10	0	0	0	0	507	508	0	0	
11	0	0	0	0	507	509	0	0	
12	0	0	0	0	514	511	0	0	
13	0	0	0	0	518	507	0	0	
14	0	0	0	0	515	510	0	0	
15	0	0	0	0	519	509	0	0	
0	0	0	0	0	519	510	0	0	
1	0	0	0	0	515	508	0	0	
2	0	0	0	0	516	507	0	0	
3	0	0	0	0	515	508	0	0	
4	0	0	0	0	512	507	0	0	
5	0	0	0	0	510	508	0	0	
6	0	0	0	0	509	507	0	0	
7	0	0	0	0	508	507	0	0	
8	0	0	0	0	505	508	0	0	
9	0	0	0	0	504	508	0	0	
10	0	0	0	0	503	507	0	0	
11	0	0	0	0	504	507	0	0	
12	0	0	0	0	507	505	0	0	
13	0	0	0	0	507	508	0	0	
14	0	0	0	0	509	508	0	0	
15	0	0	0	0	511	508	0	0	
0	0	0	0	0	515	508	0	0	
1	0	0	0	0	517	510	0	0	
2	0	0	0	0	518	510	0	0	
3	0	0	0	0	519	508	0	0	
4	0	0	0	0	520	509	0	0	
5	0	0	0	0	519	510	0	0	
6	0	0	0	0	516	507	0	0	
7	0	0	0	0	517	509	0	0	
8	0	0	0	0	513	507	0	0	
9	0	0	0	0	511	508	0	0	
10	0	0	0	0	508	507	0	0	
11	0	0	0	0	505	507	0	0	
12	0	0	0	0	503	505	0	0	
13	0	0	0	0	503	507	0	0	
14	0	0	0	0	504	506	0	0	
15	0	0	0	0	503	508	0	0	
0	0	0	0	0	505	507	0	0	
1	0	0	0	0	508	509	0	0	
2	0	0	0	0	508	507	0	0	
3	0	0	0	0	510	510	0	0	
4	0	0	0	0	513	508	0	0	
5	0	0	0	0	515	509	0	0	
6	0	0	0	0	516	509	0	0	
7	0	0	0	0	518	508	0	0	
8	0	0	0	0	519	510	0	0	
9	0	0	0	0	519	508	0	0	
10	0	0	0	0	518	509	0	0	
11	0	0	0	0	515	508	0	0	
12	0	0	0	0	512	506	0	0	
13	0	0	0	0	510	507	0	0	
14	0	0	0	0	506	508	0	0	
15	0	0	0	0	507	506	0	0	
0	0	0	0	0	505	507	0	0	
1	0	0	0	0	507	507	0	0	
2	0	0	0	0	504	507	0	0	
3	0	0	0	0	504	507	0	0	
4	0	0	0	0	508	508	0	0	
5	0	0	0	0	505	508	0	0	
6	0	0	0	0	508	510	0	0	
7	0	0	0	0	510	508	0	0	
8	0	0	0	0	513	509	0	0	
9	0	0	0	0	515	511	0	0	
10	0	0	0	0	517	508	0	0	
11	0	0	0	0	517	509	0	0	
12	0	0	0	0	519	508	0	0	
13	0	0	0	0	519	508	0	0	
14	0	0	0	0	518	509	0	0	
15	0	0	0	0	513	506	0	0	
0	0	0	0	0	514	508	0	0	
1	0	0	0	0	511	507	0	0	
2	0	0	0	0	508	507	0	0	
3	0	0	0	0	507	508	0	0	
4	0	0	0	0	503	506	0	0	
5	0	0	0	0	503	507	0	0	
6	0	0	0	0	504	508	0	0	
7	0	0	0	0	504	507	0	0	
8	0	0	0	0	506	508	0	0	
9	0	0	0	0	506	509	0	0	
10	0	0	0	0	507	509	0	0	
11	0	0	0	0	511	509	0	0	
12	0	0	0	0	512	509	0	0	
13	0	0	0	0	518	510	0	0	
14	0	0	0	0	519	509	0	0	
15	0	0	0	0	517	508	0	0	
0	0	0	0	0	519	508	0	0	
1	0	0	0	0	520	508	0	0	
2	0	0	0	0	516	508	0	0	
3	0	0	0	0	513	509	0	0	
4	0	0	0	0	512	507	0	0	
5	0	0	0	0	511	506	0	0	
6	0	0	0	0	507	506	0	0	
7	0	0	0	0	505	507	0	0	
8	0	0	0	0	508	507	0	0	
9	0	0	0	0	504	507	0	0	
10	0	0	0	0	503	507	0	0	
11	0	0	0	0	502	509	0	0	
12	0	0	0	0	504	508	0	0	
13	0	0	0	0	508	508	0	0	
14	0	0	0	0	508	507	0	0	
15	0	0	0	0	510	509	0	0	
0	0	0	0	0	511	509	0	0	
1	0	0	0	0	515	511	0	0	
2	0	0	0	0	519	510	0	0	
3	0	0	0	0	519	510	0	0	
4	0	0	0	0	519	511	0	0	
5	0	0	0	0	520	508	0	0	
6	0	0	0	0	519	508	0	0	
7	0	0	0	0	515	505	0	0	
8	0	0	0	0	513	508	0	0	
9	0	0	0	0	510	509	0	0	
10	0	0	0	0	508	508	0	0	
11	0	0	0	0	506	508	0	0	
12	0	0	0	0	507	507	0	0	
13	0	0	0	0	504	506	0	0	
14	0	0	0	0	503	507	0	0	
15	0	0	0	0	505	507	0	0	
0	0	0	0	0	505	508	0	0	
1	0	0	0	0	505	507	0	0	
2	0	0	0	0	509	509	0	0	
3	0	0	0	0	509	511	0	0	
4	0	0	0	0	512	511	0	0	
5	0	0	0	0	516	509	0	0	
6	0	0	0	0	518	510	0	0	
7	0	0	0	0	517	509	0	0	
8	0	0	0	0	519	511	0	0	
9	0	0	0	0	521	508	0	0	
10	0	0	0	0	517	508	0	0	
11	0	0	0	0	515	507	0	0	
12	0	0	0	0	513	506	0	0	
13	0	0	0	0	511	507	0	0	
14	0	0	0	0	507	506	0	0	
15	0	0	0	0	507	508	0	0	
0	0	0	0	0	505	508	0	0	
1	0	0	0	0	504	508	0	0	
2	0	0	0	0	504	506	0	0	
3	0	0	0	0	505	507	0	0	
4	0	0	0	0	504	508	0	0	
5	0	0	0	0	507	508	0	0	
6	0	0	0	0	508	507	0	0	
7	0	0	0	0	509	510	0	0	
8	0	0	0	0	515	509	0	0	
9	0	0	0	0	517	508	0	0	
10	0	0	0	0	516	510	0	0	
11	0	0	0	0	520	510	0	0	
12	0	0	0	0	520	510	0	0	
13	0	0	0	0	515	509	0	0	
14	0	0	0	0	516	507	0	0	
15	0	0	0	0	515	508	0	0	
0	0	0	0	0	513	508	0	0	
1	0	0	0	0	513	507	0	0	
2	0	0	0	0	507	507	0	0	
3	0	0	0	0	506	509	0	0	
4	0	0	0	0	505	506	0	0	
5	0	0	0	0	506	508	0	0	
6	0	0	0	0	504	508	0	0	
7	0	0	0	0	503	508	0	0	
8	0	0	0	0	505	507	0	0	
9	0	0	0	0	507	505	0	0	
10	0	0	0	0	507	507	0	0	
11	0	0	0	0	511	508	0	0	
12	0	0	0	0	514	510	0	0	
13	0	0	0	0	517	509	0	0	
14	0	0	0	0	516	509	0	0	
15	0	0	0	0	519	509	0	0	
0	0	0	0	0	519	508	0	0	
1	0	0	0	0	519	509	0	0	
2	0	0	0	0	515	507	0	0	
3	0	0	0	0	513	508	0	0	
4	0	0	0	0	512	506	0	0	
5	0	0	0	0	511	509	0	0	
6	0	0	0	0	508	506	0	0	
7	0	0	0	0	508	505	0	0	
8	0	0	0	0	506	508	0	0	
9	0	0	0	0	505	508	0	0	
10	0	0	0	0	504	508	0	0	
11	0	0	0	0	502	508	0	0	
12	0	0	0	0	506	508	0	0	
13	0	0	0	0	505	509	0	0	
14	0	0	0	0	507	508	0	0	
15	0	0	0	0	511	508	0	0	
0	0	0	0	0	515	509	0	0	
1	0	0	0	0	516	508	0	0	
2	0	0	0	0	518	509	0	0	
3	0	0	0	0	518	511	0	0	
4	0	0	0	0	520	508	0	0	
5	0	0	0	0	517	509	0	0	
6	0	0	0	0	518	507	0	0	
7	0	0	0	0	516	508	0	0	
8	0	0	0	0	515	509	0	0	
9	0	0	0	0	511	505	0	0	
10	0	0	0	0	509	508	0	0	
11	0	0	0	0	508	507	0	0	
12	0	0	0	0	508	507	0	0	
13	0	0	0	0	501	508	0	0	
14	0	0	0	0	504	505	0	0	
15	0	0	0	0	502	507	0	0	
0	0	0	0	0	505	509	0	0	
1	0	0	0	0	507	508	0	0	
2	0	0	0	0	511	507	0	0	
3	0	0	0	0	512	507	0	0	
4	0	0	0	0	512	508	0	0	
5	0	0	0	0	515	509	0	0	
6	0	0	0	0	517	510	0	0	
7	0	0	0	0	519	509	0	0	
8	0	0	0	0	520	511	0	0	
9	0	0	0	0	520	508	0	0	
10	0	0	0	0	517	510	0	0	
11	0	0	0	0	514	509	0	0	
12	0	0	0	0	514	507	0	0	
13	0	0	0	0	511	507	0	0	
14	0	0	0	0	511	505	0	0	
15	0	0	0	0	504	506	0	0	
0	0	0	0	0	504	505	0	0	
1	0	0	0	0	504	505	0	0	
2	0	0	0	0	503	507	0	0	
3	0	0	0	0	502	510	0	0	
4	0	0	0	0	503	509	0	0	
5	0	0	0	0	505	507	0	0	
6	0	0	0	0	508	508	0	0	
7	0	0	0	0	511	511	0	0	
8	0	0	0	0	515	509	0	0	
9	0	0	0	0	519	510	0	0	
10	0	0	0	0	519	507	0	0	
11	0	0	0	0	519	507	0	0	
12	0	0	0	0	519	510	0	0	
13	0	0	0	0	519	508	0	0	
14	0	0	0	0	518	507	0	0	
15	0	0	0	0	515	510	0	0	
0	0	0	0	0	513	508	0	0	
1	0	0	0	0	511	507	0	0	
2	0	0	0	0	506	506	0	0	
3	0	0	0	0	505	508	0	0	
4	0	0	0	0	504	508	0	0	
5	0	0	0	0	504	506	0	0	
6	0	0	0	0	503	508	0	0	
7	0	0	0	0	504	508	0	0	
8	0	0	0	0	502	509	0	0	
9	0	0	0	0	505	509	0	0	
10	0	0	0	0	506	508	0	0	
11	0	0	0	0	511	508	0	0	
12	0	0	0	0	514	508	0	0	
13	0	0	0	0	517	507	0	0	
14	0	0	0	0	516	511	0	0	
15	0	0	0	0	520	508	0	0	
0	0	0	0	0	520	511	0	0	
1	0	0	0	0	519	505	0	0	
2	0	0	0	0	519	507	0	0	
3	0	0	0	0	517	508	0	0	
4	0	0	0	0	512	508	0	0	
5	0	0	0	0	509	506	0	0	
6	0	0	0	0	508	506	0	0	
7	0	0	0	0	504	508	0	0	
8	0	0	0	0	504	507	0	0	
9	0	0	0	0	502	505	0	0	
10	0	0	0	0	501	509	0	0	
11	0	0	0	0	502	504	0	0	
12	0	0	0	0	508	508	0	0	
13	0	0	0	0	507	508	0	0	
14	0	0	0	0	505	509	0	0	
15	0	0	0	0	511	508	0	0	
0	0	0	0	0	512	511	0	0	
1	0	0	0	0	516	509	0	0	
2	0	0	0	0	519	509	0	0	
3	0	0	0	0	519	510	0	0	
4	0	0	0	0	520	508	0	0	
5	0	0	0	0	520	509	0	0	
6	0	0	0	0	518	510	0	0	
7	0	0	0	0	515	508	0	0	
8	0	0	0	0	513	507	0	0	
9	0	0	0	0	513	506	0	0	
10	0	0	0	0	511	505	0	0	
11	0	0	0	0	506	507	0	0	
12	0	0	0	0	505	507	0	0	
13	0	0	0	0	503	505	0	0	
14	0	0	0	0	505	507	0	0	
15	0	0	0	0	504	508	0	0	
0	0	0	0	0	506	508	0	0	
1	0	0	0	0	507	509	0	0	
2	0	0	0	0	507	508	0	0	
3	0	0	0	0	510	509	0	0	
4	0	0	0	0	512	508	0	0	
5	0	0	0	0	515	509	0	0	
6	0	0	0	0	515	509	0	0	
7	0	0	0	0	519	511	0	0	
8	0	0	0	0	519	510	0	0	
9	0	0	0	0	519	511	0	0	
10	0	0	0	0	518	507	0	0	
11	0	0	0	0	515	507	0	0	
12	0	0	0	0	512	508	0	0	
13	0	0	0	0	511	508	0	0	
14	0	0	0	0	508	507	0	0	
15	0	0	0	0	508	505	0	0	
0	0	0	0	0	505	507	0	0	
1	0	0	0	0	504	508	0	0	
2	0	0	0	0	503	510	0	0	
3	0	0	0	0	504	508	0	0	
4	0	0	0	0	503	508	0	0	
5	0	0	0	0	506	509	0	0	
6	0	0	0	0	509	509	0	0	
7	0	0	0	0	509	508	0	0	
8	0	0	0	0	514	507	0	0	
9	0	0	0	0	515	510	0	0	
10	0	0	0	0	516	508	0	0	
11	0	0	0	0	519	510	0	0	
12	0	0	0	0	519	510	0	0	
13	0	0	0	0	519	507	0	0	
14	0	0	0	0	520	507	0	0	
15	0	0	0	0	518	508	0	0	
0	0	0	0	0	515	509	0	0	
1	0	0	0	0	511	508	0	0	
2	0	0	0	0	506	507	0	0	
3	0	0	0	0	504	508	0	0	
4	0	0	0	0	506	507	0	0	
5	0	0	0	0	504	507	0	0	
6	0	0	0	0	504	508	0	0	
7	0	0	0	0	505	508	0	0	
8	0	0	0	0	505	507	0	0	
9	0	0	0	0	506	507	0	0	
10	0	0	0	0	507	508	0	0	
11	0	0	0	0	511	508	0	0	
12	0	0	0	0	512	509	0	0	
13	0	0	0	0	514	507	0	0	
14	0	0	0	0	516	508	0	0	
15	0	0	0	0	519	509	0	0	
0	0	0	0	0	518	510	0	0	
1	0	0	0	0	521	510	0	0	
2	0	0	0	0	519	507	0	0	
3	0	0	0	0	517	508	0	0	
4	0	0	0	0	515	507	0	0	
5	0	0	0	0	511	508	0	0	
6	0	0	0	0	507	507	0	0	
7	0	0	0	0	506	506	0	0	
8	0	0	0	0	505	509	0	0	
9	0	0	0	0	503	508	0	0	
10	0	0	0	0	502	508	0	0	
11	0	0	0	0	501	510	0	0	
12	0	0	0	0	504	509	0	0	
13	0	0	0	0	504	507	0	0	
14	0	0	0	0	510	506	0	0	
15	0	0	0	0	510	509	0	0	
0	0	0	0	0	514	509	0	0	
1	0	0	0	0	516	510	0	0	
2	0	0	0	0	517	509	0	0	
3	0	0	0	0	518	510	0	0	
4	0	0	0	0	523	509	0	0	
5	0	0	0	0	520	508	0	0	
6	0	0	0	0	518	509	0	0	
7	0	0	0	0	515	507	0	0	
8	0	0	0	0	514	506	0	0	
9	0	0	0	0	512	508	0	0	
10	0	0	0	0	508	506	0	0	
11	0	0	0	0	504	508	0	0	
12	0	0	0	0	505	508	0	0	
13	0	0	0	0	504	507	0	0	
14	0	0	0	0	502	508	0	0	
15	0	0	0	0	503	509	0	0	
0	0	0	0	0	503	508	0	0	
1	0	0	0	0	503	508	0	0	
2	0	0	0	0	507	508	0	0	
3	0	0	0	0	509	507	0	0	
4	0	0	0	0	515	510	0	0	
5	0	0	0	0	516	511	0	0	
6	0	0	0	0	518	509	0	0	
7	0	0	0	0	519	507	0	0	
8	0	0	0	0	522	510	0	0	
9	0	0	0	0	520	506	0	0	
10	0	0	0	0	517	508	0	0	
11	0	0	0	0	515	508	0	0	
12	0	0	0	0	513	505	0	0	
13	0	0	0	0	512	507	0	0	
14	0	0	0	0	508	507	0	0	
15	0	0	0	0	508	508	0	0	
0	0	0	0	0	507	507	0	0	
1	0	0	0	0	502	506	0	0	
2	0	0	0	0	499	509	0	0	
3	0	0	0	0	504	508	0	0	
4	0	0	0	0	506	510	0	0	
5	0	0	0	0	505	508	0	0	
6	0	0	0	0	506	509	0	0	
7	0	0	0	0	508	509	0	0	
8	0	0	0	0	512	507	0	0	
9	0	0	0	0	516	510	0	0	
10	0	0	0	0	518	509	0	0	
11	0	0	0	0	520	507	0	0	
12	0	0	0	0	522	508	0	0	
13	0	0	0	0	522	508	0	0	
14	0	0	0	0	519	509	0	0	
15	0	0	0	0	515	506	0	0	
0	0	0	0	0	512	509	0	0	
1	0	0	0	0	510	507	0	0	
2	0	0	0	0	507	506	0	0	
3	0	0	0	0	504	509	0	0	
4	0	0	0	0	504	508	0	0	
5	0	0	0	0	503	508	0	0	
6	0	0	0	0	503	508	0	0	
7	0	0	0	0	502	507	0	0	
8	0	0	0	0	503	507	0	0	
9	0	0	0	0	504	508	0	0	
10	0	0	0	0	505	508	0	0	
11	0	0	0	0	510	510	0	0	
12	0	0	0	0	513	508	0	0	
13	0	0	0	0	519	510	0	0	
14	0	0	0	0	519	507	0	0	
15	0	0	0	0	520	508	0	0	
0	0	0	0	0	523	508	0	0	
1	0	0	0	0	519	509	0	0	
2	0	0	0	0	519	506	0	0	
3	0	0	0	0	516	508	0	0	
4	0	0	0	0	516	508	0	0	
5	0	0	0	0	513	509	0	0	
6	0	0	0	0	510	508	0	0	
7	0	0	0	0	505	507	0	0	
8	0	0	0	0	503	505	0	0	
9	0	0	0	0	502	509	0	0	
10	0	0	0	0	502	508	0	0	
11	0	0	0	0	505	507	0	0	
12	0	0	0	0	502	507	0	0	
13	0	0	0	0	504	509	0	0	
14	0	0	0	0	508	509	0	0	
15	0	0	0	0	510	510	0	0	
0	0	0	0	0	512	509	0	0	
1	0	0	0	0	515	510	0	0	
2	0	0	0	0	518	509	0	0	
3	0	0	0	0	518	509	0	0	
4	0	0	0	0	520	508	0	0	
5	0	0	0	0	519	507	0	0	
6	0	0	0	0	519	508	0	0	
7	0	0	0	0	517	507	0	0	
8	0	0	0	0	515	508	0	0	
9	0	0	0	0	512	508	0	0	
10	0	0	0	0	510	506	0	0	
11	0	0	0	0	506	506	0	0	
12	0	0	0	0	505	505	0	0	
13	0	0	0	0	504	508	0	0	
14	0	0	0	0	502	507	0	0	
15	0	0	0	0	504	509	0	0	
0	0	0	0	0	502	508	0	0	
1	0	0	0	0	505	508	0	0	
2	0	0	0	0	508	507	0	0	
3	0	0	0	0	511	509	0	0	
4	0	0	0	0	512	508	0	0	
5	0	0	0	0	515	507	0	0	
6	0	0	0	0	515	508	0	0	
7	0	0	0	0	519	510	0	0	
8	0	0	0	0	521	509	0	0	
9	0	0	0	0	521	508	0	0	
10	0	0	0	0	518	507	0	0	
11	0	0	0	0	516	507	0	0	
12	0	0	0	0	514	506	0	0	
13	0	0	0	0	510	509	0	0	
14	0	0	0	0	509	507	0	0	
15	0	0	0	0	505	507	0	0	
0	0	0	0	0	506	509	0	0	
1	0	0	0	0	503	506	0	0	
2	0	0	0	0	503	506	0	0	
3	0	0	0	0	502	508	0	0	
4	0	0	0	0	505	507	0	0	
5	0	0	0	0	504	508	0	0	
6	0	0	0	0	506	510	0	0	
7	0	0	0	0	510	508	0	0	
8	0	0	0	0	514	508	0	0	
9	0	0	0	0	517	510	0	0	
10	0	0	0	0	516	509	0	0	
11	0	0	0	0	519	510	0	0	
12	0	0	0	0	519	509	0	0	
13	0	0	0	0	518	510	0	0	
14	0	0	0	0	519	508	0	0	
15	0	0	0	0	517	505	0	0	
0	0	0	0	0	514	507	0	0	
1	0	0	0	0	509	507	0	0	
2	0	0	0	0	510	509	0	0	
3	0	0	0	0	504	507	0	0	
4	0	0	0	0	505	508	0	0	
5	0	0	0	0	503	507	0	0	
6	0	0	0	0	502	507	0	0	
7	0	0	0	0	504	509	0	0	
8	0	0	0	0	505	508	0	0	
9	0	0	0	0	506	506	0	0	
10	0	0	0	0	506	508	0	0	
11	0	0	0	0	510	508	0	0	
12	0	0	0	0	514	510	0	0	
13	0	0	0	0	515	509	0	0	
14	0	0	0	0	518	508	0	0	
15	0	0	0	0	519	509	0	0	
0	0	0	0	0	521	509	0	0	
1	0	0	0	0	519	509	0	0	
2	0	0	0	0	519	506	0	0	
3	0	0	0	0	516	510	0	0	
4	0	0	0	0	513	507	0	0	
5	0	0	0	0	512	507	0	0	
6	0	0	0	0	509	507	0	0	
7	0	0	0	0	505	508	0	0	
8	0	0	0	0	504	509	0	0	
9	0	0	0	0	505	506	0	0	
10	0	0	0	0	502	507	0	0	
11	0	0	0	0	503	508	0	0	
12	0	0	0	0	505	507	0	0	
13	0	0	0	0	505	508	0	0	
14	0	0	0	0	508	508	0	0	
15	0	0	0	0	510	507	0	0	
0	0	0	0	0	513	508	0	0	
1	0	0	0	0	518	509	0	0	
2	0	0	0	0	519	509	0	0	
3	0	0	0	0	519	510	0	0	
4	0	0	0	0	521	511	0	0	
5	0	0	0	0	520	509	0	0	
6	0	0	0	0	516	507	0	0	
7	0	0	0	0	518	508	0	0	
8	0	0	0	0	513	509	0	0	
9	0	0	0	0	511	507	0	0	
10	0	0	0	0	508	505	0	0	
11	0	0	0	0	505	507	0	0	
12	0	0	0	0	505	508	0	0	
13	0	0	0	0	503	508	0	0	
14	0	0	0	0	501	507	0	0	
15	0	0	0	0	502	507	0	0	
0	0	0	0	0	505	510	0	0	
1	0	0	0	0	504	508	0	0	
2	0	0	0	0	506	508	0	0	
3	0	0	0	0	509	509	0	0	
4	0	0	0	0	514	510	0	0	
5	0	0	0	0	515	509	0	0	
6	0	0	0	0	518	509	0	0	
7	0	0	0	0	518	510	0	0	
8	0	0	0	0	521	508	0	0	
9	0	0	0	0	521	509	0	0	
10	0	0	0	0	518	507	0	0	
11	0	0	0	0	515	508	0	0	
12	0	0	0	0	512	506	0	0	
13	0	0	0	0	509	507	0	0	
14	0	0	0	0	507	505	0	0	
15	0	0	0	0	506	508	0	0	
0	0	0	0	0	504	508	0	0	
1	0	0	0	0	504	509	0	0	
2	0	0	0	0	502	508	0	0	
3	0	0	0	0	503	508	0	0	
4	0	0	0	0	503	507	0	0	
5	0	0	0	0	507	507	0	0	
6	0	0	0	0	508	510	0	0	
7	0	0	0	0	511	508	0	0	
8	0	0	0	0	515	508	0	0	
9	0	0	0	0	518	509	0	0	
10	0	0	0	0	518	511	0	0	
11	0	0	0	0	521	510	0	0	
12	0	0	0	0	521	510	0	0	
13	0	0	0	0	521	508	0	0	
14	0	0	0	0	518	509	0	0	
15	0	0	0	0	516	508	0	0	
0	0	0	0	0	513	507	0	0	
1	0	0	0	0	509	507	0	0	
2	0	0	0	0	506	507	0	0	
3	0	0	0	0	508	506	0	0	
4	0	0	0	0	506	505	0	0	
5	0	0	0	0	504	507	0	0	
6	0	0	0	0	502	508	0	0	
7	0	0	0	0	503	507	0	0	
8	0	0	0	0	503	508	0	0	
9	0	0	0	0	505	508	0	0	
10	0	0	0	0	507	507	0	0	
11	0	0	0	0	508	508	0	0	
12	0	0	0	0	513	510	0	0	
13	0	0	0	0	515	509	0	0	
14	0	0	0	0	517	509	0	0	
15	0	0	0	0	521	508	0	0	
0	0	0	0	0	520	510	0	0	
1	0	0	0	0	520	510	0	0	
2	0	0	0	0	517	509	0	0	
3	0	0	0	0	514	508	0	0	
4	0	0	0	0	514	507	0	0	
5	0	0	0	0	509	506	0	0	
6	0	0	0	0	509	507	0	0	
7	0	0	0	0	506	509	0	0	
8	0	0	0	0	505	507	0	0	
9	0	0	0	0	505	507	0	0	
10	0	0	0	0	500	507	0	0	
11	0	0	0	0	503	510	0	0	
12	0	0	0	0	505	506	0	0	
13	0	0	0	0	505	507	0	0	
14	0	0	0	0	507	507	0	0	
15	0	0	0	0	511	508	0	0	
0	0	0	0	0	516	507	0	0	
1	0	0	0	0	518	508	0	0	
2	0	0	0	0	514	508	0	0	
3	0	0	0	0	518	509	0	0	
4	0	0	0	0	520	510	0	0	
5	0	0	0	0	516	511	0	0	
6	0	0	0	0	516	508	0	0	
7	0	0	0	0	514	508	0	0	
8	0	0	0	0	513	507	0	0	
9	0	0	0	0	511	508	0	0	
10	0	0	0	0	507	506	0	0	
11	0	0	0	0	504	505	0	0	
12	0	0	0	0	506	508	0	0	
13	0	0	0	0	504	507	0	0	
14	0	0	0	0	502	507	0	0	
15	0	0	0	0	503	508	0	0	
0	0	0	0	0	504	509	0	0	
1	0	0	0	0	506	508	0	0	
2	0	0	0	0	509	509	0	0	
3	0	0	0	0	511	509	0	0	
4	0	0	0	0	512	508	0	0	
5	0	0	0	0	516	509	0	0	
6	0	0	0	0	519	509	0	0	
7	0	0	0	0	518	508	0	0	
8	0	0	0	0	521	508	0	0	
9	0	0	0	0	520	511	0	0	
10	0	0	0	0	519	508	0	0	
11	0	0	0	0	515	508	0	0	
12	0	0	0	0	515	508	0	0	
13	0	0	0	0	512	508	0	0	
14	0	0	0	0	510	506	0	0	
15	0	0	0	0	506	507	0	0	
0	0	0	0	0	505	507	0	0	
1	0	0	0	0	506	506	0	0	
2	0	0	0	0	502	507	0	0	
3	0	0	0	0	503	507	0	0	
4	0	0	0	0	503	508	0	0	
5	0	0	0	0	505	508	0	0	
6	0	0	0	0	510	508	0	0	
7	0	0	0	0	512	509	0	0	
8	0	0	0	0	513	509	0	0	
9	0	0	0	0	515	510	0	0	
10	0	0	0	0	517	507	0	0	
11	0	0	0	0	517	510	0	0	
12	0	0	0	0	517	510	0	0	
13	0	0	0	0	519	510	0	0	
14	0	0	0	0	520	509	0	0	
15	0	0	0	0	514	507	0	0	
0	0	0	0	0	512	508	0	0	
1	0	0	0	0	510	506	0	0	
2	0	0	0	0	508	508	0	0	
3	0	0	0	0	506	508	0	0	
4	0	0	0	0	507	506	0	0	
5	0	0	0	0	505	507	0	0	
6	0	0	0	0	504	507	0	0	
7	0	0	0	0	505	508	0	0	
8	0	0	0	0	505	506	0	0	
9	0	0	0	0	507	506	0	0	
10	0	0	0	0	507	506	0	0	
11	0	0	0	0	510	508	0	0	
12	0	0	0	0	515	509	0	0	
13	0	0	0	0	515	510	0	0	
14	0	0	0	0	515	508	0	0	
15	0	0	0	0	518	509	0	0	
0	0	0	0	0	521	512	0	0	
1	0	0	0	0	520	510	0	0	
2	0	0	0	0	515	507	0	0	
3	0	0	0	0	515	508	0	0	
4	0	0	0	0	514	508	0	0	
5	0	0	0	0	510	506	0	0	
6	0	0	0	0	508	506	0	0	
7	0	0	0	0	505	507	0	0	
8	0	0	0	0	506	507	0	0	
9	0	0	0	0	504	508	0	0	
10	0	0	0	0	504	508	0	0	
11	0	0	0	0	504	507	0	0	
12	0	0	0	0	505	507	0	0	
13	0	0	0	0	505	509	0	0	
14	0	0	0	0	507	509	0	0	
15	0	0	0	0	512	510	0	0	
0	0	0	0	0	515	508	0	0	
1	0	0	0	0	515	510	0	0	
2	0	0	0	0	518	509	0	0	
3	0	0	0	0	519	510	0	0	
4	0	0	0	0	519	509	0	0	
5	0	0	0	0	519	508	0	0	
6	0	0	0	0	518	508	0	0	
7	0	0	0	0	515	507	0	0	
8	0	0	0	0	511	507	0	0	
9	0	0	0	0	509	509	0	0	
10	0	0	0	0	508	507	0	0	
11	0	0	0	0	507	508	0	0	
12	0	0	0	0	507	506	0	0	
13	0	0	0	0	503	507	0	0	
14	0	0	0	0	504	508	0	0	
15	0	0	0	0	504	508	0	0	
0	0	0	0	0	505	508	0	0	
1	0	0	0	0	508	507	0	0	
2	0	0	0	0	508	509	0	0	
3	0	0	0	0	511	508	0	0	
4	0	0	0	0	515	510	0	0	
5	0	0	0	0	516	510	0	0	
6	0	0	0	0	516	511	0	0	
7	0	0	0	0	520	510	0	0	
8	0	0	0	0	520	510	0	0	
9	0	0	0	0	517	508	0	0	
10	0	0	0	0	518	508	0	0	
11	0	0	0	0	514	507	0	0	
12	0	0	0	0	512	507	0	0	
13	0	0	0	0	511	507	0	0	
14	0	0	0	0	509	507	0	0	
15	0	0	0	0	506	505	0	0	
0	0	0	0	0	505	508	0	0	
1	0	0	0	0	504	508	0	0	
2	0	0	0	0	502	507	0	0	
3	0	0	0	0	504	507	0	0	
4	0	0	0	0	506	508	0	0	
5	0	0	0	0	508	509	0	0	
6	0	0	0	0	507	510	0	0	
7	0	0	0	0	511	509	0	0	
8	0	0	0	0	514	508	0	0	
9	0	0	0	0	516	510	0	0	
10	0	0	0	0	519	508	0	0	
11	0	0	0	0	519	508	0	0	
12	0	0	0	0	519	510	0	0	
13	0	0	0	0	519	510	0	0	
14	0	0	0	0	516	507	0	0	
15	0	0	0	0	515	507	0	0	
0	0	0	0	0	513	507	0	0	
1	0	0	0	0	509	507	0	0	
2	0	0	0	0	507	508	0	0	
3	0	0	0	0	506	506	0	0	
4	0	0	0	0	507	508	0	0	
5	0	0	0	0	503	508	0	0	
6	0	0	0	0	502	507	0	0	
7	0	0	0	0	505	508	0	0	
8	0	0	0	0	505	508	0	0	
9	0	0	0	0	508	510	0	0	
10	0	0	0	0	509	509	0	0	
11	0	0	0	0	511	507	0	0	
12	0	0	0	0	513	510	0	0	
13	0	0	0	0	514	509	0	0	
14	0	0	0	0	517	510	0	0	
15	0	0	0	0	521	509	0	0	
0	0	0	0	0	519	509	0	0	
1	0	0	0	0	521	509	0	0	
2	0	0	0	0	518	509	0	0	
3	0	0	0	0	515	506	0	0	
4	0	0	0	0	513	509	0	0	
5	0	0	0	0	512	508	0	0	
6	0	0	0	0	510	507	0	0	
7	0	0	0	0	505	508	0	0	
8	0	0	0	0	505	508	0	0	
9	0	0	0	0	503	508	0	0	
10	0	0	0	0	503	506	0	0	
11	0	0	0	0	504	506	0	0	
12	0	0	0	0	506	510	0	0	
13	0	0	0	0	505	507	0	0	
14	0	0	0	0	507	509	0	0	
15	0	0	0	0	509	510	0	0	
0	0	0	0	0	512	508	0	0	
1	0	0	0	0	517	507	0	0	
2	0	0	0	0	516	507	0	0	
3	0	0	0	0	519	508	0	0	
4	0	0	0	0	520	509	0	0	
5	0	0	0	0	518	508	0	0	
6	0	0	0	0	518	509	0	0	
7	0	0	0	0	514	508	0	0	
8	0	0	0	0	512	508	0	0	
9	0	0	0	0	511	508	0	0	
10	0	0	0	0	508	508	0	0	
11	0	0	0	0	506	507	0	0	
12	0	0	0	0	507	509	0	0	
13	0	0	0	0	504	506	0	0	
14	0	0	0	0	503	508	0	0	
15	0	0	0	0	505	508	0	0	
0	0	0	0	0	507	510	0	0	
1	0	0	0	0	505	507	0	0	
2	0	0	0	0	508	508	0	0	
3	0	0	0	0	510	508	0	0	
4	0	0	0	0	513	510	0	0	
5	0	0	0	0	515	509	0	0	
6	0	0	0	0	515	510	0	0	
7	0	0	0	0	519	507	0	0	
8	0	0	0	0	518	507	0	0	
9	0	0	0	0	519	507	0	0	
10	0	0	0	0	517	508	0	0	
11	0	0	0	0	513	507	0	0	
12	0	0	0	0	512	505	0	0	
13	0	0	0	0	511	507	0	0	
14	0	0	0	0	508	507	0	0	
15	0	0	0	0	505	509	0	0	
0	0	0	0	0	505	508	0	0	
1	0	0	0	0	506	506	0	0	
2	0	0	0	0	505	508	0	0	
3	0	0	0	0	503	508	0	0	
4	0	0	0	0	507	509	0	0	
5	0	0	0	0	507	508	0	0	
6	0	0	0	0	509	508	0	0	
7	0	0	0	0	512	508	0	0	
8	0	0	0	0	514	510	0	0	
9	0	0	0	0	515	509	0	0	
10	0	0	0	0	516	510	0	0	
11	0	0	0	0	518	509	0	0	
12	0	0	0	0	519	510	0	0	
13	0	0	0	0	518	509	0	0	
14	0	0	0	0	515	508	0	0	
15	0	0	0	0	511	508	0	0	
0	0	0	0	0	510	508	0	0	
1	0	0	0	0	512	507	0	0	
2	0	0	0	0	510	505	0	0	
3	0	0	0	0	507	507	0	0	
4	0	0	0	0	507	507	0	0	
5	0	0	0	0	503	507	0	0	
6	0	0	0	0	504	507	0	0	
7	0	0	0	0	507	508	0	0	
8	0	0	0	0	508	507	0	0	
9	0	0	0	0	507	509	0	0	
10	0	0	0	0	510	510	0	0	
11	0	0	0	0	510	508	0	0	
12	0	0	0	0	515	510	0	0	
13	0	0	0	0	516	510	0	0	
14	0	0	0	0	516	508	0	0	
15	0	0	0	0	520	505	0	0	
0	0	0	0	0	522	510	0	0	
1	0	0	0	0	519	508	0	0	
2	0	0	0	0	516	509	0	0	
3	0	0	0	0	515	507	0	0	
4	0	0	0	0	514	507	0	0	
5	0	0	0	0	509	507	0	0	
6	0	0	0	0	509	506	0	0	
7	0	0	0	0	505	506	0	0	
8	0	0	0	0	504	508	0	0	
9	0	0	0	0	504	506	0	0	
10	0	0	0	0	503	508	0	0	
11	0	0	0	0	505	506	0	0	
12	0	0	0	0	507	509	0	0	
13	0	0	0	0	507	508	0	0	
14	0	0	0	0	508	508	0	0	
15	0	0	0	0	511	508	0	0	
0	0	0	0	0	513	508	0	0	
1	0	0	0	0	517	511	0	0	
2	0	0	0	0	518	510	0	0	
3	0	0	0	0	516	507	0	0	
4	0	0	0	0	518	508	0	0	
5	0	0	0	0	519	509	0	0	
6	0	0	0	0	517	509	0	0	
7	0	0	0	0	511	507	0	0	
8	0	0	0	0	513	507	0	0	
9	0	0	0	0	510	505	0	0	
10	0	0	0	0	507	508	0	0	
11	0	0	0	0	505	505	0	0	
12	0	0	0	0	505	510	0	0	
13	0	0	0	0	504	507	0	0	
14	0	0	0	0	504	506	0	0	
15	0	0	0	0	505	507	0	0	
0	0	0	0	0	506	508	0	0	
1	0	0	0	0	509	508	0	0	
2	0	0	0	0	509	509	0	0	
3	0	0	0	0	510	508	0	0	
4	0	0	0	0	515	509	0	0	
5	0	0	0	0	516	508	0	0	
6	0	0	0	0	518	510	0	0	
7	0	0	0	0	519	510	0	0	
8	0	0	0	0	518	510	0	0	
9	0	0	0	0	518	510	0	0	
10	0	0	0	0	517	508	0	0	
11	0	0	0	0	514	506	0	0	
12	0	0	0	0	513	508	0	0	
13	0	0	0	0	511	507	0	0	
14	0	0	0	0	509	505	0	0	
15	0	0	0	0	506	507	0	0	
0	0	0	0	0	506	507	0	0	
1	0	0	0	0	507	507	0	0	
2	0	0	0	0	504	507	0	0	
3	0	0	0	0	505	508	0	0	
4	0	0	0	0	504	507	0	0	
5	0	0	0	0	506	510	0	0	
6	0	0	0	0	508	509	0	0	
7	0	0	0	0	511	510	0	0	
8	0	0	0	0	515	510	0	0	
9	0	0	0	0	519	511	0	0	
10	0	0	0	0	516	511	0	0	
11	0	0	0	0	517	510	0	0	
12	0	0	0	0	518	508	0	0	
13	0	0	0	0	518	507	0	0	
14	0	0	0	0	518	507	0	0	
15	0	0	0	0	515	505	0	0	
0	0	0	0	0	511	508	0	0	
1	0	0	0	0	510	507	0	0	
2	0	0	0	0	509	508	0	0	
3	0	0	0	0	503	508	0	0	
4	0	0	0	0	507	506	0	0	
5	0	0	0	0	505	508	0	0	
6	0	0	0	0	504	508	0	0	
7	0	0	0	0	504	507	0	0	
8	0	0	0	0	505	509	0	0	
9	0	0	0	0	510	507	0	0	
10	0	0	0	0	509	508	0	0	
11	0	0	0	0	511	509	0	0	
12	0	0	0	0	514	509	0	0	
13	0	0	0	0	515	509	0	0	
14	0	0	0	0	517	510	0	0	
15	0	0	0	0	518	510	0	0	
0	0	0	0	0	518	510	0	0	
1	0	0	0	0	515	508	0	0	
2	0	0	0	0	516	510	0	0	
3	0	0	0	0	513	508	0	0	
4	0	0	0	0	513	508	0	0	
5	0	0	0	0	511	508	0	0	
6	0	0	0	0	509	507	0	0	
7	0	0	0	0	508	506	0	0	
8	0	0	0	0	505	507	0	0	
9	0	0	0	0	505	507	0	0	
10	0	0	0	0	506	507	0	0	
11	0	0	0	0	506	507	0	0	
12	0	0	0	0	506	507	0	0	
13	0	0	0	0	506	507	0	0	
14	0	0	0	0	508	508	0	0	
15	0	0	0	0	511	509	0	0	
0	0	0	0	0	513	510	0	0	
1	0	0	0	0	515	508	0	0	
2	0	0	0	0	515	510	0	0	
3	0	0	0	0	518	508	0	0	
4	0	0	0	0	518	510	0	0	
5	0	0	0	0	517	509	0	0	
6	0	0	0	0	516	511	0	0	
7	0	0	0	0	514	508	0	0	
8	0	0	0	0	512	509	0	0	
9	0	0	0	0	510	507	0	0	
10	0	0	0	0	507	506	0	0	
11	0	0	0	0	508	507	0	0	
12	0	0	0	0	507	505	0	0	
13	0	0	0	0	504	505	0	0	
14	0	0	0	0	505	508	0	0	
15	0	0	0	0	506	508	0	0	
0	0	0	0	0	507	508	0	0	
1	0	0	0	0	508	510	0	0	
2	0	0	0	0	511	509	0	0	
3	0	0	0	0	511	508	0	0	
4	0	0	0	0	512	509	0	0	
5	0	0	0	0	515	510	0	0	
6	0	0	0	0	515	510	0	0	
7	0	0	0	0	517	507	0	0	
8	0	0	0	0	518	511	0	0	
9	0	0	0	0	516	509	0	0	
10	0	0	0	0	515	509	0	0	
11	0	0	0	0	514	509	0	0	
12	0	0	0	0	512	508	0	0	
13	0	0	0	0	512	507	0	0	
14	0	0	0	0	509	506	0	0	
15	0	0	0	0	506	507	0	0	
0	0	0	0	0	509	507	0	0	
1	0	0	0	0	504	505	0	0	
2	0	0	0	0	505	506	0	0	
3	0	0	0	0	505	508	0	0	
4	0	0	0	0	507	508	0	0	
5	0	0	0	0	507	508	0	0	
6	0	0	0	0	510	509	0	0	
7	0	0	0	0	510	508	0	0	
8	0	0	0	0	514	510	0	0	
9	0	0	0	0	514	510	0	0	
10	0	0	0	0	514	508	0	0	
11	0	0	0	0	516	508	0	0	
12	0	0	0	0	519	510	0	0	
13	0	0	0	0	519	508	0	0	
14	0	0	0	0	519	509	0	0	
15	0	0	0	0	515	508	0	0	
0	0	0	0	0	513	508	0	0	
1	0	0	0	0	508	507	0	0	
2	0	0	0	0	508	508	0	0	
3	0	0	0	0	508	507	0	0	
4	0	0	0	0	508	507	0	0	
5	0	0	0	0	505	507	0	0	
6	0	0	0	0	505	508	0	0	
7	0	0	0	0	505	507	0	0	
8	0	0	0	0	507	509	0	0	
9	0	0	0	0	508	507	0	0	
10	0	0	0	0	509	506	0	0	
11	0	0	0	0	512	510	0	0	
12	0	0	0	0	514	508	0	0	
13	0	0	0	0	515	509	0	0	
14	0	0	0	0	514	511	0	0	
15	0	0	0	0	516	509	0	0	
0	0	0	0	0	519	510	0	0	
1	0	0	0	0	516	508	0	0	
2	0	0	0	0	515	510	0	0	
3	0	0	0	0	512	509	0	0	
4	0	0	0	0	512	507	0	0	
5	0	0	0	0	511	507	0	0	
6	0	0	0	0	509	505	0	0	
7	0	0	0	0	508	505	0	0	
8	0	0	0	0	508	507	0	0	
9	0	0	0	0	506	507	0	0	
10	0	0	0	0	504	507	0	0	
11	0	0	0	0	505	507	0	0	
12	0	0	0	0	507	505	0	0	
13	0	0	0	0	506	508	0	0	
14	0	0	0	0	509	507	0	0	
15	0	0	0	0	511	508	0	0	
0	0	0	0	0	514	512	0	0	
1	0	0	0	0	513	510	0	0	
2	0	0	0	0	515	510	0	0	
3	0	0	0	0	518	511	0	0	
4	0	0	0	0	519	510	0	0	
5	0	0	0	0	516	509	0	0	
6	0	0	0	0	516	508	0	0	
7	0	0	0	0	514	506	0	0	
8	0	0	0	0	513	508	0	0	
9	0	0	0	0	510	507	0	0	
10	0	0	0	0	510	505	0	0	
11	0	0	0	0	508	507	0	0	
12	0	0	0	0	508	508	0	0	
13	0	0	0	0	505	510	0	0	
14	0	0	0	0	507	507	0	0	
15	0	0	0	0	505	508	0	0	
0	0	0	0	0	507	505	0	0	
1	0	0	0	0	507	509	0	0	
2	0	0	0	0	510	508	0	0	
3	0	0	0	0	512	507	0	0	
4	0	0	0	0	513	509	0	0	
5	0	0	0	0	513	510	0	0	
6	0	0	0	0	515	508	0	0	
7	0	0	0	0	518	509	0	0	
8	0	0	0	0	519	509	0	0	
9	0	0	0	0	517	509	0	0	
10	0	0	0	0	515	510	0	0	
11	0	0	0	0	512	509	0	0	
12	0	0	0	0	511	509	0	0	
13	0	0	0	0	511	504	0	0	
14	0	0	0	0	509	506	0	0	
15	0	0	0	0	507	505	0	0	
0	0	0	0	0	507	505	0	0	
1	0	0	0	0	505	506	0	0	
2	0	0	0	0	508	507	0	0	
3	0	0	0	0	507	509	0	0	
4	0	0	0	0	506	507	0	0	
5	0	0	0	0	507	507	0	0	
6	0	0	0	0	509	506	0	0	
7	0	0	0	0	509	508	0	0	
8	0	0	0	0	515	509	0	0	
9	0	0	0	0	516	508	0	0	
10	0	0	0	0	516	511	0	0	
11	0	0	0	0	518	510	0	0	
12	0	0	0	0	516	510	0	0	
13	0	0	0	0	516	512	0	0	
14	0	0	0	0	516	509	0	0	
15	0	0	0	0	512	507	0	0	
0	0	0	0	0	512	507	0	0	
1	0	0	0	0	511	508	0	0	
2	0	0	0	0	510	507	0	0	
3	0	0	0	0	508	510	0	0	
4	0	0	0	0	507	507	0	0	
5	0	0	0	0	502	506	0	0	
6	0	0	0	0	506	505	0	0	
7	0	0	0	0	505	506	0	0	
8	0	0	0	0	508	507	0	0	
9	0	0	0	0	508	508	0	0	
10	0	0	0	0	509	507	0	0	
11	0	0	0	0	511	508	0	0	
12	0	0	0	0	512	510	0	0	
13	0	0	0	0	515	509	0	0	
14	0	0	0	0	515	508	0	0	
15	0	0	0	0	518	510	0	0	
0	0	0	0	0	519	511	0	0	
1	0	0	0	0	517	507	0	0	
2	0	0	0	0	516	510	0	0	
3	0	0	0	0	514	510	0	0	
4	0	0	0	0	511	507	0	0	
