# OpenSignals Text File Format. Version 1
# {"20:18:06:13:21:78": {"position": 0, "device": "bitalino_rev", "device name": "20:18:06:13:21:78", "device connection": "BTH20:18:06:13:21:78", "sampling rate": 1000, "resolution": [4, 1, 1, 1, 1, 10, 10, 10, 10], "firmware version": 1281, "comments": "", "keywords": "", "mode": 0, "sync interval": 2, "date": "2023-6-5", "time": "20:5:38.398", "channels": [1, 2, 3, 4], "sensor": ["EMGBITREV", "EMGBITREV", "RAW", "RAW"], "label": ["A1", "A2", "A3", "A4"], "column": ["nSeq", "I1", "I2", "O1", "O2", "A1", "A2", "A3", "A4"], "special": [{}, {}, {}, {}], "digital IO": [0, 0, 1, 1]}}
# EndOfHeader
0	0	0	0	0	512	509	0	0	
1	0	0	0	0	514	509	0	0	
2	0	0	0	0	512	508	0	0	
3	0	0	0	0	513	508	0	0	
4	0	0	0	0	512	508	0	0	
5	0	0	0	0	512	509	0	0	
6	0	0	0	0	511	508	0	0	
7	0	0	0	0	511	508	0	0	
8	0	0	0	0	511	507	0	0	
9	0	0	0	0	511	506	0	0	
10	0	0	0	0	512	508	0	0	
11	0	0	0	0	510	507	0	0	
12	0	0	0	0	508	508	0	0	
13	0	0	0	0	508	506	0	0	
14	0	0	0	0	511	508	0	0	
15	0	0	0	0	509	508	0	0	
0	0	0	0	0	512	508	0	0	
1	0	0	0	0	510	508	0	0	
2	0	0	0	0	511	508	0	0	
3	0	0	0	0	510	509	0	0	
4	0	0	0	0	513	508	0	0	
5	0	0	0	0	512	507	0	0	
6	0	0	0	0	511	508	0	0	
7	0	0	0	0	512	508	0	0	
8	0	0	0	0	512	508	0	0	
9	0	0	0	0	511	510	0	0	
10	0	0	0	0	512	508	0	0	
11	0	0	0	0	512	507	0	0	
12	0	0	0	0	511	508	0	0	
13	0	0	0	0	511	508	0	0	
14	0	0	0	0	511	507	0	0	
15	0	0	0	0	509	508	0	0	
0	0	0	0	0	507	507	0	0	
1	0	0	0	0	508	508	0	0	
2	0	0	0	0	508	508	0	0	
3	0	0	0	0	508	507	0	0	
4	0	0	0	0	510	510	0	0	
5	0	0	0	0	511	510	0	0	
6	0	0	0	0	512	507	0	0	
7	0	0	0	0	513	509	0	0	
8	0	0	0	0	512	509	0	0	
9	0	0	0	0	514	507	0	0	
10	0	0	0	0	512	508	0	0	
11	0	0	0	0	513	507	0	0	
12	0	0	0	0	513	508	0	0	
13	0	0	0	0	514	508	0	0	
14	0	0	0	0	512	507	0	0	
15	0	0	0	0	512	508	0	0	
0	0	0	0	0	510	508	0	0	
1	0	0	0	0	512	508	0	0	
2	0	0	0	0	509	510	0	0	
3	0	0	0	0	508	507	0	0	
4	0	0	0	0	507	506	0	0	
5	0	0	0	0	510	508	0	0	
6	0	0	0	0	511	510	0	0	
7	0	0	0	0	509	507	0	0	
8	0	0	0	0	509	508	0	0	
9	0	0	0	0	511	510	0	0	
10	0	0	0	0	511	507	0	0	
11	0	0	0	0	511	509	0	0	
12	0	0	0	0	514	510	0	0	
13	0	0	0	0	513	509	0	0	
14	0	0	0	0	514	507	0	0	
15	0	0	0	0	514	509	0	0	
0	0	0	0	0	514	508	0	0	
1	0	0	0	0	514	507	0	0	
2	0	0	0	0	511	508	0	0	
3	0	0	0	0	511	507	0	0	
4	0	0	0	0	511	508	0	0	
5	0	0	0	0	509	508	0	0	
6	0	0	0	0	509	509	0	0	
7	0	0	0	0	510	507	0	0	
8	0	0	0	0	510	508	0	0	
9	0	0	0	0	510	508	0	0	
10	0	0	0	0	507	509	0	0	
11	0	0	0	0	508	508	0	0	
12	0	0	0	0	510	509	0	0	
13	0	0	0	0	511	507	0	0	
14	0	0	0	0	510	508	0	0	
15	0	0	0	0	511	510	0	0	
0	0	0	0	0	511	507	0	0	
1	0	0	0	0	513	509	0	0	
2	0	0	0	0	514	505	0	0	
3	0	0	0	0	514	506	0	0	
4	0	0	0	0	515	508	0	0	
5	0	0	0	0	512	508	0	0	
6	0	0	0	0	511	507	0	0	
7	0	0	0	0	511	508	0	0	
8	0	0	0	0	511	508	0	0	
9	0	0	0	0	509	509	0	0	
10	0	0	0	0	511	508	0	0	
11	0	0	0	0	510	508	0	0	
12	0	0	0	0	509	508	0	0	
13	0	0	0	0	508	507	0	0	
14	0	0	0	0	510	507	0	0	
15	0	0	0	0	511	509	0	0	
0	0	0	0	0	509	508	0	0	
1	0	0	0	0	511	508	0	0	
2	0	0	0	0	512	509	0	0	
3	0	0	0	0	512	509	0	0	
4	0	0	0	0	512	507	0	0	
5	0	0	0	0	511	508	0	0	
6	0	0	0	0	513	507	0	0	
7	0	0	0	0	513	508	0	0	
8	0	0	0	0	513	510	0	0	
9	0	0	0	0	513	507	0	0	
10	0	0	0	0	511	507	0	0	
11	0	0	0	0	511	506	0	0	
12	0	0	0	0	512	509	0	0	
13	0	0	0	0	510	508	0	0	
14	0	0	0	0	510	509	0	0	
15	0	0	0	0	510	508	0	0	
0	0	0	0	0	507	507	0	0	
1	0	0	0	0	508	508	0	0	
2	0	0	0	0	510	507	0	0	
3	0	0	0	0	510	509	0	0	
4	0	0	0	0	510	510	0	0	
5	0	0	0	0	510	507	0	0	
6	0	0	0	0	512	508	0	0	
7	0	0	0	0	513	509	0	0	
8	0	0	0	0	514	506	0	0	
9	0	0	0	0	512	508	0	0	
10	0	0	0	0	514	508	0	0	
11	0	0	0	0	513	509	0	0	
12	0	0	0	0	513	508	0	0	
13	0	0	0	0	513	508	0	0	
14	0	0	0	0	511	510	0	0	
15	0	0	0	0	510	507	0	0	
0	0	0	0	0	509	507	0	0	
1	0	0	0	0	508	510	0	0	
2	0	0	0	0	508	507	0	0	
3	0	0	0	0	509	506	0	0	
4	0	0	0	0	508	508	0	0	
5	0	0	0	0	508	508	0	0	
6	0	0	0	0	509	508	0	0	
7	0	0	0	0	510	509	0	0	
8	0	0	0	0	512	509	0	0	
9	0	0	0	0	511	508	0	0	
10	0	0	0	0	511	510	0	0	
11	0	0	0	0	511	507	0	0	
12	0	0	0	0	513	508	0	0	
13	0	0	0	0	512	508	0	0	
14	0	0	0	0	511	506	0	0	
15	0	0	0	0	514	509	0	0	
0	0	0	0	0	513	508	0	0	
1	0	0	0	0	512	508	0	0	
2	0	0	0	0	511	508	0	0	
3	0	0	0	0	510	507	0	0	
4	0	0	0	0	511	508	0	0	
5	0	0	0	0	509	508	0	0	
6	0	0	0	0	511	508	0	0	
7	0	0	0	0	512	510	0	0	
8	0	0	0	0	509	508	0	0	
9	0	0	0	0	506	506	0	0	
10	0	0	0	0	510	509	0	0	
11	0	0	0	0	510	507	0	0	
12	0	0	0	0	511	510	0	0	
13	0	0	0	0	511	508	0	0	
14	0	0	0	0	514	508	0	0	
15	0	0	0	0	512	509	0	0	
0	0	0	0	0	513	507	0	0	
1	0	0	0	0	514	509	0	0	
2	0	0	0	0	511	510	0	0	
3	0	0	0	0	513	507	0	0	
4	0	0	0	0	513	507	0	0	
5	0	0	0	0	513	510	0	0	
6	0	0	0	0	513	508	0	0	
7	0	0	0	0	511	505	0	0	
8	0	0	0	0	507	507	0	0	
9	0	0	0	0	510	507	0	0	
10	0	0	0	0	511	508	0	0	
11	0	0	0	0	507	509	0	0	
12	0	0	0	0	505	508	0	0	
13	0	0	0	0	508	508	0	0	
14	0	0	0	0	508	507	0	0	
15	0	0	0	0	509	507	0	0	
0	0	0	0	0	509	507	0	0	
1	0	0	0	0	512	509	0	0	
2	0	0	0	0	512	507	0	0	
3	0	0	0	0	512	509	0	0	
4	0	0	0	0	513	508	0	0	
5	0	0	0	0	512	508	0	0	
6	0	0	0	0	513	508	0	0	
7	0	0	0	0	515	510	0	0	
8	0	0	0	0	512	510	0	0	
9	0	0	0	0	514	508	0	0	
10	0	0	0	0	511	507	0	0	
11	0	0	0	0	511	508	0	0	
12	0	0	0	0	509	507	0	0	
13	0	0	0	0	512	508	0	0	
14	0	0	0	0	508	505	0	0	
15	0	0	0	0	510	508	0	0	
0	0	0	0	0	508	509	0	0	
1	0	0	0	0	507	507	0	0	
2	0	0	0	0	509	508	0	0	
3	0	0	0	0	508	506	0	0	
4	0	0	0	0	511	507	0	0	
5	0	0	0	0	512	508	0	0	
6	0	0	0	0	509	508	0	0	
7	0	0	0	0	511	510	0	0	
8	0	0	0	0	511	511	0	0	
9	0	0	0	0	515	508	0	0	
10	0	0	0	0	513	509	0	0	
11	0	0	0	0	516	509	0	0	
12	0	0	0	0	513	508	0	0	
13	0	0	0	0	513	507	0	0	
14	0	0	0	0	511	509	0	0	
15	0	0	0	0	510	507	0	0	
0	0	0	0	0	510	505	0	0	
1	0	0	0	0	512	508	0	0	
2	0	0	0	0	510	508	0	0	
3	0	0	0	0	508	506	0	0	
4	0	0	0	0	511	506	0	0	
5	0	0	0	0	508	507	0	0	
6	0	0	0	0	510	506	0	0	
7	0	0	0	0	511	507	0	0	
8	0	0	0	0	510	508	0	0	
9	0	0	0	0	511	511	0	0	
10	0	0	0	0	511	510	0	0	
11	0	0	0	0	514	509	0	0	
12	0	0	0	0	511	508	0	0	
13	0	0	0	0	514	508	0	0	
14	0	0	0	0	514	508	0	0	
15	0	0	0	0	514	507	0	0	
0	0	0	0	0	515	508	0	0	
1	0	0	0	0	510	507	0	0	
2	0	0	0	0	511	507	0	0	
3	0	0	0	0	510	507	0	0	
4	0	0	0	0	511	508	0	0	
5	0	0	0	0	510	509	0	0	
6	0	0	0	0	509	506	0	0	
7	0	0	0	0	508	508	0	0	
8	0	0	0	0	507	507	0	0	
9	0	0	0	0	508	510	0	0	
10	0	0	0	0	509	509	0	0	
11	0	0	0	0	511	509	0	0	
12	0	0	0	0	512	509	0	0	
13	0	0	0	0	510	507	0	0	
14	0	0	0	0	511	508	0	0	
15	0	0	0	0	513	510	0	0	
0	0	0	0	0	513	510	0	0	
1	0	0	0	0	516	508	0	0	
2	0	0	0	0	513	508	0	0	
3	0	0	0	0	513	508	0	0	
4	0	0	0	0	512	508	0	0	
5	0	0	0	0	511	507	0	0	
6	0	0	0	0	513	507	0	0	
7	0	0	0	0	510	506	0	0	
8	0	0	0	0	509	507	0	0	
9	0	0	0	0	509	508	0	0	
10	0	0	0	0	511	507	0	0	
11	0	0	0	0	509	507	0	0	
12	0	0	0	0	508	507	0	0	
13	0	0	0	0	508	506	0	0	
14	0	0	0	0	509	508	0	0	
15	0	0	0	0	510	508	0	0	
0	0	0	0	0	511	510	0	0	
1	0	0	0	0	512	507	0	0	
2	0	0	0	0	512	508	0	0	
3	0	0	0	0	514	508	0	0	
4	0	0	0	0	514	508	0	0	
5	0	0	0	0	511	508	0	0	
6	0	0	0	0	516	509	0	0	
7	0	0	0	0	510	510	0	0	
8	0	0	0	0	513	510	0	0	
9	0	0	0	0	510	507	0	0	
10	0	0	0	0	511	507	0	0	
11	0	0	0	0	511	508	0	0	
12	0	0	0	0	509	508	0	0	
13	0	0	0	0	512	508	0	0	
14	0	0	0	0	509	508	0	0	
15	0	0	0	0	510	506	0	0	
0	0	0	0	0	509	507	0	0	
1	0	0	0	0	508	508	0	0	
2	0	0	0	0	508	508	0	0	
3	0	0	0	0	510	509	0	0	
4	0	0	0	0	508	507	0	0	
5	0	0	0	0	509	507	0	0	
6	0	0	0	0	512	508	0	0	
7	0	0	0	0	514	509	0	0	
8	0	0	0	0	513	509	0	0	
9	0	0	0	0	512	508	0	0	
10	0	0	0	0	512	508	0	0	
11	0	0	0	0	514	510	0	0	
12	0	0	0	0	513	509	0	0	
13	0	0	0	0	515	509	0	0	
14	0	0	0	0	511	506	0	0	
15	0	0	0	0	512	508	0	0	
0	0	0	0	0	510	508	0	0	
1	0	0	0	0	512	507	0	0	
2	0	0	0	0	508	507	0	0	
3	0	0	0	0	508	508	0	0	
4	0	0	0	0	509	509	0	0	
5	0	0	0	0	507	509	0	0	
6	0	0	0	0	509	507	0	0	
7	0	0	0	0	508	507	0	0	
8	0	0	0	0	511	507	0	0	
9	0	0	0	0	513	508	0	0	
10	0	0	0	0	512	507	0	0	
11	0	0	0	0	510	508	0	0	
12	0	0	0	0	512	508	0	0	
13	0	0	0	0	514	510	0	0	
14	0	0	0	0	513	509	0	0	
15	0	0	0	0	512	508	0	0	
0	0	0	0	0	515	507	0	0	
1	0	0	0	0	513	507	0	0	
2	0	0	0	0	510	508	0	0	
3	0	0	0	0	512	508	0	0	
4	0	0	0	0	509	508	0	0	
5	0	0	0	0	510	509	0	0	
6	0	0	0	0	510	505	0	0	
7	0	0	0	0	509	506	0	0	
8	0	0	0	0	509	510	0	0	
9	0	0	0	0	508	507	0	0	
10	0	0	0	0	509	508	0	0	
11	0	0	0	0	509	507	0	0	
12	0	0	0	0	511	509	0	0	
13	0	0	0	0	511	508	0	0	
14	0	0	0	0	512	508	0	0	
15	0	0	0	0	511	509	0	0	
0	0	0	0	0	512	509	0	0	
1	0	0	0	0	513	508	0	0	
2	0	0	0	0	513	508	0	0	
3	0	0	0	0	515	510	0	0	
4	0	0	0	0	514	507	0	0	
5	0	0	0	0	511	507	0	0	
6	0	0	0	0	512	510	0	0	
7	0	0	0	0	512	507	0	0	
8	0	0	0	0	510	507	0	0	
9	0	0	0	0	509	508	0	0	
10	0	0	0	0	508	507	0	0	
11	0	0	0	0	508	508	0	0	
12	0	0	0	0	507	507	0	0	
13	0	0	0	0	508	508	0	0	
14	0	0	0	0	511	509	0	0	
15	0	0	0	0	510	507	0	0	
0	0	0	0	0	510	507	0	0	
1	0	0	0	0	511	509	0	0	
2	0	0	0	0	509	511	0	0	
3	0	0	0	0	512	509	0	0	
4	0	0	0	0	512	507	0	0	
5	0	0	0	0	513	509	0	0	
6	0	0	0	0	513	507	0	0	
7	0	0	0	0	515	508	0	0	
8	0	0	0	0	513	509	0	0	
9	0	0	0	0	514	508	0	0	
10	0	0	0	0	514	507	0	0	
11	0	0	0	0	510	508	0	0	
12	0	0	0	0	511	508	0	0	
13	0	0	0	0	510	508	0	0	
14	0	0	0	0	509	508	0	0	
15	0	0	0	0	507	507	0	0	
0	0	0	0	0	509	508	0	0	
1	0	0	0	0	507	507	0	0	
2	0	0	0	0	508	508	0	0	
3	0	0	0	0	508	510	0	0	
4	0	0	0	0	509	509	0	0	
5	0	0	0	0	512	507	0	0	
6	0	0	0	0	513	509	0	0	
7	0	0	0	0	515	508	0	0	
8	0	0	0	0	513	508	0	0	
9	0	0	0	0	513	508	0	0	
10	0	0	0	0	513	507	0	0	
11	0	0	0	0	511	510	0	0	
12	0	0	0	0	513	508	0	0	
13	0	0	0	0	512	508	0	0	
14	0	0	0	0	512	505	0	0	
15	0	0	0	0	510	508	0	0	
0	0	0	0	0	510	509	0	0	
1	0	0	0	0	510	508	0	0	
2	0	0	0	0	510	506	0	0	
3	0	0	0	0	510	507	0	0	
4	0	0	0	0	510	509	0	0	
5	0	0	0	0	510	510	0	0	
6	0	0	0	0	510	508	0	0	
7	0	0	0	0	511	510	0	0	
8	0	0	0	0	511	505	0	0	
9	0	0	0	0	511	507	0	0	
10	0	0	0	0	512	510	0	0	
11	0	0	0	0	512	509	0	0	
12	0	0	0	0	512	508	0	0	
13	0	0	0	0	513	509	0	0	
14	0	0	0	0	514	509	0	0	
15	0	0	0	0	514	507	0	0	
0	0	0	0	0	512	509	0	0	
1	0	0	0	0	511	508	0	0	
2	0	0	0	0	512	509	0	0	
3	0	0	0	0	510	507	0	0	
4	0	0	0	0	511	507	0	0	
5	0	0	0	0	508	508	0	0	
6	0	0	0	0	510	508	0	0	
7	0	0	0	0	507	507	0	0	
8	0	0	0	0	511	508	0	0	
9	0	0	0	0	510	508	0	0	
10	0	0	0	0	509	508	0	0	
11	0	0	0	0	509	506	0	0	
12	0	0	0	0	509	509	0	0	
13	0	0	0	0	510	507	0	0	
14	0	0	0	0	511	508	0	0	
15	0	0	0	0	514	511	0	0	
0	0	0	0	0	513	509	0	0	
1	0	0	0	0	513	508	0	0	
2	0	0	0	0	512	508	0	0	
3	0	0	0	0	515	509	0	0	
4	0	0	0	0	512	510	0	0	
5	0	0	0	0	512	508	0	0	
6	0	0	0	0	513	507	0	0	
7	0	0	0	0	512	507	0	0	
8	0	0	0	0	510	507	0	0	
9	0	0	0	0	510	508	0	0	
10	0	0	0	0	508	507	0	0	
11	0	0	0	0	509	507	0	0	
12	0	0	0	0	508	506	0	0	
13	0	0	0	0	509	506	0	0	
14	0	0	0	0	507	509	0	0	
15	0	0	0	0	508	508	0	0	
0	0	0	0	0	509	508	0	0	
1	0	0	0	0	510	509	0	0	
2	0	0	0	0	514	509	0	0	
3	0	0	0	0	514	509	0	0	
4	0	0	0	0	512	508	0	0	
5	0	0	0	0	513	510	0	0	
6	0	0	0	0	512	507	0	0	
7	0	0	0	0	514	506	0	0	
8	0	0	0	0	513	508	0	0	
9	0	0	0	0	512	508	0	0	
10	0	0	0	0	512	509	0	0	
11	0	0	0	0	512	508	0	0	
12	0	0	0	0	512	509	0	0	
13	0	0	0	0	507	507	0	0	
14	0	0	0	0	510	507	0	0	
15	0	0	0	0	509	508	0	0	
0	0	0	0	0	509	508	0	0	
1	0	0	0	0	509	507	0	0	
2	0	0	0	0	509	507	0	0	
3	0	0	0	0	509	507	0	0	
4	0	0	0	0	511	508	0	0	
5	0	0	0	0	512	509	0	0	
6	0	0	0	0	513	508	0	0	
7	0	0	0	0	515	508	0	0	
8	0	0	0	0	514	509	0	0	
9	0	0	0	0	512	511	0	0	
10	0	0	0	0	513	509	0	0	
11	0	0	0	0	515	507	0	0	
12	0	0	0	0	512	507	0	0	
13	0	0	0	0	510	507	0	0	
14	0	0	0	0	513	508	0	0	
15	0	0	0	0	512	507	0	0	
0	0	0	0	0	511	507	0	0	
1	0	0	0	0	509	507	0	0	
2	0	0	0	0	508	505	0	0	
3	0	0	0	0	508	508	0	0	
4	0	0	0	0	509	507	0	0	
5	0	0	0	0	509	508	0	0	
6	0	0	0	0	510	507	0	0	
7	0	0	0	0	509	509	0	0	
8	0	0	0	0	510	509	0	0	
9	0	0	0	0	510	508	0	0	
10	0	0	0	0	513	508	0	0	
11	0	0	0	0	514	510	0	0	
12	0	0	0	0	513	509	0	0	
13	0	0	0	0	513	509	0	0	
14	0	0	0	0	512	508	0	0	
15	0	0	0	0	513	508	0	0	
0	0	0	0	0	515	508	0	0	
1	0	0	0	0	512	506	0	0	
2	0	0	0	0	512	507	0	0	
3	0	0	0	0	511	510	0	0	
4	0	0	0	0	509	508	0	0	
5	0	0	0	0	510	508	0	0	
6	0	0	0	0	510	508	0	0	
7	0	0	0	0	510	508	0	0	
8	0	0	0	0	508	508	0	0	
9	0	0	0	0	507	506	0	0	
10	0	0	0	0	510	508	0	0	
11	0	0	0	0	508	507	0	0	
12	0	0	0	0	509	507	0	0	
13	0	0	0	0	510	509	0	0	
14	0	0	0	0	513	509	0	0	
15	0	0	0	0	512	509	0	0	
0	0	0	0	0	512	508	0	0	
1	0	0	0	0	515	508	0	0	
2	0	0	0	0	512	509	0	0	
3	0	0	0	0	513	509	0	0	
4	0	0	0	0	513	508	0	0	
5	0	0	0	0	512	506	0	0	
6	0	0	0	0	514	508	0	0	
7	0	0	0	0	512	507	0	0	
8	0	0	0	0	511	507	0	0	
9	0	0	0	0	512	508	0	0	
10	0	0	0	0	509	508	0	0	
11	0	0	0	0	508	508	0	0	
12	0	0	0	0	508	507	0	0	
13	0	0	0	0	508	508	0	0	
14	0	0	0	0	507	507	0	0	
15	0	0	0	0	509	505	0	0	
0	0	0	0	0	509	507	0	0	
1	0	0	0	0	512	509	0	0	
2	0	0	0	0	511	510	0	0	
3	0	0	0	0	511	511	0	0	
4	0	0	0	0	511	508	0	0	
5	0	0	0	0	513	509	0	0	
6	0	0	0	0	515	508	0	0	
7	0	0	0	0	513	507	0	0	
8	0	0	0	0	514	507	0	0	
9	0	0	0	0	511	508	0	0	
10	0	0	0	0	510	508	0	0	
11	0	0	0	0	512	508	0	0	
12	0	0	0	0	511	508	0	0	
13	0	0	0	0	509	508	0	0	
14	0	0	0	0	508	507	0	0	
15	0	0	0	0	511	508	0	0	
0	0	0	0	0	511	508	0	0	
1	0	0	0	0	510	509	0	0	
2	0	0	0	0	510	507	0	0	
3	0	0	0	0	510	510	0	0	
4	0	0	0	0	508	508	0	0	
5	0	0	0	0	510	507	0	0	
6	0	0	0	0	514	508	0	0	
7	0	0	0	0	512	510	0	0	
8	0	0	0	0	513	508	0	0	
9	0	0	0	0	511	508	0	0	
10	0	0	0	0	513	508	0	0	
11	0	0	0	0	514	510	0	0	
12	0	0	0	0	513	508	0	0	
13	0	0	0	0	513	507	0	0	
14	0	0	0	0	513	507	0	0	
15	0	0	0	0	511	507	0	0	
0	0	0	0	0	510	508	0	0	
1	0	0	0	0	510	505	0	0	
2	0	0	0	0	508	507	0	0	
3	0	0	0	0	510	507	0	0	
4	0	0	0	0	508	506	0	0	
5	0	0	0	0	506	510	0	0	
6	0	0	0	0	510	510	0	0	
7	0	0	0	0	507	508	0	0	
8	0	0	0	0	509	508	0	0	
9	0	0	0	0	511	507	0	0	
10	0	0	0	0	513	508	0	0	
11	0	0	0	0	514	509	0	0	
12	0	0	0	0	514	508	0	0	
13	0	0	0	0	512	508	0	0	
14	0	0	0	0	511	509	0	0	
15	0	0	0	0	513	508	0	0	
0	0	0	0	0	512	509	0	0	
1	0	0	0	0	512	509	0	0	
2	0	0	0	0	513	508	0	0	
3	0	0	0	0	512	508	0	0	
4	0	0	0	0	511	509	0	0	
5	0	0	0	0	512	506	0	0	
6	0	0	0	0	510	506	0	0	
7	0	0	0	0	506	506	0	0	
8	0	0	0	0	507	508	0	0	
9	0	0	0	0	511	508	0	0	
10	0	0	0	0	508	508	0	0	
11	0	0	0	0	508	508	0	0	
12	0	0	0	0	509	508	0	0	
13	0	0	0	0	510	509	0	0	
14	0	0	0	0	510	507	0	0	
15	0	0	0	0	512	508	0	0	
0	0	0	0	0	514	509	0	0	
1	0	0	0	0	513	508	0	0	
2	0	0	0	0	513	508	0	0	
3	0	0	0	0	511	507	0	0	
4	0	0	0	0	512	509	0	0	
5	0	0	0	0	512	508	0	0	
6	0	0	0	0	511	507	0	0	
7	0	0	0	0	511	507	0	0	
8	0	0	0	0	511	508	0	0	
9	0	0	0	0	511	508	0	0	
10	0	0	0	0	509	507	0	0	
11	0	0	0	0	511	508	0	0	
12	0	0	0	0	509	507	0	0	
13	0	0	0	0	509	507	0	0	
14	0	0	0	0	510	508	0	0	
15	0	0	0	0	508	509	0	0	
0	0	0	0	0	508	509	0	0	
1	0	0	0	0	512	508	0	0	
2	0	0	0	0	511	509	0	0	
3	0	0	0	0	513	509	0	0	
4	0	0	0	0	514	507	0	0	
5	0	0	0	0	512	507	0	0	
6	0	0	0	0	513	508	0	0	
7	0	0	0	0	514	509	0	0	
8	0	0	0	0	513	509	0	0	
9	0	0	0	0	511	509	0	0	
10	0	0	0	0	510	508	0	0	
11	0	0	0	0	511	507	0	0	
12	0	0	0	0	509	507	0	0	
13	0	0	0	0	511	508	0	0	
14	0	0	0	0	511	508	0	0	
15	0	0	0	0	509	509	0	0	
0	0	0	0	0	509	507	0	0	
1	0	0	0	0	509	508	0	0	
2	0	0	0	0	508	508	0	0	
3	0	0	0	0	508	509	0	0	
4	0	0	0	0	510	510	0	0	
5	0	0	0	0	508	508	0	0	
6	0	0	0	0	509	508	0	0	
7	0	0	0	0	513	509	0	0	
8	0	0	0	0	513	508	0	0	
9	0	0	0	0	515	508	0	0	
10	0	0	0	0	512	508	0	0	
11	0	0	0	0	511	507	0	0	
12	0	0	0	0	514	508	0	0	
13	0	0	0	0	514	506	0	0	
14	0	0	0	0	513	507	0	0	
15	0	0	0	0	510	508	0	0	
0	0	0	0	0	511	508	0	0	
1	0	0	0	0	511	508	0	0	
2	0	0	0	0	509	508	0	0	
3	0	0	0	0	511	507	0	0	
4	0	0	0	0	510	508	0	0	
5	0	0	0	0	508	510	0	0	
6	0	0	0	0	509	507	0	0	
7	0	0	0	0	508	510	0	0	
8	0	0	0	0	510	509	0	0	
9	0	0	0	0	510	508	0	0	
10	0	0	0	0	512	509	0	0	
11	0	0	0	0	513	509	0	0	
12	0	0	0	0	512	509	0	0	
13	0	0	0	0	513	508	0	0	
14	0	0	0	0	514	509	0	0	
15	0	0	0	0	511	507	0	0	
0	0	0	0	0	512	509	0	0	
1	0	0	0	0	513	507	0	0	
2	0	0	0	0	513	508	0	0	
3	0	0	0	0	513	507	0	0	
4	0	0	0	0	508	508	0	0	
5	0	0	0	0	510	507	0	0	
6	0	0	0	0	508	508	0	0	
7	0	0	0	0	506	507	0	0	
8	0	0	0	0	509	509	0	0	
9	0	0	0	0	510	506	0	0	
10	0	0	0	0	511	508	0	0	
11	0	0	0	0	508	509	0	0	
12	0	0	0	0	511	508	0	0	
13	0	0	0	0	509	505	0	0	
14	0	0	0	0	512	509	0	0	
15	0	0	0	0	513	510	0	0	
0	0	0	0	0	514	509	0	0	
1	0	0	0	0	515	509	0	0	
2	0	0	0	0	513	511	0	0	
3	0	0	0	0	514	508	0	0	
4	0	0	0	0	512	506	0	0	
5	0	0	0	0	509	505	0	0	
6	0	0	0	0	513	508	0	0	
7	0	0	0	0	511	508	0	0	
8	0	0	0	0	511	508	0	0	
9	0	0	0	0	510	508	0	0	
10	0	0	0	0	510	507	0	0	
11	0	0	0	0	508	509	0	0	
12	0	0	0	0	506	507	0	0	
13	0	0	0	0	508	508	0	0	
14	0	0	0	0	510	508	0	0	
15	0	0	0	0	511	507	0	0	
0	0	0	0	0	510	507	0	0	
1	0	0	0	0	510	509	0	0	
2	0	0	0	0	512	509	0	0	
3	0	0	0	0	513	509	0	0	
4	0	0	0	0	513	507	0	0	
5	0	0	0	0	513	509	0	0	
6	0	0	0	0	514	507	0	0	
7	0	0	0	0	514	510	0	0	
8	0	0	0	0	513	508	0	0	
9	0	0	0	0	511	508	0	0	
10	0	0	0	0	512	506	0	0	
11	0	0	0	0	513	506	0	0	
12	0	0	0	0	511	507	0	0	
13	0	0	0	0	511	508	0	0	
14	0	0	0	0	508	507	0	0	
15	0	0	0	0	507	508	0	0	
0	0	0	0	0	508	505	0	0	
1	0	0	0	0	508	506	0	0	
2	0	0	0	0	509	508	0	0	
3	0	0	0	0	507	506	0	0	
4	0	0	0	0	510	509	0	0	
5	0	0	0	0	511	508	0	0	
6	0	0	0	0	511	508	0	0	
7	0	0	0	0	512	508	0	0	
8	0	0	0	0	514	509	0	0	
9	0	0	0	0	512	508	0	0	
10	0	0	0	0	513	508	0	0	
11	0	0	0	0	513	507	0	0	
12	0	0	0	0	509	508	0	0	
13	0	0	0	0	511	506	0	0	
14	0	0	0	0	512	508	0	0	
15	0	0	0	0	510	507	0	0	
0	0	0	0	0	513	509	0	0	
1	0	0	0	0	511	508	0	0	
2	0	0	0	0	510	510	0	0	
3	0	0	0	0	511	508	0	0	
4	0	0	0	0	510	507	0	0	
5	0	0	0	0	510	508	0	0	
6	0	0	0	0	507	509	0	0	
7	0	0	0	0	509	509	0	0	
8	0	0	0	0	511	509	0	0	
9	0	0	0	0	512	509	0	0	
10	0	0	0	0	512	508	0	0	
11	0	0	0	0	515	507	0	0	
12	0	0	0	0	511	510	0	0	
13	0	0	0	0	513	508	0	0	
14	0	0	0	0	511	509	0	0	
15	0	0	0	0	513	506	0	0	
0	0	0	0	0	512	509	0	0	
1	0	0	0	0	512	507	0	0	
2	0	0	0	0	511	507	0	0	
3	0	0	0	0	513	507	0	0	
4	0	0	0	0	513	508	0	0	
5	0	0	0	0	510	505	0	0	
6	0	0	0	0	509	509	0	0	
7	0	0	0	0	509	509	0	0	
8	0	0	0	0	508	507	0	0	
9	0	0	0	0	509	508	0	0	
10	0	0	0	0	508	508	0	0	
11	0	0	0	0	510	507	0	0	
12	0	0	0	0	511	507	0	0	
13	0	0	0	0	511	508	0	0	
14	0	0	0	0	510	509	0	0	
15	0	0	0	0	514	508	0	0	
0	0	0	0	0	512	508	0	0	
1	0	0	0	0	513	508	0	0	
2	0	0	0	0	512	508	0	0	
3	0	0	0	0	513	509	0	0	
4	0	0	0	0	513	507	0	0	
5	0	0	0	0	512	506	0	0	
6	0	0	0	0	512	507	0	0	
7	0	0	0	0	511	507	0	0	
8	0	0	0	0	509	508	0	0	
9	0	0	0	0	508	507	0	0	
10	0	0	0	0	509	508	0	0	
11	0	0	0	0	508	508	0	0	
12	0	0	0	0	507	506	0	0	
13	0	0	0	0	508	508	0	0	
14	0	0	0	0	511	508	0	0	
15	0	0	0	0	510	509	0	0	
0	0	0	0	0	510	509	0	0	
1	0	0	0	0	509	506	0	0	
2	0	0	0	0	511	507	0	0	
3	0	0	0	0	513	511	0	0	
4	0	0	0	0	513	509	0	0	
5	0	0	0	0	513	510	0	0	
6	0	0	0	0	511	507	0	0	
7	0	0	0	0	515	507	0	0	
8	0	0	0	0	513	508	0	0	
9	0	0	0	0	512	507	0	0	
10	0	0	0	0	511	509	0	0	
11	0	0	0	0	512	508	0	0	
12	0	0	0	0	512	508	0	0	
13	0	0	0	0	510	508	0	0	
14	0	0	0	0	509	508	0	0	
15	0	0	0	0	507	508	0	0	
0	0	0	0	0	508	508	0	0	
1	0	0	0	0	509	508	0	0	
2	0	0	0	0	511	507	0	0	
3	0	0	0	0	508	510	0	0	
4	0	0	0	0	510	508	0	0	
5	0	0	0	0	509	508	0	0	
6	0	0	0	0	512	510	0	0	
7	0	0	0	0	512	509	0	0	
8	0	0	0	0	513	505	0	0	
9	0	0	0	0	515	508	0	0	
10	0	0	0	0	513	509	0	0	
11	0	0	0	0	514	508	0	0	
12	0	0	0	0	514	507	0	0	
13	0	0	0	0	513	507	0	0	
14	0	0	0	0	512	509	0	0	
15	0	0	0	0	510	509	0	0	
0	0	0	0	0	511	506	0	0	
1	0	0	0	0	509	508	0	0	
2	0	0	0	0	510	507	0	0	
3	0	0	0	0	510	508	0	0	
4	0	0	0	0	511	508	0	0	
5	0	0	0	0	509	508	0	0	
6	0	0	0	0	511	507	0	0	
7	0	0	0	0	512	509	0	0	
8	0	0	0	0	510	508	0	0	
9	0	0	0	0	511	509	0	0	
10	0	0	0	0	511	509	0	0	
11	0	0	0	0	512	508	0	0	
12	0	0	0	0	512	511	0	0	
13	0	0	0	0	513	508	0	0	
14	0	0	0	0	512	508	0	0	
15	0	0	0	0	513	508	0	0	
0	0	0	0	0	513	505	0	0	
1	0	0	0	0	513	507	0	0	
2	0	0	0	0	510	508	0	0	
3	0	0	0	0	511	507	0	0	
4	0	0	0	0	509	508	0	0	
5	0	0	0	0	508	507	0	0	
6	0	0	0	0	510	508	0	0	
7	0	0	0	0	511	508	0	0	
8	0	0	0	0	507	508	0	0	
9	0	0	0	0	508	507	0	0	
10	0	0	0	0	509	507	0	0	
11	0	0	0	0	511	505	0	0	
12	0	0	0	0	510	508	0	0	
13	0	0	0	0	511	508	0	0	
14	0	0	0	0	512	510	0	0	
15	0	0	0	0	514	508	0	0	
0	0	0	0	0	513	506	0	0	
1	0	0	0	0	512	508	0	0	
2	0	0	0	0	512	509	0	0	
3	0	0	0	0	514	508	0	0	
4	0	0	0	0	513	508	0	0	
5	0	0	0	0	513	508	0	0	
6	0	0	0	0	512	508	0	0	
7	0	0	0	0	512	507	0	0	
8	0	0	0	0	510	508	0	0	
9	0	0	0	0	511	509	0	0	
10	0	0	0	0	508	506	0	0	
11	0	0	0	0	507	507	0	0	
12	0	0	0	0	507	508	0	0	
13	0	0	0	0	510	509	0	0	
14	0	0	0	0	509	509	0	0	
15	0	0	0	0	510	510	0	0	
0	0	0	0	0	510	509	0	0	
1	0	0	0	0	509	508	0	0	
2	0	0	0	0	513	509	0	0	
3	0	0	0	0	512	508	0	0	
4	0	0	0	0	513	509	0	0	
5	0	0	0	0	513	508	0	0	
6	0	0	0	0	514	507	0	0	
7	0	0	0	0	513	507	0	0	
8	0	0	0	0	513	508	0	0	
9	0	0	0	0	514	507	0	0	
10	0	0	0	0	512	506	0	0	
11	0	0	0	0	511	508	0	0	
12	0	0	0	0	510	509	0	0	
13	0	0	0	0	510	509	0	0	
14	0	0	0	0	508	508	0	0	
15	0	0	0	0	510	507	0	0	
0	0	0	0	0	509	511	0	0	
1	0	0	0	0	508	508	0	0	
2	0	0	0	0	510	507	0	0	
3	0	0	0	0	510	508	0	0	
4	0	0	0	0	510	509	0	0	
5	0	0	0	0	510	508	0	0	
6	0	0	0	0	512	509	0	0	
7	0	0	0	0	511	509	0	0	
8	0	0	0	0	512	508	0	0	
9	0	0	0	0	514	505	0	0	
10	0	0	0	0	512	510	0	0	
11	0	0	0	0	513	508	0	0	
12	0	0	0	0	514	510	0	0	
13	0	0	0	0	512	508	0	0	
14	0	0	0	0	513	507	0	0	
15	0	0	0	0	510	508	0	0	
0	0	0	0	0	511	507	0	0	
1	0	0	0	0	510	507	0	0	
2	0	0	0	0	509	506	0	0	
3	0	0	0	0	510	508	0	0	
4	0	0	0	0	509	506	0	0	
5	0	0	0	0	508	507	0	0	
6	0	0	0	0	511	510	7	0	
7	0	0	0	0	509	509	1	0	
8	0	0	0	0	510	508	0	0	
9	0	0	0	0	508	508	0	0	
10	0	0	0	0	512	506	0	0	
11	0	0	0	0	512	509	0	0	
12	0	0	0	0	512	508	0	0	
13	0	0	0	0	511	509	0	0	
14	0	0	0	0	511	508	0	0	
15	0	0	0	0	514	508	2	0	
0	0	0	0	0	513	509	2	0	
1	0	0	0	0	512	507	0	0	
2	0	0	0	0	512	508	0	0	
3	0	0	0	0	513	507	0	0	
4	0	0	0	0	510	508	0	0	
5	0	0	0	0	511	510	0	0	
6	0	0	0	0	510	506	0	0	
7	0	0	0	0	508	507	0	0	
8	0	0	0	0	507	507	0	0	
9	0	0	0	0	510	508	0	0	
10	0	0	0	0	508	507	0	0	
11	0	0	0	0	509	510	0	0	
12	0	0	0	0	510	510	0	0	
13	0	0	0	0	507	508	0	0	
14	0	0	0	0	511	509	0	0	
15	0	0	0	0	512	509	0	0	
0	0	0	0	0	511	507	0	0	
1	0	0	0	0	512	508	0	0	
2	0	0	0	0	511	507	0	0	
3	0	0	0	0	511	507	0	0	
4	0	0	0	0	511	508	0	0	
5	0	0	0	0	513	508	0	0	
6	0	0	0	0	512	509	0	0	
7	0	0	0	0	513	505	0	0	
8	0	0	0	0	513	508	0	0	
9	0	0	0	0	511	507	0	0	
10	0	0	0	0	510	505	3	0	
11	0	0	0	0	511	510	5	0	
12	0	0	0	0	509	510	7	0	
13	0	0	0	0	508	507	8	0	
14	0	0	0	0	511	510	7	0	
15	0	0	0	0	514	507	8	0	
0	0	0	0	0	513	509	7	0	
1	0	0	0	0	510	509	7	0	
2	0	0	0	0	514	509	7	0	
3	0	0	0	0	515	510	10	0	
4	0	0	0	0	516	508	8	0	
5	0	0	0	0	513	507	1	0	
6	0	0	0	0	512	507	6	0	
7	0	0	0	0	513	507	7	0	
8	0	0	0	0	516	507	10	0	
9	0	0	0	0	515	506	12	0	
10	0	0	0	0	509	507	9	0	
11	0	0	0	0	507	508	9	0	
12	0	0	0	0	510	507	4	0	
13	0	0	0	0	502	506	4	0	
14	0	0	0	0	500	509	0	0	
15	0	0	0	0	507	507	8	0	
0	0	0	0	0	508	508	8	0	
1	0	0	0	0	509	510	7	0	
2	0	0	0	0	508	508	0	0	
3	0	0	0	0	510	509	3	0	
4	0	0	0	0	511	508	3	0	
5	0	0	0	0	510	508	5	0	
6	0	0	0	0	511	508	5	0	
7	0	0	0	0	511	508	4	0	
8	0	0	0	0	515	506	6	0	
9	0	0	0	0	515	506	2	0	
10	0	0	0	0	517	510	6	0	
11	0	0	0	0	515	508	6	0	
12	0	0	0	0	516	508	7	0	
13	0	0	0	0	517	508	6	0	
14	0	0	0	0	511	508	7	0	
15	0	0	0	0	506	507	3	0	
0	0	0	0	0	508	509	7	0	
1	0	0	0	0	510	510	5	0	
2	0	0	0	0	511	508	3	0	
3	0	0	0	0	514	509	5	0	
4	0	0	0	0	508	510	6	0	
5	0	0	0	0	509	506	7	0	
6	0	0	0	0	511	507	0	0	
7	0	0	0	0	511	508	0	0	
8	0	0	0	0	504	509	0	0	
9	0	0	0	0	507	509	0	0	
10	0	0	0	0	512	508	0	0	
11	0	0	0	0	511	506	3	0	
12	0	0	0	0	513	507	7	0	
13	0	0	0	0	508	506	4	0	
14	0	0	0	0	511	510	7	0	
15	0	0	0	0	511	511	6	0	
0	0	0	0	0	513	508	7	0	
1	0	0	0	0	515	507	5	0	
2	0	0	0	0	513	508	8	0	
3	0	0	0	0	511	508	7	0	
4	0	0	0	0	512	508	3	0	
5	0	0	0	0	513	507	0	0	
6	0	0	0	0	511	508	0	0	
7	0	0	0	0	510	508	2	0	
8	0	0	0	0	512	507	0	0	
9	0	0	0	0	508	508	3	0	
10	0	0	0	0	504	508	2	0	
11	0	0	0	0	506	509	0	0	
12	0	0	0	0	510	511	0	0	
13	0	0	0	0	512	507	0	0	
14	0	0	0	0	513	508	5	0	
15	0	0	0	0	513	508	5	0	
0	0	0	0	0	517	510	7	0	
1	0	0	0	0	514	508	0	0	
2	0	0	0	0	515	508	7	0	
3	0	0	0	0	513	507	7	0	
4	0	0	0	0	511	507	6	0	
5	0	0	0	0	513	507	0	0	
6	0	0	0	0	511	508	7	0	
7	0	0	0	0	512	509	7	0	
8	0	0	0	0	509	508	7	0	
9	0	0	0	0	510	505	5	0	
10	0	0	0	0	511	509	5	0	
11	0	0	0	0	509	509	0	0	
12	0	0	0	0	509	507	4	0	
13	0	0	0	0	508	505	6	0	
14	0	0	0	0	509	507	0	0	
15	0	0	0	0	508	507	5	0	
0	0	0	0	0	508	507	0	0	
1	0	0	0	0	510	510	0	0	
2	0	0	0	0	513	509	0	0	
3	0	0	0	0	514	509	0	0	
4	0	0	0	0	511	505	6	0	
5	0	0	0	0	512	508	0	0	
6	0	0	0	0	514	509	0	0	
7	0	0	0	0	513	508	5	0	
8	0	0	0	0	513	508	0	0	
9	0	0	0	0	511	506	7	0	
10	0	0	0	0	513	506	0	0	
11	0	0	0	0	512	509	4	0	
12	0	0	0	0	511	509	3	0	
13	0	0	0	0	511	508	5	0	
14	0	0	0	0	510	509	0	0	
15	0	0	0	0	509	508	8	0	
0	0	0	0	0	508	508	10	0	
1	0	0	0	0	508	509	9	0	
2	0	0	0	0	509	507	9	0	
3	0	0	0	0	508	507	7	0	
4	0	0	0	0	510	508	5	0	
5	0	0	0	0	510	510	5	0	
6	0	0	0	0	512	510	7	0	
7	0	0	0	0	507	507	9	0	
8	0	0	0	0	509	509	5	0	
9	0	0	0	0	516	509	5	0	
10	0	0	0	0	513	508	8	0	
11	0	0	0	0	514	509	8	0	
12	0	0	0	0	512	510	6	0	
13	0	0	0	0	513	510	0	0	
14	0	0	0	0	511	508	0	0	
15	0	0	0	0	512	507	0	0	
0	0	0	0	0	513	508	0	0	
1	0	0	0	0	510	507	0	0	
2	0	0	0	0	512	507	2	0	
3	0	0	0	0	511	507	2	0	
4	0	0	0	0	511	507	0	0	
5	0	0	0	0	508	509	0	0	
6	0	0	0	0	510	508	0	0	
7	0	0	0	0	509	508	0	0	
8	0	0	0	0	511	509	0	0	
9	0	0	0	0	508	508	3	0	
10	0	0	0	0	512	508	5	0	
11	0	0	0	0	510	508	7	0	
12	0	0	0	0	512	509	5	0	
13	0	0	0	0	515	508	3	0	
14	0	0	0	0	513	508	4	0	
15	0	0	0	0	513	508	2	0	
0	0	0	0	0	511	508	7	0	
1	0	0	0	0	511	509	7	0	
2	0	0	0	0	511	508	6	0	
3	0	0	0	0	511	507	8	0	
4	0	0	0	0	510	508	7	0	
5	0	0	0	0	509	508	7	0	
6	0	0	0	0	510	508	6	0	
7	0	0	0	0	510	506	3	0	
8	0	0	0	0	509	508	3	0	
9	0	0	0	0	510	507	5	0	
10	0	0	0	0	509	507	4	0	
11	0	0	0	0	509	510	5	0	
12	0	0	0	0	509	507	5	0	
13	0	0	0	0	512	511	2	0	
14	0	0	0	0	511	508	2	0	
15	0	0	0	0	514	510	5	0	
0	0	0	0	0	512	509	4	0	
1	0	0	0	0	511	508	8	0	
2	0	0	0	0	515	507	8	0	
3	0	0	0	0	513	507	9	0	
4	0	0	0	0	513	509	8	0	
5	0	0	0	0	512	506	6	0	
6	0	0	0	0	509	508	6	0	
7	0	0	0	0	510	507	4	0	
8	0	0	0	0	509	507	7	0	
9	0	0	0	0	510	507	5	0	
10	0	0	0	0	507	508	7	0	
11	0	0	0	0	507	507	6	0	
12	0	0	0	0	509	508	4	0	
13	0	0	0	0	512	508	2	0	
14	0	0	0	0	512	508	0	0	
15	0	0	0	0	510	507	6	0	
0	0	0	0	0	508	508	10	0	
1	0	0	0	0	510	508	9	0	
2	0	0	0	0	513	509	7	0	
3	0	0	0	0	511	509	7	0	
4	0	0	0	0	512	510	9	0	
5	0	0	0	0	515	508	1	0	
6	0	0	0	0	513	507	10	0	
7	0	0	0	0	514	506	10	0	
8	0	0	0	0	514	509	7	0	
9	0	0	0	0	513	507	12	0	
10	0	0	0	0	512	509	10	0	
11	0	0	0	0	511	507	12	0	
12	0	0	0	0	510	507	14	0	
13	0	0	0	0	509	507	13	0	
14	0	0	0	0	507	508	12	0	
15	0	0	0	0	508	509	12	0	
0	0	0	0	0	507	507	14	0	
1	0	0	0	0	508	508	11	0	
2	0	0	0	0	510	509	7	0	
3	0	0	0	0	509	507	8	0	
4	0	0	0	0	508	508	8	0	
5	0	0	0	0	511	509	3	0	
6	0	0	0	0	512	509	5	0	
7	0	0	0	0	512	509	7	0	
8	0	0	0	0	513	509	6	0	
9	0	0	0	0	514	507	6	0	
10	0	0	0	0	513	508	5	0	
11	0	0	0	0	515	508	6	0	
12	0	0	0	0	514	507	5	0	
13	0	0	0	0	511	506	4	0	
14	0	0	0	0	513	509	7	0	
15	0	0	0	0	512	507	5	0	
0	0	0	0	0	512	507	4	0	
1	0	0	0	0	511	508	6	0	
2	0	0	0	0	509	509	4	0	
3	0	0	0	0	509	507	11	0	
4	0	0	0	0	509	505	10	0	
5	0	0	0	0	507	508	8	0	
6	0	0	0	0	509	510	6	0	
7	0	0	0	0	508	509	6	0	
8	0	0	0	0	511	508	6	0	
9	0	0	0	0	511	507	7	0	
10	0	0	0	0	513	508	8	0	
11	0	0	0	0	513	508	4	0	
12	0	0	0	0	512	507	7	0	
13	0	0	0	0	513	507	7	0	
14	0	0	0	0	514	508	7	0	
15	0	0	0	0	514	509	6	0	
0	0	0	0	0	511	509	12	0	
1	0	0	0	0	513	508	8	0	
2	0	0	0	0	511	509	10	0	
3	0	0	0	0	511	510	9	0	
4	0	0	0	0	510	505	9	0	
5	0	0	0	0	509	508	9	0	
6	0	0	0	0	510	508	9	0	
7	0	0	0	0	510	507	9	0	
8	0	0	0	0	509	509	11	0	
9	0	0	0	0	510	508	10	0	
10	0	0	0	0	509	508	11	0	
11	0	0	0	0	508	506	10	0	
12	0	0	0	0	511	507	8	0	
13	0	0	0	0	510	510	2	0	
14	0	0	0	0	511	508	2	0	
15	0	0	0	0	512	508	11	0	
0	0	0	0	0	512	507	11	0	
1	0	0	0	0	513	508	9	0	
2	0	0	0	0	514	505	8	0	
3	0	0	0	0	513	508	9	0	
4	0	0	0	0	513	508	4	0	
5	0	0	0	0	514	508	1	0	
6	0	0	0	0	510	508	2	0	
7	0	0	0	0	511	508	5	0	
8	0	0	0	0	508	508	6	0	
9	0	0	0	0	510	507	7	0	
10	0	0	0	0	508	509	8	0	
11	0	0	0	0	510	507	6	0	
12	0	0	0	0	509	508	6	0	
13	0	0	0	0	509	507	7	0	
14	0	0	0	0	509	509	7	0	
15	0	0	0	0	511	507	11	0	
0	0	0	0	0	511	508	11	0	
1	0	0	0	0	510	509	14	0	
2	0	0	0	0	511	507	17	0	
3	0	0	0	0	511	508	16	0	
4	0	0	0	0	513	510	15	0	
5	0	0	0	0	512	510	14	0	
6	0	0	0	0	512	508	15	0	
7	0	0	0	0	514	508	14	0	
8	0	0	0	0	514	507	15	0	
9	0	0	0	0	512	508	15	0	
10	0	0	0	0	513	508	16	0	
11	0	0	0	0	512	507	16	0	
12	0	0	0	0	510	507	17	0	
13	0	0	0	0	509	508	16	0	
14	0	0	0	0	510	508	16	0	
15	0	0	0	0	507	509	15	0	
0	0	0	0	0	509	510	15	0	
1	0	0	0	0	508	507	15	0	
2	0	0	0	0	509	506	17	0	
3	0	0	0	0	509	507	16	0	
4	0	0	0	0	510	510	15	0	
5	0	0	0	0	512	510	16	0	
6	0	0	0	0	511	508	14	0	
7	0	0	0	0	512	512	14	0	
8	0	0	0	0	512	508	15	0	
9	0	0	0	0	514	507	14	0	
10	0	0	0	0	512	508	15	0	
11	0	0	0	0	513	508	14	0	
12	0	0	0	0	514	506	15	0	
13	0	0	0	0	512	509	15	0	
14	0	0	0	0	512	507	15	0	
15	0	0	0	0	513	509	16	0	
0	0	0	0	0	510	507	16	0	
1	0	0	0	0	509	509	17	0	
2	0	0	0	0	509	508	17	0	
3	0	0	0	0	509	508	15	0	
4	0	0	0	0	505	507	15	0	
5	0	0	0	0	509	507	16	0	
6	0	0	0	0	508	508	16	0	
7	0	0	0	0	511	508	17	0	
8	0	0	0	0	509	508	17	0	
9	0	0	0	0	509	510	17	0	
10	0	0	0	0	511	510	13	0	
11	0	0	0	0	511	508	15	0	
12	0	0	0	0	513	508	14	0	
13	0	0	0	0	513	508	18	0	
14	0	0	0	0	513	507	16	0	
15	0	0	0	0	515	509	15	0	
0	0	0	0	0	513	508	17	0	
1	0	0	0	0	513	510	17	0	
2	0	0	0	0	512	506	16	0	
3	0	0	0	0	511	508	17	0	
4	0	0	0	0	511	508	12	0	
5	0	0	0	0	509	507	8	0	
6	0	0	0	0	510	508	17	0	
7	0	0	0	0	508	508	18	0	
8	0	0	0	0	507	511	18	0	
9	0	0	0	0	508	507	18	0	
10	0	0	0	0	509	508	18	0	
11	0	0	0	0	511	506	19	0	
12	0	0	0	0	508	508	18	0	
13	0	0	0	0	511	507	18	0	
14	0	0	0	0	510	508	17	0	
15	0	0	0	0	511	508	18	0	
0	0	0	0	0	513	510	17	0	
1	0	0	0	0	514	508	18	0	
2	0	0	0	0	514	511	16	0	
3	0	0	0	0	516	509	16	0	
4	0	0	0	0	516	509	16	0	
5	0	0	0	0	511	508	16	0	
6	0	0	0	0	510	508	16	0	
7	0	0	0	0	511	508	15	0	
8	0	0	0	0	511	506	17	0	
9	0	0	0	0	510	506	15	0	
10	0	0	0	0	510	508	15	0	
11	0	0	0	0	510	508	15	0	
12	0	0	0	0	507	507	16	0	
13	0	0	0	0	509	509	15	0	
14	0	0	0	0	508	507	15	0	
15	0	0	0	0	511	508	15	0	
0	0	0	0	0	511	508	15	0	
1	0	0	0	0	512	509	15	0	
2	0	0	0	0	511	508	15	0	
3	0	0	0	0	512	510	14	0	
4	0	0	0	0	512	508	15	0	
5	0	0	0	0	512	510	15	0	
6	0	0	0	0	512	508	15	0	
7	0	0	0	0	513	508	14	0	
8	0	0	0	0	513	508	15	0	
9	0	0	0	0	512	506	15	0	
10	0	0	0	0	513	507	14	0	
11	0	0	0	0	511	508	15	0	
12	0	0	0	0	511	507	15	0	
13	0	0	0	0	509	508	15	0	
14	0	0	0	0	510	506	18	0	
15	0	0	0	0	510	509	0	0	
0	0	0	0	0	508	509	0	0	
1	0	0	0	0	508	506	0	0	
2	0	0	0	0	507	508	0	0	
3	0	0	0	0	510	509	0	0	
4	0	0	0	0	510	508	0	0	
5	0	0	0	0	510	507	0	0	
6	0	0	0	0	511	508	0	0	
7	0	0	0	0	511	508	0	0	
8	0	0	0	0	511	507	0	0	
9	0	0	0	0	515	508	0	0	
10	0	0	0	0	512	507	0	0	
11	0	0	0	0	511	508	0	0	
12	0	0	0	0	514	509	0	0	
13	0	0	0	0	513	509	0	0	
14	0	0	0	0	511	507	0	0	
15	0	0	0	0	510	506	0	0	
0	0	0	0	0	510	508	0	0	
1	0	0	0	0	510	507	0	0	
2	0	0	0	0	512	508	0	0	
3	0	0	0	0	511	506	0	0	
4	0	0	0	0	510	508	0	0	
5	0	0	0	0	509	507	0	0	
6	0	0	0	0	508	507	0	0	
7	0	0	0	0	508	508	0	0	
8	0	0	0	0	510	508	0	0	
9	0	0	0	0	510	508	0	0	
10	0	0	0	0	511	509	0	0	
11	0	0	0	0	512	509	0	0	
12	0	0	0	0	512	509	0	0	
13	0	0	0	0	514	506	0	0	
14	0	0	0	0	515	508	0	0	
15	0	0	0	0	513	506	8	0	
0	0	0	0	0	514	508	0	0	
1	0	0	0	0	514	508	0	0	
2	0	0	0	0	511	509	0	0	
3	0	0	0	0	514	508	0	0	
4	0	0	0	0	509	507	0	0	
5	0	0	0	0	511	507	0	0	
6	0	0	0	0	509	508	0	0	
7	0	0	0	0	506	509	0	0	
8	0	0	0	0	508	508	0	0	
9	0	0	0	0	510	509	0	0	
10	0	0	0	0	508	507	0	0	
11	0	0	0	0	509	508	0	0	
12	0	0	0	0	509	509	0	0	
13	0	0	0	0	511	508	0	0	
14	0	0	0	0	511	507	0	0	
15	0	0	0	0	512	511	0	0	
0	0	0	0	0	511	508	0	0	
1	0	0	0	0	512	508	0	0	
2	0	0	0	0	512	509	0	0	
3	0	0	0	0	513	507	0	0	
4	0	0	0	0	514	507	0	0	
5	0	0	0	0	512	508	0	0	
6	0	0	0	0	515	508	0	0	
7	0	0	0	0	513	507	0	0	
8	0	0	0	0	511	507	0	0	
9	0	0	0	0	511	509	0	0	
10	0	0	0	0	510	507	0	0	
11	0	0	0	0	510	508	0	0	
12	0	0	0	0	509	508	0	0	
13	0	0	0	0	509	508	0	0	
14	0	0	0	0	510	509	0	0	
15	0	0	0	0	508	507	0	0	
0	0	0	0	0	510	508	0	0	
1	0	0	0	0	511	509	0	0	
2	0	0	0	0	511	509	0	0	
3	0	0	0	0	513	509	0	0	
4	0	0	0	0	511	507	0	0	
5	0	0	0	0	511	509	0	0	
6	0	0	0	0	513	509	0	0	
7	0	0	0	0	512	508	0	0	
8	0	0	0	0	515	508	0	0	
9	0	0	0	0	515	508	0	0	
10	0	0	0	0	511	507	0	0	
11	0	0	0	0	512	507	0	0	
12	0	0	0	0	512	509	0	0	
13	0	0	0	0	510	507	0	0	
14	0	0	0	0	509	507	0	0	
15	0	0	0	0	508	507	0	0	
0	0	0	0	0	508	507	0	0	
1	0	0	0	0	508	508	0	0	
2	0	0	0	0	508	508	0	0	
3	0	0	0	0	509	508	0	0	
4	0	0	0	0	509	509	0	0	
5	0	0	0	0	510	509	0	0	
6	0	0	0	0	511	508	0	0	
7	0	0	0	0	512	510	0	0	
8	0	0	0	0	512	508	0	0	
9	0	0	0	0	513	508	0	0	
10	0	0	0	0	513	508	0	0	
11	0	0	0	0	515	508	0	0	
12	0	0	0	0	513	508	0	0	
13	0	0	0	0	514	508	0	0	
14	0	0	0	0	511	508	0	0	
15	0	0	0	0	511	506	0	0	
0	0	0	0	0	511	508	0	0	
1	0	0	0	0	508	509	0	0	
2	0	0	0	0	510	509	0	0	
3	0	0	0	0	509	508	0	0	
4	0	0	0	0	509	505	0	0	
5	0	0	0	0	509	507	0	0	
6	0	0	0	0	509	507	0	0	
7	0	0	0	0	511	508	0	0	
8	0	0	0	0	509	508	0	0	
9	0	0	0	0	512	509	0	0	
10	0	0	0	0	511	508	0	0	
11	0	0	0	0	517	511	0	0	
12	0	0	0	0	515	509	0	0	
13	0	0	0	0	513	509	0	0	
14	0	0	0	0	512	509	0	0	
15	0	0	0	0	511	507	0	0	
0	0	0	0	0	512	505	0	0	
1	0	0	0	0	511	505	0	0	
2	0	0	0	0	511	509	0	0	
3	0	0	0	0	511	507	0	0	
4	0	0	0	0	511	510	0	0	
5	0	0	0	0	512	507	0	0	
6	0	0	0	0	509	509	0	0	
7	0	0	0	0	509	508	0	0	
8	0	0	0	0	510	507	0	0	
9	0	0	0	0	508	508	0	0	
10	0	0	0	0	510	508	0	0	
11	0	0	0	0	510	508	0	0	
12	0	0	0	0	510	509	0	0	
13	0	0	0	0	511	510	0	0	
14	0	0	0	0	512	508	0	0	
15	0	0	0	0	513	508	0	0	
0	0	0	0	0	511	509	0	0	
1	0	0	0	0	513	508	0	0	
2	0	0	0	0	514	507	0	0	
3	0	0	0	0	513	509	0	0	
4	0	0	0	0	514	508	0	0	
5	0	0	0	0	513	505	0	0	
6	0	0	0	0	511	509	0	0	
7	0	0	0	0	509	508	0	0	
8	0	0	0	0	510	510	0	0	
9	0	0	0	0	511	507	0	0	
10	0	0	0	0	510	507	0	0	
11	0	0	0	0	510	508	0	0	
12	0	0	0	0	508	508	0	0	
13	0	0	0	0	509	508	0	0	
14	0	0	0	0	510	507	0	0	
15	0	0	0	0	509	508	0	0	
0	0	0	0	0	510	507	0	0	
1	0	0	0	0	511	510	0	0	
2	0	0	0	0	509	508	0	0	
3	0	0	0	0	512	509	0	0	
4	0	0	0	0	514	508	0	0	
5	0	0	0	0	513	510	0	0	
6	0	0	0	0	513	508	0	0	
7	0	0	0	0	516	508	0	0	
8	0	0	0	0	515	507	0	0	
9	0	0	0	0	513	504	0	0	
10	0	0	0	0	511	508	0	0	
11	0	0	0	0	510	507	0	0	
12	0	0	0	0	512	508	0	0	
13	0	0	0	0	511	507	0	0	
14	0	0	0	0	511	510	0	0	
15	0	0	0	0	508	507	0	0	
0	0	0	0	0	510	508	0	0	
1	0	0	0	0	506	510	0	0	
2	0	0	0	0	508	508	0	0	
3	0	0	0	0	510	508	0	0	
4	0	0	0	0	513	508	0	0	
5	0	0	0	0	510	508	0	0	
6	0	0	0	0	511	508	0	0	
7	0	0	0	0	513	507	0	0	
8	0	0	0	0	512	510	0	0	
9	0	0	0	0	513	509	0	0	
10	0	0	0	0	511	510	0	0	
11	0	0	0	0	512	508	0	0	
12	0	0	0	0	515	508	0	0	
13	0	0	0	0	512	506	0	0	
14	0	0	0	0	513	507	0	0	
15	0	0	0	0	513	508	0	0	
0	0	0	0	0	511	508	0	0	
1	0	0	0	0	510	510	0	0	
2	0	0	0	0	510	507	0	0	
3	0	0	0	0	509	507	0	0	
4	0	0	0	0	509	508	0	0	
5	0	0	0	0	509	509	0	0	
6	0	0	0	0	510	508	0	0	
7	0	0	0	0	510	508	0	0	
8	0	0	0	0	509	508	0	0	
9	0	0	0	0	508	507	0	0	
10	0	0	0	0	510	507	0	0	
11	0	0	0	0	511	508	0	0	
12	0	0	0	0	511	508	0	0	
13	0	0	0	0	512	510	0	0	
14	0	0	0	0	512	509	0	0	
15	0	0	0	0	514	508	0	0	
0	0	0	0	0	513	508	0	0	
1	0	0	0	0	512	507	0	0	
2	0	0	0	0	512	507	0	0	
3	0	0	0	0	511	508	0	0	
4	0	0	0	0	512	508	0	0	
5	0	0	0	0	512	507	0	0	
6	0	0	0	0	511	508	0	0	
7	0	0	0	0	510	507	0	0	
8	0	0	0	0	508	508	0	0	
9	0	0	0	0	508	506	0	0	
10	0	0	0	0	510	508	0	0	
11	0	0	0	0	510	510	0	0	
12	0	0	0	0	508	509	0	0	
13	0	0	0	0	511	508	0	0	
14	0	0	0	0	511	509	0	0	
15	0	0	0	0	511	510	0	0	
0	0	0	0	0	513	507	0	0	
1	0	0	0	0	513	507	0	0	
2	0	0	0	0	512	508	0	0	
3	0	0	0	0	511	507	0	0	
4	0	0	0	0	514	507	0	0	
5	0	0	0	0	513	510	0	0	
6	0	0	0	0	514	508	0	0	
7	0	0	0	0	513	505	0	0	
8	0	0	0	0	514	507	0	0	
9	0	0	0	0	512	506	0	0	
10	0	0	0	0	507	509	0	0	
11	0	0	0	0	507	507	0	0	
12	0	0	0	0	508	505	0	0	
13	0	0	0	0	509	507	0	0	
14	0	0	0	0	509	508	0	0	
15	0	0	0	0	508	508	0	0	
0	0	0	0	0	512	508	0	0	
1	0	0	0	0	510	507	0	0	
2	0	0	0	0	510	509	0	0	
3	0	0	0	0	513	509	0	0	
4	0	0	0	0	514	510	0	0	
5	0	0	0	0	513	510	0	0	
6	0	0	0	0	514	507	0	0	
7	0	0	0	0	515	507	0	0	
8	0	0	0	0	511	509	0	0	
9	0	0	0	0	511	508	0	0	
10	0	0	0	0	512	508	0	0	
11	0	0	0	0	510	506	0	0	
12	0	0	0	0	510	508	0	0	
13	0	0	0	0	509	509	0	0	
14	0	0	0	0	510	507	0	0	
15	0	0	0	0	509	508	0	0	
0	0	0	0	0	506	508	0	0	
1	0	0	0	0	508	508	0	0	
2	0	0	0	0	510	508	0	0	
3	0	0	0	0	511	507	0	0	
4	0	0	0	0	510	508	0	0	
5	0	0	0	0	511	510	0	0	
6	0	0	0	0	511	509	0	0	
7	0	0	0	0	511	510	0	0	
8	0	0	0	0	512	509	0	0	
9	0	0	0	0	512	507	0	0	
10	0	0	0	0	513	508	0	0	
11	0	0	0	0	512	508	0	0	
12	0	0	0	0	513	508	0	0	
13	0	0	0	0	512	507	0	0	
14	0	0	0	0	512	508	0	0	
15	0	0	0	0	512	508	0	0	
0	0	0	0	0	512	508	0	0	
1	0	0	0	0	512	507	0	0	
2	0	0	0	0	510	505	0	0	
3	0	0	0	0	509	506	0	0	
4	0	0	0	0	510	507	0	0	
5	0	0	0	0	508	506	0	0	
6	0	0	0	0	508	507	0	0	
7	0	0	0	0	509	508	0	0	
8	0	0	0	0	509	509	0	0	
9	0	0	0	0	511	506	0	0	
10	0	0	0	0	511	510	0	0	
11	0	0	0	0	513	506	0	0	
12	0	0	0	0	512	509	0	0	
13	0	0	0	0	512	508	0	0	
14	0	0	0	0	513	508	0	0	
15	0	0	0	0	515	510	0	0	
0	0	0	0	0	514	510	0	0	
1	0	0	0	0	513	509	0	0	
2	0	0	0	0	513	508	0	0	
3	0	0	0	0	512	508	0	0	
4	0	0	0	0	511	506	0	0	
5	0	0	0	0	511	507	0	0	
6	0	0	0	0	509	509	0	0	
7	0	0	0	0	511	508	0	0	
8	0	0	0	0	509	507	0	0	
9	0	0	0	0	509	508	0	0	
10	0	0	0	0	508	508	0	0	
11	0	0	0	0	508	507	0	0	
12	0	0	0	0	511	507	0	0	
13	0	0	0	0	508	510	0	0	
14	0	0	0	0	511	508	0	0	
15	0	0	0	0	513	510	0	0	
0	0	0	0	0	513	509	0	0	
1	0	0	0	0	514	507	0	0	
2	0	0	0	0	513	506	0	0	
3	0	0	0	0	513	507	0	0	
4	0	0	0	0	513	508	0	0	
5	0	0	0	0	513	507	0	0	
6	0	0	0	0	513	506	0	0	
7	0	0	0	0	511	508	0	0	
8	0	0	0	0	511	507	0	0	
9	0	0	0	0	509	508	0	0	
10	0	0	0	0	509	508	0	0	
11	0	0	0	0	509	506	0	0	
12	0	0	0	0	511	509	0	0	
13	0	0	0	0	508	507	0	0	
14	0	0	0	0	508	506	0	0	
15	0	0	0	0	507	509	0	0	
0	0	0	0	0	510	507	0	0	
1	0	0	0	0	509	511	0	0	
2	0	0	0	0	511	508	0	0	
3	0	0	0	0	512	509	0	0	
4	0	0	0	0	510	508	0	0	
5	0	0	0	0	512	509	0	0	
6	0	0	0	0	515	507	0	0	
7	0	0	0	0	513	508	0	0	
8	0	0	0	0	515	507	0	0	
9	0	0	0	0	512	507	0	0	
10	0	0	0	0	512	508	0	0	
11	0	0	0	0	514	507	0	0	
12	0	0	0	0	510	508	0	0	
13	0	0	0	0	509	508	0	0	
14	0	0	0	0	507	507	0	0	
15	0	0	0	0	508	508	0	0	
0	0	0	0	0	510	509	0	0	
1	0	0	0	0	510	507	0	0	
2	0	0	0	0	512	507	0	0	
3	0	0	0	0	514	509	0	0	
4	0	0	0	0	512	506	0	0	
5	0	0	0	0	510	508	0	0	
6	0	0	0	0	509	509	0	0	
7	0	0	0	0	511	508	0	0	
8	0	0	0	0	511	509	0	0	
9	0	0	0	0	512	508	0	0	
10	0	0	0	0	511	508	0	0	
11	0	0	0	0	515	507	0	0	
12	0	0	0	0	513	510	0	0	
13	0	0	0	0	512	508	0	0	
14	0	0	0	0	511	508	0	0	
15	0	0	0	0	510	508	0	0	
0	0	0	0	0	509	509	0	0	
1	0	0	0	0	511	508	0	0	
2	0	0	0	0	510	507	0	0	
3	0	0	0	0	511	507	0	0	
4	0	0	0	0	509	508	0	0	
5	0	0	0	0	509	507	0	0	
6	0	0	0	0	509	508	0	0	
7	0	0	0	0	510	509	0	0	
8	0	0	0	0	510	508	0	0	
9	0	0	0	0	511	508	0	0	
10	0	0	0	0	511	507	0	0	
11	0	0	0	0	515	507	0	0	
12	0	0	0	0	510	510	0	0	
13	0	0	0	0	513	508	0	0	
14	0	0	0	0	514	508	0	0	
15	0	0	0	0	514	508	0	0	
0	0	0	0	0	512	508	0	0	
1	0	0	0	0	515	509	0	0	
2	0	0	0	0	511	508	0	0	
3	0	0	0	0	512	508	0	0	
4	0	0	0	0	512	507	0	0	
5	0	0	0	0	510	508	0	0	
6	0	0	0	0	508	507	0	0	
7	0	0	0	0	511	507	0	0	
8	0	0	0	0	508	508	0	0	
9	0	0	0	0	507	508	0	0	
10	0	0	0	0	508	505	0	0	
11	0	0	0	0	510	507	0	0	
12	0	0	0	0	509	507	0	0	
13	0	0	0	0	507	509	0	0	
14	0	0	0	0	507	510	0	0	
15	0	0	0	0	509	509	0	0	
0	0	0	0	0	514	510	0	0	
1	0	0	0	0	511	508	0	0	
2	0	0	0	0	512	508	0	0	
3	0	0	0	0	514	509	0	0	
4	0	0	0	0	513	509	0	0	
5	0	0	0	0	512	507	0	0	
6	0	0	0	0	514	508	0	0	
7	0	0	0	0	511	508	0	0	
8	0	0	0	0	511	508	0	0	
9	0	0	0	0	510	506	0	0	
10	0	0	0	0	510	507	0	0	
11	0	0	0	0	508	507	0	0	
12	0	0	0	0	510	505	0	0	
13	0	0	0	0	510	508	0	0	
14	0	0	0	0	510	508	0	0	
15	0	0	0	0	510	509	0	0	
0	0	0	0	0	510	508	0	0	
1	0	0	0	0	508	509	0	0	
2	0	0	0	0	511	510	0	0	
3	0	0	0	0	512	510	0	0	
4	0	0	0	0	511	508	0	0	
5	0	0	0	0	512	508	0	0	
6	0	0	0	0	514	510	0	0	
7	0	0	0	0	513	510	0	0	
8	0	0	0	0	514	508	0	0	
9	0	0	0	0	513	508	0	0	
10	0	0	0	0	512	508	0	0	
11	0	0	0	0	511	507	0	0	
12	0	0	0	0	510	507	0	0	
13	0	0	0	0	511	506	0	0	
14	0	0	0	0	510	505	0	0	
15	0	0	0	0	508	508	0	0	
0	0	0	0	0	508	507	0	0	
1	0	0	0	0	508	508	0	0	
2	0	0	0	0	509	509	0	0	
3	0	0	0	0	508	509	0	0	
4	0	0	0	0	510	507	0	0	
5	0	0	0	0	512	508	0	0	
6	0	0	0	0	511	510	0	0	
7	0	0	0	0	511	508	0	0	
8	0	0	0	0	513	508	0	0	
9	0	0	0	0	514	508	0	0	
10	0	0	0	0	515	507	0	0	
11	0	0	0	0	513	508	0	0	
12	0	0	0	0	517	508	0	0	
13	0	0	0	0	514	509	0	0	
14	0	0	0	0	515	508	0	0	
15	0	0	0	0	513	510	0	0	
0	0	0	0	0	511	509	0	0	
1	0	0	0	0	511	508	0	0	
2	0	0	0	0	508	507	0	0	
3	0	0	0	0	507	508	0	0	
4	0	0	0	0	507	509	0	0	
5	0	0	0	0	508	507	0	0	
6	0	0	0	0	508	508	0	0	
7	0	0	0	0	508	508	0	0	
8	0	0	0	0	510	506	0	0	
9	0	0	0	0	510	508	0	0	
10	0	0	0	0	512	508	0	0	
11	0	0	0	0	512	507	0	0	
12	0	0	0	0	511	510	0	0	
13	0	0	0	0	510	508	0	0	
14	0	0	0	0	511	508	0	0	
15	0	0	0	0	512	510	0	0	
0	0	0	0	0	515	509	0	0	
1	0	0	0	0	513	507	0	0	
2	0	0	0	0	513	507	0	0	
3	0	0	0	0	514	508	0	0	
4	0	0	0	0	511	510	0	0	
5	0	0	0	0	511	507	0	0	
6	0	0	0	0	511	507	0	0	
7	0	0	0	0	509	507	0	0	
8	0	0	0	0	508	507	0	0	
9	0	0	0	0	509	508	0	0	
10	0	0	0	0	508	506	0	0	
11	0	0	0	0	509	509	0	0	
12	0	0	0	0	509	508	0	0	
13	0	0	0	0	510	508	0	0	
14	0	0	0	0	511	508	0	0	
15	0	0	0	0	514	509	0	0	
0	0	0	0	0	512	508	0	0	
1	0	0	0	0	514	510	0	0	
2	0	0	0	0	513	508	0	0	
3	0	0	0	0	513	508	0	0	
4	0	0	0	0	515	507	0	0	
5	0	0	0	0	513	507	0	0	
6	0	0	0	0	510	508	0	0	
7	0	0	0	0	510	507	0	0	
8	0	0	0	0	510	507	0	0	
9	0	0	0	0	511	509	0	0	
10	0	0	0	0	508	508	0	0	
11	0	0	0	0	509	507	0	0	
12	0	0	0	0	508	507	0	0	
13	0	0	0	0	507	510	0	0	
14	0	0	0	0	510	510	0	0	
15	0	0	0	0	510	509	0	0	
0	0	0	0	0	508	508	0	0	
1	0	0	0	0	509	507	0	0	
2	0	0	0	0	510	508	0	0	
3	0	0	0	0	510	509	0	0	
4	0	0	0	0	512	508	0	0	
5	0	0	0	0	513	507	0	0	
6	0	0	0	0	514	509	0	0	
7	0	0	0	0	513	509	0	0	
8	0	0	0	0	514	511	0	0	
9	0	0	0	0	515	507	0	0	
10	0	0	0	0	514	507	0	0	
11	0	0	0	0	513	508	0	0	
12	0	0	0	0	507	508	0	0	
13	0	0	0	0	507	505	0	0	
14	0	0	0	0	509	506	0	0	
15	0	0	0	0	512	508	0	0	
0	0	0	0	0	513	507	0	0	
1	0	0	0	0	512	508	0	0	
2	0	0	0	0	510	510	0	0	
3	0	0	0	0	512	506	0	0	
4	0	0	0	0	513	510	0	0	
5	0	0	0	0	510	510	0	0	
6	0	0	0	0	507	508	0	0	
7	0	0	0	0	508	509	0	0	
8	0	0	0	0	511	509	0	0	
9	0	0	0	0	510	505	0	0	
10	0	0	0	0	505	505	0	0	
11	0	0	0	0	505	507	0	0	
12	0	0	0	0	508	508	0	0	
13	0	0	0	0	510	507	0	0	
14	0	0	0	0	511	508	0	0	
15	0	0	0	0	512	508	0	0	
0	0	0	0	0	522	508	0	0	
1	0	0	0	0	529	507	0	0	
2	0	0	0	0	525	509	0	0	
3	0	0	0	0	515	509	0	0	
4	0	0	0	0	503	508	0	0	
5	0	0	0	0	508	508	0	0	
6	0	0	0	0	507	506	0	0	
7	0	0	0	0	497	508	0	0	
8	0	0	0	0	499	509	0	0	
9	0	0	0	0	500	508	0	0	
10	0	0	0	0	506	508	7	0	
11	0	0	0	0	519	508	7	0	
12	0	0	0	0	525	510	5	0	
13	0	0	0	0	512	510	15	0	
14	0	0	0	0	526	508	6	0	
15	0	0	0	0	527	509	16	0	
0	0	0	0	0	510	508	15	0	
1	0	0	0	0	505	507	15	0	
2	0	0	0	0	506	507	15	0	
3	0	0	0	0	517	509	16	0	
4	0	0	0	0	525	507	7	0	
5	0	0	0	0	512	505	18	0	
6	0	0	0	0	504	507	10	0	
7	0	0	0	0	503	507	11	0	
8	0	0	0	0	503	507	14	0	
9	0	0	0	0	499	510	11	0	
10	0	0	0	0	498	509	11	0	
11	0	0	0	0	504	509	19	0	
12	0	0	0	0	507	510	10	0	
13	0	0	0	0	513	508	17	0	
14	0	0	0	0	513	508	10	0	
15	0	0	0	0	511	505	12	0	
0	0	0	0	0	515	508	12	0	
1	0	0	0	0	511	510	14	0	
2	0	0	0	0	512	508	20	0	
3	0	0	0	0	515	507	21	0	
4	0	0	0	0	515	510	20	0	
5	0	0	0	0	517	510	21	0	
6	0	0	0	0	516	508	20	0	
7	0	0	0	0	513	508	20	0	
8	0	0	0	0	510	507	21	0	
9	0	0	0	0	506	506	21	0	
10	0	0	0	0	504	506	22	0	
11	0	0	0	0	500	504	22	0	
12	0	0	0	0	498	508	22	0	
13	0	0	0	0	507	507	27	0	
14	0	0	0	0	508	509	26	0	
15	0	0	0	0	514	509	26	0	
0	0	0	0	0	533	509	27	0	
1	0	0	0	0	518	508	24	0	
2	0	0	0	0	508	510	26	0	
3	0	0	0	0	504	507	24	0	
4	0	0	0	0	516	509	24	0	
5	0	0	0	0	531	510	21	0	
6	0	0	0	0	519	506	21	0	
7	0	0	0	0	507	507	18	0	
8	0	0	0	0	495	508	24	0	
9	0	0	0	0	500	507	26	0	
10	0	0	0	0	528	509	27	0	
11	0	0	0	0	533	511	27	0	
12	0	0	0	0	528	509	28	0	
13	0	0	0	0	511	507	22	0	
14	0	0	0	0	511	503	25	0	
15	0	0	0	0	511	504	25	0	
0	0	0	0	0	502	508	20	0	
1	0	0	0	0	495	504	19	0	
2	0	0	0	0	492	505	23	0	
3	0	0	0	0	497	510	28	0	
4	0	0	0	0	509	513	32	0	
5	0	0	0	0	516	510	29	0	
6	0	0	0	0	518	509	31	0	
7	0	0	0	0	544	511	30	0	
8	0	0	0	0	532	511	31	0	
9	0	0	0	0	505	508	24	0	
10	0	0	0	0	499	509	31	0	
11	0	0	0	0	504	507	34	0	
12	0	0	0	0	507	508	36	0	
13	0	0	0	0	515	507	41	0	
14	0	0	0	0	510	507	34	0	
15	0	0	0	0	507	505	33	0	
0	0	0	0	0	507	510	39	0	
1	0	0	0	0	507	509	39	0	
2	0	0	0	0	504	507	42	0	
3	0	0	0	0	507	506	41	0	
4	0	0	0	0	512	507	42	0	
5	0	0	0	0	513	507	42	0	
6	0	0	0	0	506	504	44	0	
7	0	0	0	0	503	503	43	0	
8	0	0	0	0	508	507	43	0	
9	0	0	0	0	514	508	42	0	
10	0	0	0	0	519	512	45	0	
11	0	0	0	0	522	515	41	0	
12	0	0	0	0	508	509	39	0	
13	0	0	0	0	513	506	39	0	
14	0	0	0	0	499	508	42	0	
15	0	0	0	0	487	508	42	0	
0	0	0	0	0	494	504	41	0	
1	0	0	0	0	504	506	44	0	
2	0	0	0	0	527	507	52	0	
3	0	0	0	0	532	507	55	0	
4	0	0	0	0	523	504	55	0	
5	0	0	0	0	525	507	61	0	
6	0	0	0	0	512	511	63	0	
7	0	0	0	0	505	508	69	0	
8	0	0	0	0	515	507	73	0	
9	0	0	0	0	512	499	72	0	
10	0	0	0	0	497	499	78	0	
11	0	0	0	0	504	510	73	0	
12	0	0	0	0	516	519	72	0	
13	0	0	0	0	533	524	76	0	
14	0	0	0	0	532	518	77	0	
15	0	0	0	0	531	514	72	0	
0	0	0	0	0	516	506	76	0	
1	0	0	0	0	505	496	82	0	
2	0	0	0	0	499	500	88	0	
3	0	0	0	0	501	504	86	0	
4	0	0	0	0	510	507	85	0	
5	0	0	0	0	511	514	84	0	
6	0	0	0	0	510	512	89	0	
7	0	0	0	0	502	515	99	0	
8	0	0	0	0	511	514	103	0	
9	0	0	0	0	508	511	106	0	
10	0	0	0	0	495	507	108	0	
11	0	0	0	0	493	508	105	0	
12	0	0	0	0	502	505	108	0	
13	0	0	0	0	512	503	112	0	
14	0	0	0	0	517	499	112	0	
15	0	0	0	0	519	498	116	0	
0	0	0	0	0	528	504	118	0	
1	0	0	0	0	521	514	120	0	
2	0	0	0	0	498	512	118	0	
3	0	0	0	0	483	505	119	0	
4	0	0	0	0	499	508	125	0	
5	0	0	0	0	519	510	123	0	
6	0	0	0	0	539	511	127	0	
7	0	0	0	0	542	511	129	0	
8	0	0	0	0	533	509	132	0	
9	0	0	0	0	514	503	135	0	
10	0	0	0	0	510	492	143	0	
11	0	0	0	0	510	494	141	0	
12	0	0	0	0	501	514	143	0	
13	0	0	0	0	494	525	148	0	
14	0	0	0	0	483	528	154	0	
15	0	0	0	0	492	519	153	0	
0	0	0	0	0	510	507	152	0	
1	0	0	0	0	519	517	159	0	
2	0	0	0	0	512	509	157	0	
3	0	0	0	0	506	477	184	0	
4	0	0	0	0	500	483	189	0	
5	0	0	0	0	500	504	194	0	
6	0	0	0	0	498	504	196	0	
7	0	0	0	0	502	507	199	1	
8	0	0	0	0	524	527	203	7	
9	0	0	0	0	544	529	205	10	
10	0	0	0	0	533	513	207	9	
11	0	0	0	0	502	504	213	10	
12	0	0	0	0	512	500	216	11	
13	0	0	0	0	532	501	219	11	
14	0	0	0	0	548	514	217	11	
15	0	0	0	0	545	525	219	11	
0	0	0	0	0	529	519	221	11	
1	0	0	0	0	518	522	221	12	
2	0	0	0	0	493	509	223	12	
3	0	0	0	0	490	495	224	12	
4	0	0	0	0	465	499	223	12	
5	0	0	0	0	458	492	226	23	
6	0	0	0	0	446	481	230	27	
7	0	0	0	0	472	505	231	31	
8	0	0	0	0	485	499	228	32	
9	0	0	0	0	512	501	226	36	
10	0	0	0	0	519	497	226	39	
11	0	0	0	0	522	528	225	38	
12	0	0	0	0	544	536	224	41	
13	0	0	0	0	549	523	223	49	
14	0	0	0	0	546	519	225	51	
15	0	0	0	0	501	504	224	54	
0	0	0	0	0	492	508	221	56	
1	0	0	0	0	508	505	223	56	
2	0	0	0	0	510	491	224	60	
3	0	0	0	0	523	508	223	66	
4	0	0	0	0	539	529	223	113	
5	0	0	0	0	538	528	223	119	
6	0	0	0	0	555	520	227	119	
7	0	0	0	0	558	516	226	122	
8	0	0	0	0	501	488	225	129	
9	0	0	0	0	461	491	228	132	
10	0	0	0	0	476	502	230	140	
11	0	0	0	0	490	491	230	137	
12	0	0	0	0	495	489	227	141	
13	0	0	0	0	487	496	228	144	
14	0	0	0	0	529	519	230	145	
15	0	0	0	0	547	519	233	144	
0	0	0	0	0	549	510	237	146	
1	0	0	0	0	536	508	238	152	
2	0	0	0	0	464	505	241	155	
3	0	0	0	0	464	507	246	150	
4	0	0	0	0	435	523	251	152	
5	0	0	0	0	440	527	247	158	
6	0	0	0	0	462	510	255	152	
7	0	0	0	0	555	508	252	151	
8	0	0	0	0	595	516	252	151	
9	0	0	0	0	586	512	250	154	
10	0	0	0	0	592	498	251	151	
11	0	0	0	0	614	507	253	149	
12	0	0	0	0	581	508	257	146	
13	0	0	0	0	558	510	255	157	
14	0	0	0	0	456	499	260	159	
15	0	0	0	0	476	496	257	151	
0	0	0	0	0	476	504	253	157	
1	0	0	0	0	473	508	251	153	
2	0	0	0	0	476	517	247	150	
3	0	0	0	0	501	519	244	161	
4	0	0	0	0	527	517	242	160	
5	0	0	0	0	503	528	246	166	
6	0	0	0	0	398	508	243	159	
7	0	0	0	0	412	484	243	156	
8	0	0	0	0	488	496	242	154	
9	0	0	0	0	537	516	237	150	
10	0	0	0	0	568	501	232	154	
11	0	0	0	0	593	497	228	163	
12	0	0	0	0	611	500	225	160	
13	0	0	0	0	547	530	224	158	
14	0	0	0	0	478	532	221	157	
15	0	0	0	0	452	508	220	151	
0	0	0	0	0	427	495	221	156	
1	0	0	0	0	421	489	213	147	
2	0	0	0	0	463	492	211	147	
3	0	0	0	0	537	505	204	146	
4	0	0	0	0	593	538	198	140	
5	0	0	0	0	617	522	193	135	
6	0	0	0	0	563	507	182	137	
7	0	0	0	0	524	499	179	143	
8	0	0	0	0	439	503	174	150	
9	0	0	0	0	421	520	166	147	
10	0	0	0	0	431	500	158	161	
11	0	0	0	0	464	488	152	165	
12	0	0	0	0	519	502	144	170	
13	0	0	0	0	530	527	134	167	
14	0	0	0	0	535	521	110	167	
15	0	0	0	0	572	509	106	162	
0	0	0	0	0	575	486	102	161	
1	0	0	0	0	533	472	95	167	
2	0	0	0	0	544	474	91	167	
3	0	0	0	0	632	504	84	170	
4	0	0	0	0	584	538	82	182	
5	0	0	0	0	564	514	73	185	
6	0	0	0	0	544	499	66	184	
7	0	0	0	0	467	555	63	184	
8	0	0	0	0	395	563	56	183	
9	0	0	0	0	367	524	47	186	
10	0	0	0	0	415	512	40	200	
11	0	0	0	0	433	499	34	201	
12	0	0	0	0	489	506	17	203	
13	0	0	0	0	567	505	13	199	
14	0	0	0	0	564	502	1	203	
15	0	0	0	0	516	503	0	201	
0	0	0	0	0	526	520	0	217	
1	0	0	0	0	508	495	0	216	
2	0	0	0	0	529	471	0	227	
3	0	0	0	0	518	456	0	240	
4	0	0	0	0	505	445	0	247	
5	0	0	0	0	506	469	0	245	
6	0	0	0	0	473	513	0	247	
7	0	0	0	0	467	540	0	250	
8	0	0	0	0	526	547	0	243	
9	0	0	0	0	511	548	0	239	
10	0	0	0	0	478	540	0	239	
11	0	0	0	0	520	532	0	238	
12	0	0	0	0	555	512	0	241	
13	0	0	0	0	601	503	0	244	
14	0	0	0	0	573	502	0	255	
15	0	0	0	0	534	488	0	256	
0	0	0	0	0	536	485	0	255	
1	0	0	0	0	589	488	0	257	
2	0	0	0	0	531	503	0	259	
3	0	0	0	0	489	503	0	260	
4	0	0	0	0	480	520	0	265	
5	0	0	0	0	467	527	0	274	
6	0	0	0	0	483	510	0	281	
7	0	0	0	0	497	524	1	281	
8	0	0	0	0	466	524	0	284	
9	0	0	0	0	475	512	0	288	
10	0	0	0	0	459	504	2	282	
11	0	0	0	0	463	491	2	285	
12	0	0	0	0	526	491	31	287	
13	0	0	0	0	555	477	21	289	
14	0	0	0	0	494	496	23	289	
15	0	0	0	0	453	520	20	291	
0	0	0	0	0	489	523	14	287	
1	0	0	0	0	542	523	18	287	
2	0	0	0	0	581	520	29	288	
3	0	0	0	0	542	516	31	294	
4	0	0	0	0	538	510	33	294	
5	0	0	0	0	570	503	34	297	
6	0	0	0	0	547	509	37	295	
7	0	0	0	0	475	511	37	298	
8	0	0	0	0	453	510	40	299	
9	0	0	0	0	455	508	41	301	
10	0	0	0	0	515	509	41	303	
11	0	0	0	0	608	514	43	297	
12	0	0	0	0	631	506	46	295	
13	0	0	0	0	583	520	47	295	
14	0	0	0	0	589	526	47	293	
15	0	0	0	0	473	508	46	293	
0	0	0	0	0	409	496	47	291	
1	0	0	0	0	434	509	48	289	
2	0	0	0	0	424	524	49	290	
3	0	0	0	0	421	497	52	295	
4	0	0	0	0	488	496	53	295	
5	0	0	0	0	532	498	53	294	
6	0	0	0	0	565	499	56	291	
7	0	0	0	0	508	497	55	289	
8	0	0	0	0	485	514	56	288	
9	0	0	0	0	443	517	57	292	
10	0	0	0	0	478	518	59	293	
11	0	0	0	0	508	511	59	295	
12	0	0	0	0	575	516	57	298	
13	0	0	0	0	543	511	57	300	
14	0	0	0	0	497	511	58	299	
15	0	0	0	0	504	505	58	300	
0	0	0	0	0	545	505	59	298	
1	0	0	0	0	555	503	60	299	
2	0	0	0	0	473	503	60	301	
3	0	0	0	0	502	482	58	302	
4	0	0	0	0	523	479	58	304	
5	0	0	0	0	527	505	57	305	
6	0	0	0	0	511	537	57	307	
7	0	0	0	0	524	541	59	306	
8	0	0	0	0	514	519	59	309	
9	0	0	0	0	511	505	59	311	
10	0	0	0	0	513	499	59	309	
11	0	0	0	0	515	492	60	310	
12	0	0	0	0	488	495	59	305	
13	0	0	0	0	518	502	59	303	
14	0	0	0	0	561	514	59	306	
15	0	0	0	0	529	508	60	305	
0	0	0	0	0	463	523	59	300	
1	0	0	0	0	445	544	59	302	
2	0	0	0	0	476	550	63	302	
3	0	0	0	0	488	521	66	306	
4	0	0	0	0	531	498	66	309	
5	0	0	0	0	611	491	63	302	
6	0	0	0	0	629	487	63	304	
7	0	0	0	0	583	460	65	307	
8	0	0	0	0	508	442	66	308	
9	0	0	0	0	433	486	66	309	
10	0	0	0	0	435	519	67	307	
11	0	0	0	0	450	536	67	308	
12	0	0	0	0	455	525	70	305	
13	0	0	0	0	494	515	69	308	
14	0	0	0	0	533	511	69	303	
15	0	0	0	0	606	507	70	297	
0	0	0	0	0	562	505	68	297	
1	0	0	0	0	519	517	69	297	
2	0	0	0	0	526	513	69	296	
3	0	0	0	0	518	511	71	302	
4	0	0	0	0	469	514	73	301	
5	0	0	0	0	484	503	73	307	
6	0	0	0	0	491	498	74	304	
7	0	0	0	0	445	518	74	303	
8	0	0	0	0	424	547	76	303	
9	0	0	0	0	457	522	77	300	
10	0	0	0	0	512	503	78	301	
11	0	0	0	0	535	502	79	305	
12	0	0	0	0	556	498	81	302	
13	0	0	0	0	559	496	83	301	
14	0	0	0	0	526	499	84	300	
15	0	0	0	0	514	517	83	301	
0	0	0	0	0	471	523	85	302	
1	0	0	0	0	485	514	86	303	
2	0	0	0	0	573	499	95	301	
3	0	0	0	0	579	492	103	303	
4	0	0	0	0	598	489	104	301	
5	0	0	0	0	687	492	105	302	
6	0	0	0	0	524	507	104	303	
7	0	0	0	0	367	513	103	304	
8	0	0	0	0	381	519	102	301	
9	0	0	0	0	464	524	102	301	
10	0	0	0	0	477	510	104	300	
11	0	0	0	0	499	503	103	303	
12	0	0	0	0	540	501	103	303	
13	0	0	0	0	572	499	104	301	
14	0	0	0	0	577	511	103	299	
15	0	0	0	0	556	521	103	300	
0	0	0	0	0	530	511	102	298	
1	0	0	0	0	488	515	100	298	
2	0	0	0	0	463	521	98	298	
3	0	0	0	0	464	519	102	300	
4	0	0	0	0	481	507	101	301	
5	0	0	0	0	476	499	101	297	
6	0	0	0	0	479	494	101	296	
7	0	0	0	0	475	501	100	296	
8	0	0	0	0	467	497	101	295	
9	0	0	0	0	481	503	102	295	
10	0	0	0	0	514	508	102	290	
11	0	0	0	0	536	517	117	291	
12	0	0	0	0	547	510	117	289	
13	0	0	0	0	552	506	118	289	
14	0	0	0	0	566	514	119	292	
15	0	0	0	0	586	519	118	290	
0	0	0	0	0	544	523	121	289	
1	0	0	0	0	490	522	121	289	
2	0	0	0	0	437	504	120	288	
3	0	0	0	0	464	486	120	290	
4	0	0	0	0	435	486	122	291	
5	0	0	0	0	458	501	123	290	
6	0	0	0	0	522	510	123	288	
7	0	0	0	0	568	503	123	287	
8	0	0	0	0	590	488	123	286	
9	0	0	0	0	680	508	125	286	
10	0	0	0	0	609	527	131	287	
11	0	0	0	0	506	525	135	288	
12	0	0	0	0	456	520	139	291	
13	0	0	0	0	461	527	140	295	
14	0	0	0	0	471	524	142	294	
15	0	0	0	0	478	501	142	291	
0	0	0	0	0	479	476	143	291	
1	0	0	0	0	495	477	143	291	
2	0	0	0	0	534	491	144	284	
3	0	0	0	0	558	515	146	276	
4	0	0	0	0	551	524	148	276	
5	0	0	0	0	516	527	148	279	
6	0	0	0	0	463	523	146	279	
7	0	0	0	0	455	532	147	284	
8	0	0	0	0	446	517	148	280	
9	0	0	0	0	498	483	150	282	
10	0	0	0	0	502	470	149	279	
11	0	0	0	0	498	491	151	276	
12	0	0	0	0	525	510	153	281	
13	0	0	0	0	531	505	153	274	
14	0	0	0	0	541	489	154	273	
15	0	0	0	0	488	504	156	281	
0	0	0	0	0	482	511	156	278	
1	0	0	0	0	519	521	159	281	
2	0	0	0	0	497	511	160	279	
3	0	0	0	0	515	506	160	281	
4	0	0	0	0	546	517	163	281	
5	0	0	0	0	554	511	164	278	
6	0	0	0	0	542	515	163	278	
7	0	0	0	0	514	511	163	278	
8	0	0	0	0	497	507	162	279	
9	0	0	0	0	486	511	162	279	
10	0	0	0	0	430	513	161	277	
11	0	0	0	0	459	511	163	276	
12	0	0	0	0	496	511	165	277	
13	0	0	0	0	529	508	166	277	
14	0	0	0	0	576	513	167	277	
15	0	0	0	0	594	511	168	277	
0	0	0	0	0	560	503	167	280	
1	0	0	0	0	547	506	169	280	
2	0	0	0	0	487	505	167	280	
3	0	0	0	0	468	508	167	281	
4	0	0	0	0	506	508	167	282	
5	0	0	0	0	520	502	167	283	
6	0	0	0	0	515	500	168	283	
7	0	0	0	0	516	508	171	283	
8	0	0	0	0	504	516	170	282	
9	0	0	0	0	538	511	170	283	
10	0	0	0	0	545	514	168	283	
11	0	0	0	0	462	507	168	283	
12	0	0	0	0	470	504	169	283	
13	0	0	0	0	489	507	171	282	
14	0	0	0	0	533	495	172	283	
15	0	0	0	0	543	510	172	284	
0	0	0	0	0	501	512	174	285	
1	0	0	0	0	530	520	171	284	
2	0	0	0	0	525	515	173	284	
3	0	0	0	0	515	507	173	285	
4	0	0	0	0	524	504	173	291	
5	0	0	0	0	502	504	172	292	
6	0	0	0	0	439	498	172	294	
7	0	0	0	0	432	496	172	294	
8	0	0	0	0	473	507	172	295	
9	0	0	0	0	485	512	173	298	
10	0	0	0	0	509	515	172	300	
11	0	0	0	0	514	512	172	297	
12	0	0	0	0	539	512	173	297	
13	0	0	0	0	554	507	174	297	
14	0	0	0	0	530	510	174	297	
15	0	0	0	0	534	517	173	299	
0	0	0	0	0	543	513	172	299	
1	0	0	0	0	505	503	173	299	
2	0	0	0	0	473	502	175	299	
3	0	0	0	0	512	502	175	300	
4	0	0	0	0	501	504	174	301	
5	0	0	0	0	484	507	174	304	
6	0	0	0	0	495	510	174	302	
7	0	0	0	0	533	503	171	302	
8	0	0	0	0	571	494	170	302	
9	0	0	0	0	592	500	171	303	
10	0	0	0	0	588	518	171	301	
11	0	0	0	0	511	524	171	302	
12	0	0	0	0	433	514	173	302	
13	0	0	0	0	439	515	172	302	
14	0	0	0	0	449	505	175	301	
15	0	0	0	0	484	502	174	301	
0	0	0	0	0	537	510	175	302	
1	0	0	0	0	571	497	175	304	
2	0	0	0	0	545	484	178	305	
3	0	0	0	0	540	498	179	304	
4	0	0	0	0	519	519	181	304	
5	0	0	0	0	522	524	180	307	
6	0	0	0	0	491	522	182	307	
7	0	0	0	0	475	512	184	309	
8	0	0	0	0	460	512	185	311	
9	0	0	0	0	461	510	185	311	
10	0	0	0	0	475	498	186	312	
11	0	0	0	0	486	499	185	313	
12	0	0	0	0	529	519	184	315	
13	0	0	0	0	541	530	184	318	
14	0	0	0	0	568	520	182	316	
15	0	0	0	0	557	504	183	315	
0	0	0	0	0	553	496	183	316	
1	0	0	0	0	512	485	184	317	
2	0	0	0	0	486	487	184	318	
3	0	0	0	0	499	509	186	318	
4	0	0	0	0	495	516	187	319	
5	0	0	0	0	487	515	188	319	
6	0	0	0	0	492	522	189	319	
7	0	0	0	0	551	508	189	318	
8	0	0	0	0	540	501	190	319	
9	0	0	0	0	494	520	190	318	
10	0	0	0	0	524	513	191	318	
11	0	0	0	0	552	495	192	317	
12	0	0	0	0	497	490	191	315	
13	0	0	0	0	483	491	191	316	
14	0	0	0	0	494	489	191	315	
15	0	0	0	0	469	499	192	315	
0	0	0	0	0	486	507	192	317	
1	0	0	0	0	528	512	192	318	
2	0	0	0	0	515	524	193	320	
3	0	0	0	0	539	522	194	319	
4	0	0	0	0	553	521	194	318	
5	0	0	0	0	525	524	194	320	
6	0	0	0	0	522	505	195	319	
7	0	0	0	0	515	506	194	320	
8	0	0	0	0	492	507	195	321	
9	0	0	0	0	481	508	193	323	
10	0	0	0	0	460	505	194	323	
11	0	0	0	0	446	517	194	325	
12	0	0	0	0	448	519	194	324	
13	0	0	0	0	499	512	194	324	
14	0	0	0	0	518	504	193	323	
15	0	0	0	0	555	511	195	322	
0	0	0	0	0	574	508	196	321	
1	0	0	0	0	565	491	196	321	
2	0	0	0	0	524	496	197	320	
3	0	0	0	0	511	507	198	320	
4	0	0	0	0	527	507	200	323	
5	0	0	0	0	511	507	199	321	
6	0	0	0	0	520	501	199	321	
7	0	0	0	0	544	511	201	321	
8	0	0	0	0	525	513	201	320	
9	0	0	0	0	460	513	204	321	
10	0	0	0	0	426	516	204	321	
11	0	0	0	0	472	515	201	323	
12	0	0	0	0	520	512	202	324	
13	0	0	0	0	514	505	204	323	
14	0	0	0	0	513	501	207	323	
15	0	0	0	0	525	499	206	323	
0	0	0	0	0	508	508	207	323	
1	0	0	0	0	512	510	206	323	
2	0	0	0	0	521	507	207	324	
3	0	0	0	0	538	514	208	326	
4	0	0	0	0	504	516	208	324	
5	0	0	0	0	499	513	206	324	
6	0	0	0	0	484	511	208	324	
7	0	0	0	0	468	502	207	324	
8	0	0	0	0	523	503	208	324	
9	0	0	0	0	572	495	207	324	
10	0	0	0	0	638	519	208	324	
11	0	0	0	0	579	517	208	326	
12	0	0	0	0	561	494	210	325	
13	0	0	0	0	504	492	211	327	
14	0	0	0	0	471	516	211	327	
15	0	0	0	0	474	512	211	328	
0	0	0	0	0	481	508	212	329	
1	0	0	0	0	467	499	212	329	
2	0	0	0	0	463	499	212	328	
3	0	0	0	0	473	511	214	328	
4	0	0	0	0	499	519	214	331	
5	0	0	0	0	515	502	216	330	
6	0	0	0	0	529	494	217	331	
7	0	0	0	0	538	508	216	332	
8	0	0	0	0	502	520	216	332	
9	0	0	0	0	506	521	217	333	
10	0	0	0	0	488	530	216	334	
11	0	0	0	0	451	520	217	334	
12	0	0	0	0	469	512	216	334	
13	0	0	0	0	504	512	217	336	
14	0	0	0	0	539	495	217	335	
15	0	0	0	0	557	497	218	335	
0	0	0	0	0	525	491	217	336	
1	0	0	0	0	507	495	218	334	
2	0	0	0	0	480	495	217	335	
3	0	0	0	0	504	488	217	333	
4	0	0	0	0	537	503	217	334	
5	0	0	0	0	513	518	218	335	
6	0	0	0	0	530	523	219	333	
7	0	0	0	0	530	535	220	329	
8	0	0	0	0	553	527	219	328	
9	0	0	0	0	556	502	219	328	
10	0	0	0	0	519	498	217	327	
11	0	0	0	0	531	503	219	327	
12	0	0	0	0	530	506	218	327	
13	0	0	0	0	538	496	219	326	
14	0	0	0	0	551	489	220	325	
15	0	0	0	0	565	504	220	325	
0	0	0	0	0	455	515	221	324	
1	0	0	0	0	419	524	219	325	
2	0	0	0	0	463	519	219	327	
3	0	0	0	0	525	515	218	326	
4	0	0	0	0	500	516	218	326	
5	0	0	0	0	475	503	214	326	
6	0	0	0	0	480	500	211	326	
7	0	0	0	0	487	511	211	327	
8	0	0	0	0	495	517	214	327	
9	0	0	0	0	519	510	213	327	
10	0	0	0	0	549	527	214	328	
11	0	0	0	0	516	526	216	329	
12	0	0	0	0	485	520	215	330	
13	0	0	0	0	489	505	216	327	
14	0	0	0	0	533	483	215	329	
15	0	0	0	0	548	468	214	328	
0	0	0	0	0	501	469	215	328	
1	0	0	0	0	467	494	215	327	
2	0	0	0	0	501	515	215	328	
3	0	0	0	0	563	515	216	326	
4	0	0	0	0	543	512	215	327	
5	0	0	0	0	592	513	214	328	
6	0	0	0	0	527	519	215	329	
7	0	0	0	0	497	520	215	329	
8	0	0	0	0	498	524	217	329	
9	0	0	0	0	483	526	218	331	
10	0	0	0	0	478	527	217	328	
11	0	0	0	0	483	509	218	329	
12	0	0	0	0	472	483	217	330	
13	0	0	0	0	498	491	219	329	
14	0	0	0	0	527	506	219	329	
15	0	0	0	0	520	499	218	327	
0	0	0	0	0	479	499	218	326	
1	0	0	0	0	470	511	219	331	
2	0	0	0	0	484	515	219	330	
3	0	0	0	0	536	513	221	331	
4	0	0	0	0	546	507	220	330	
5	0	0	0	0	593	507	219	331	
6	0	0	0	0	577	510	217	331	
7	0	0	0	0	563	497	219	328	
8	0	0	0	0	502	510	219	331	
9	0	0	0	0	471	536	220	331	
10	0	0	0	0	443	537	219	330	
11	0	0	0	0	426	535	219	329	
12	0	0	0	0	470	511	221	329	
13	0	0	0	0	536	492	220	330	
14	0	0	0	0	570	501	218	331	
15	0	0	0	0	550	514	219	331	
0	0	0	0	0	506	480	218	332	
1	0	0	0	0	493	453	219	332	
2	0	0	0	0	472	484	218	332	
3	0	0	0	0	498	515	221	332	
4	0	0	0	0	508	521	220	334	
5	0	0	0	0	526	515	221	332	
6	0	0	0	0	563	511	224	335	
7	0	0	0	0	576	512	225	335	
8	0	0	0	0	568	513	223	334	
9	0	0	0	0	526	508	224	334	
10	0	0	0	0	482	508	225	333	
11	0	0	0	0	494	510	225	334	
12	0	0	0	0	480	509	224	334	
13	0	0	0	0	478	509	223	334	
14	0	0	0	0	499	514	222	334	
15	0	0	0	0	498	516	223	336	
0	0	0	0	0	493	510	223	340	
1	0	0	0	0	506	504	223	338	
2	0	0	0	0	525	521	221	337	
3	0	0	0	0	495	519	219	337	
4	0	0	0	0	492	517	221	337	
5	0	0	0	0	504	499	220	338	
6	0	0	0	0	531	506	220	340	
7	0	0	0	0	518	508	219	339	
8	0	0	0	0	532	506	219	339	
9	0	0	0	0	543	506	219	337	
10	0	0	0	0	523	506	219	338	
11	0	0	0	0	507	512	218	339	
12	0	0	0	0	476	507	219	338	
13	0	0	0	0	467	480	219	343	
14	0	0	0	0	481	480	219	340	
15	0	0	0	0	485	500	220	339	
0	0	0	0	0	525	510	218	339	
1	0	0	0	0	576	523	217	340	
2	0	0	0	0	570	512	218	341	
3	0	0	0	0	528	513	216	342	
4	0	0	0	0	503	518	218	342	
5	0	0	0	0	507	523	216	341	
6	0	0	0	0	515	525	218	341	
7	0	0	0	0	469	500	216	340	
8	0	0	0	0	503	490	219	340	
9	0	0	0	0	492	483	218	341	
10	0	0	0	0	504	491	219	341	
11	0	0	0	0	532	514	218	340	
12	0	0	0	0	560	520	218	340	
13	0	0	0	0	559	516	218	339	
14	0	0	0	0	511	505	218	340	
15	0	0	0	0	487	504	219	340	
0	0	0	0	0	463	516	220	341	
1	0	0	0	0	433	519	219	341	
2	0	0	0	0	493	513	220	340	
3	0	0	0	0	536	510	219	341	
4	0	0	0	0	561	515	220	340	
5	0	0	0	0	552	513	221	339	
6	0	0	0	0	577	518	222	339	
7	0	0	0	0	548	499	220	339	
8	0	0	0	0	506	495	222	339	
9	0	0	0	0	533	501	222	340	
10	0	0	0	0	481	506	221	339	
11	0	0	0	0	442	509	221	339	
12	0	0	0	0	428	512	222	340	
13	0	0	0	0	418	506	222	340	
14	0	0	0	0	453	511	222	340	
15	0	0	0	0	515	506	222	340	
0	0	0	0	0	574	507	224	340	
1	0	0	0	0	586	516	223	340	
2	0	0	0	0	504	513	223	340	
3	0	0	0	0	453	508	223	341	
4	0	0	0	0	486	511	223	340	
5	0	0	0	0	512	497	223	340	
6	0	0	0	0	537	497	223	341	
7	0	0	0	0	548	496	224	340	
8	0	0	0	0	560	508	225	341	
9	0	0	0	0	580	506	225	340	
10	0	0	0	0	537	513	224	340	
11	0	0	0	0	467	519	225	341	
12	0	0	0	0	465	506	226	342	
13	0	0	0	0	479	498	225	342	
14	0	0	0	0	495	502	227	342	
15	0	0	0	0	542	517	227	342	
0	0	0	0	0	564	518	226	343	
1	0	0	0	0	512	526	226	342	
2	0	0	0	0	483	521	227	342	
3	0	0	0	0	483	506	228	343	
4	0	0	0	0	487	499	226	342	
5	0	0	0	0	516	497	227	343	
6	0	0	0	0	562	494	229	343	
7	0	0	0	0	578	487	228	343	
8	0	0	0	0	546	494	226	345	
9	0	0	0	0	561	499	225	344	
10	0	0	0	0	536	516	226	343	
11	0	0	0	0	469	520	226	343	
12	0	0	0	0	463	517	227	343	
13	0	0	0	0	492	521	227	344	
14	0	0	0	0	527	516	227	343	
15	0	0	0	0	483	518	226	343	
0	0	0	0	0	458	518	228	344	
1	0	0	0	0	445	508	228	344	
2	0	0	0	0	501	511	228	345	
3	0	0	0	0	483	512	228	344	
4	0	0	0	0	463	490	227	345	
5	0	0	0	0	493	501	230	345	
6	0	0	0	0	519	512	228	345	
7	0	0	0	0	513	511	228	346	
8	0	0	0	0	524	502	227	345	
9	0	0	0	0	535	491	226	345	
10	0	0	0	0	575	502	228	346	
11	0	0	0	0	556	507	226	345	
12	0	0	0	0	541	504	225	345	
13	0	0	0	0	522	494	228	345	
14	0	0	0	0	540	507	227	346	
15	0	0	0	0	526	515	228	346	
0	0	0	0	0	501	516	228	347	
1	0	0	0	0	476	513	228	348	
2	0	0	0	0	499	530	227	347	
3	0	0	0	0	514	532	228	346	
4	0	0	0	0	508	514	228	346	
5	0	0	0	0	543	507	230	347	
6	0	0	0	0	560	504	228	346	
7	0	0	0	0	523	492	226	345	
8	0	0	0	0	470	482	228	345	
9	0	0	0	0	420	509	228	344	
10	0	0	0	0	417	512	227	344	
11	0	0	0	0	472	518	229	345	
12	0	0	0	0	530	528	228	345	
13	0	0	0	0	552	526	227	346	
14	0	0	0	0	566	498	226	345	
15	0	0	0	0	545	482	227	345	
0	0	0	0	0	504	483	227	345	
1	0	0	0	0	500	509	225	344	
2	0	0	0	0	512	511	225	345	
3	0	0	0	0	530	492	225	344	
4	0	0	0	0	531	499	224	345	
5	0	0	0	0	521	506	224	344	
6	0	0	0	0	502	512	224	344	
7	0	0	0	0	484	523	226	345	
8	0	0	0	0	475	517	225	344	
9	0	0	0	0	498	506	225	345	
10	0	0	0	0	507	510	225	345	
11	0	0	0	0	525	519	223	344	
12	0	0	0	0	525	517	223	344	
13	0	0	0	0	519	514	224	344	
14	0	0	0	0	520	504	224	345	
15	0	0	0	0	525	488	225	345	
0	0	0	0	0	563	500	225	344	
1	0	0	0	0	561	516	225	344	
2	0	0	0	0	510	519	225	345	
3	0	0	0	0	469	512	225	343	
4	0	0	0	0	478	510	225	342	
5	0	0	0	0	499	509	226	342	
6	0	0	0	0	496	507	225	342	
7	0	0	0	0	483	498	225	342	
8	0	0	0	0	497	513	225	342	
9	0	0	0	0	494	514	227	342	
10	0	0	0	0	512	504	226	341	
11	0	0	0	0	551	519	227	340	
12	0	0	0	0	523	510	227	341	
13	0	0	0	0	504	492	227	340	
14	0	0	0	0	522	494	228	340	
15	0	0	0	0	579	500	228	340	
0	0	0	0	0	578	499	227	340	
1	0	0	0	0	537	508	228	340	
2	0	0	0	0	544	512	228	339	
3	0	0	0	0	487	509	228	339	
4	0	0	0	0	415	518	228	339	
5	0	0	0	0	402	520	227	339	
6	0	0	0	0	436	524	227	340	
7	0	0	0	0	489	518	227	339	
8	0	0	0	0	521	515	227	340	
9	0	0	0	0	508	510	228	340	
10	0	0	0	0	502	503	228	339	
11	0	0	0	0	491	500	228	339	
12	0	0	0	0	489	507	229	339	
13	0	0	0	0	515	503	228	339	
14	0	0	0	0	541	495	228	338	
15	0	0	0	0	553	499	228	338	
0	0	0	0	0	566	490	228	338	
1	0	0	0	0	595	492	228	338	
2	0	0	0	0	553	494	229	339	
3	0	0	0	0	530	511	228	338	
4	0	0	0	0	480	516	228	339	
5	0	0	0	0	471	524	228	339	
6	0	0	0	0	496	520	227	339	
7	0	0	0	0	523	517	227	339	
8	0	0	0	0	543	515	227	338	
9	0	0	0	0	544	505	227	339	
10	0	0	0	0	527	502	228	338	
11	0	0	0	0	518	508	228	338	
12	0	0	0	0	463	516	228	339	
13	0	0	0	0	437	517	228	339	
14	0	0	0	0	441	518	227	339	
15	0	0	0	0	452	510	227	337	
0	0	0	0	0	487	498	227	338	
1	0	0	0	0	532	500	226	337	
2	0	0	0	0	553	493	228	338	
3	0	0	0	0	568	486	228	338	
4	0	0	0	0	581	504	228	337	
5	0	0	0	0	579	520	227	338	
6	0	0	0	0	528	516	227	338	
7	0	0	0	0	476	508	228	338	
8	0	0	0	0	525	517	226	338	
9	0	0	0	0	487	515	227	337	
10	0	0	0	0	442	509	227	338	
11	0	0	0	0	479	511	228	337	
12	0	0	0	0	507	512	227	338	
13	0	0	0	0	521	511	227	338	
14	0	0	0	0	527	517	228	337	
15	0	0	0	0	525	519	228	338	
0	0	0	0	0	517	523	229	337	
1	0	0	0	0	505	513	227	336	
2	0	0	0	0	509	484	227	337	
3	0	0	0	0	490	464	229	337	
4	0	0	0	0	516	474	228	337	
5	0	0	0	0	505	496	229	337	
6	0	0	0	0	517	519	228	336	
7	0	0	0	0	531	521	229	337	
8	0	0	0	0	544	516	229	338	
9	0	0	0	0	491	515	227	337	
10	0	0	0	0	467	509	229	337	
11	0	0	0	0	476	510	228	337	
12	0	0	0	0	487	517	228	336	
13	0	0	0	0	520	528	227	335	
14	0	0	0	0	564	520	228	335	
15	0	0	0	0	548	518	227	335	
0	0	0	0	0	515	501	228	335	
1	0	0	0	0	527	499	227	334	
2	0	0	0	0	532	511	227	334	
3	0	0	0	0	524	515	229	332	
4	0	0	0	0	505	501	227	333	
5	0	0	0	0	465	505	228	333	
6	0	0	0	0	436	507	228	333	
7	0	0	0	0	448	502	229	332	
8	0	0	0	0	466	488	229	333	
9	0	0	0	0	511	497	229	332	
10	0	0	0	0	553	516	227	331	
11	0	0	0	0	549	522	226	331	
12	0	0	0	0	547	509	226	331	
13	0	0	0	0	538	503	227	330	
14	0	0	0	0	546	496	225	330	
15	0	0	0	0	545	500	226	331	
0	0	0	0	0	536	511	226	329	
1	0	0	0	0	517	501	227	331	
2	0	0	0	0	509	502	228	331	
3	0	0	0	0	486	509	228	330	
4	0	0	0	0	492	513	228	331	
5	0	0	0	0	467	513	227	329	
6	0	0	0	0	486	516	228	329	
7	0	0	0	0	492	511	229	329	
8	0	0	0	0	520	508	229	329	
9	0	0	0	0	546	504	230	330	
10	0	0	0	0	540	516	229	329	
11	0	0	0	0	508	523	229	329	
12	0	0	0	0	492	517	230	327	
13	0	0	0	0	499	516	229	328	
14	0	0	0	0	502	515	229	328	
15	0	0	0	0	503	523	230	328	
0	0	0	0	0	510	504	232	327	
1	0	0	0	0	489	473	232	328	
2	0	0	0	0	491	466	233	327	
3	0	0	0	0	488	480	233	328	
4	0	0	0	0	477	500	234	327	
5	0	0	0	0	515	520	234	327	
6	0	0	0	0	526	520	235	327	
7	0	0	0	0	565	525	235	327	
8	0	0	0	0	587	524	236	326	
9	0	0	0	0	577	516	235	327	
10	0	0	0	0	554	514	236	327	
11	0	0	0	0	509	511	236	327	
12	0	0	0	0	472	514	236	326	
13	0	0	0	0	436	511	235	327	
14	0	0	0	0	415	507	235	327	
15	0	0	0	0	459	494	238	326	
0	0	0	0	0	503	496	238	327	
1	0	0	0	0	514	503	238	327	
2	0	0	0	0	518	512	239	327	
3	0	0	0	0	562	515	239	327	
4	0	0	0	0	543	508	238	327	
5	0	0	0	0	533	503	238	327	
6	0	0	0	0	568	499	239	326	
7	0	0	0	0	562	506	238	326	
8	0	0	0	0	542	508	239	326	
9	0	0	0	0	502	513	240	326	
10	0	0	0	0	486	508	240	326	
11	0	0	0	0	497	514	239	326	
12	0	0	0	0	506	517	239	326	
13	0	0	0	0	497	518	240	326	
14	0	0	0	0	484	517	239	325	
15	0	0	0	0	517	513	240	324	
0	0	0	0	0	498	499	241	325	
1	0	0	0	0	437	497	242	325	
2	0	0	0	0	459	499	240	325	
3	0	0	0	0	489	504	241	324	
4	0	0	0	0	496	504	243	325	
5	0	0	0	0	511	505	243	323	
6	0	0	0	0	538	508	243	323	
7	0	0	0	0	565	519	243	324	
8	0	0	0	0	515	510	242	323	
9	0	0	0	0	496	502	241	322	
10	0	0	0	0	511	501	243	323	
11	0	0	0	0	516	503	242	323	
12	0	0	0	0	537	509	241	322	
13	0	0	0	0	534	513	241	321	
14	0	0	0	0	553	521	243	323	
15	0	0	0	0	589	519	244	322	
0	0	0	0	0	576	509	243	321	
1	0	0	0	0	516	498	244	321	
2	0	0	0	0	477	486	244	322	
3	0	0	0	0	485	495	241	321	
4	0	0	0	0	447	510	243	322	
5	0	0	0	0	471	516	243	323	
6	0	0	0	0	467	524	243	320	
7	0	0	0	0	461	528	242	321	
8	0	0	0	0	475	522	243	321	
9	0	0	0	0	492	510	243	321	
10	0	0	0	0	533	512	244	320	
11	0	0	0	0	559	499	243	320	
12	0	0	0	0	550	479	243	320	
13	0	0	0	0	547	481	242	319	
14	0	0	0	0	530	503	241	319	
15	0	0	0	0	536	519	243	319	
0	0	0	0	0	508	505	242	319	
1	0	0	0	0	494	508	242	319	
2	0	0	0	0	490	513	242	319	
3	0	0	0	0	467	510	241	319	
4	0	0	0	0	488	513	243	317	
5	0	0	0	0	497	514	243	317	
6	0	0	0	0	502	513	243	317	
7	0	0	0	0	525	512	244	316	
8	0	0	0	0	538	516	244	316	
9	0	0	0	0	526	514	242	316	
10	0	0	0	0	515	515	241	315	
11	0	0	0	0	532	505	241	313	
12	0	0	0	0	572	503	241	313	
13	0	0	0	0	527	496	241	314	
14	0	0	0	0	511	501	240	313	
15	0	0	0	0	508	505	240	312	
0	0	0	0	0	489	515	239	312	
1	0	0	0	0	479	502	238	313	
2	0	0	0	0	474	499	240	312	
3	0	0	0	0	477	502	239	309	
4	0	0	0	0	481	502	240	311	
5	0	0	0	0	512	509	238	311	
6	0	0	0	0	533	513	238	310	
7	0	0	0	0	538	516	238	310	
8	0	0	0	0	537	525	238	310	
9	0	0	0	0	515	522	238	311	
10	0	0	0	0	496	510	237	311	
11	0	0	0	0	480	499	235	308	
12	0	0	0	0	504	496	236	308	
13	0	0	0	0	531	490	236	309	
14	0	0	0	0	526	489	235	310	
15	0	0	0	0	520	512	236	311	
0	0	0	0	0	513	516	236	310	
1	0	0	0	0	529	518	235	310	
2	0	0	0	0	517	521	234	309	
3	0	0	0	0	506	520	236	309	
4	0	0	0	0	504	516	236	309	
5	0	0	0	0	505	522	237	310	
6	0	0	0	0	486	520	236	311	
7	0	0	0	0	489	510	236	312	
8	0	0	0	0	478	479	235	312	
9	0	0	0	0	515	474	238	312	
10	0	0	0	0	553	494	235	312	
11	0	0	0	0	550	496	236	311	
12	0	0	0	0	515	498	235	310	
13	0	0	0	0	515	509	236	311	
14	0	0	0	0	531	512	238	310	
15	0	0	0	0	528	517	236	310	
0	0	0	0	0	517	519	238	311	
1	0	0	0	0	491	514	238	311	
2	0	0	0	0	481	519	239	310	
3	0	0	0	0	464	511	240	310	
4	0	0	0	0	463	513	239	311	
5	0	0	0	0	448	511	240	310	
6	0	0	0	0	514	496	238	311	
7	0	0	0	0	559	499	238	311	
8	0	0	0	0	569	506	238	311	
9	0	0	0	0	543	514	237	312	
10	0	0	0	0	535	519	236	310	
11	0	0	0	0	519	516	236	311	
12	0	0	0	0	507	507	235	311	
13	0	0	0	0	508	511	234	312	
14	0	0	0	0	510	505	235	311	
15	0	0	0	0	512	499	233	312	
0	0	0	0	0	503	512	231	310	
1	0	0	0	0	492	512	233	311	
2	0	0	0	0	496	515	233	310	
3	0	0	0	0	514	519	231	310	
4	0	0	0	0	509	518	233	308	
5	0	0	0	0	499	502	231	309	
6	0	0	0	0	492	486	232	310	
7	0	0	0	0	511	496	228	309	
8	0	0	0	0	505	494	231	310	
9	0	0	0	0	511	491	229	309	
10	0	0	0	0	560	506	230	309	
11	0	0	0	0	558	509	229	308	
12	0	0	0	0	536	515	231	308	
13	0	0	0	0	528	519	230	308	
14	0	0	0	0	502	513	231	308	
15	0	0	0	0	491	504	230	308	
0	0	0	0	0	481	502	232	306	
1	0	0	0	0	481	512	230	308	
2	0	0	0	0	464	514	230	307	
3	0	0	0	0	448	512	231	308	
4	0	0	0	0	483	519	230	308	
5	0	0	0	0	520	516	231	308	
6	0	0	0	0	524	508	230	307	
7	0	0	0	0	559	504	230	305	
8	0	0	0	0	563	492	230	305	
9	0	0	0	0	550	502	230	304	
10	0	0	0	0	530	510	231	304	
11	0	0	0	0	512	503	231	304	
12	0	0	0	0	496	505	230	303	
13	0	0	0	0	489	514	230	304	
14	0	0	0	0	502	511	231	303	
15	0	0	0	0	528	516	231	303	
0	0	0	0	0	482	515	231	303	
1	0	0	0	0	504	519	230	302	
2	0	0	0	0	558	511	230	303	
3	0	0	0	0	565	501	228	303	
4	0	0	0	0	534	498	231	302	
5	0	0	0	0	508	496	229	302	
6	0	0	0	0	483	498	229	303	
7	0	0	0	0	489	519	229	303	
8	0	0	0	0	511	515	228	303	
9	0	0	0	0	489	507	230	303	
10	0	0	0	0	497	505	229	300	
11	0	0	0	0	521	505	229	300	
12	0	0	0	0	550	498	228	301	
13	0	0	0	0	516	506	230	300	
14	0	0	0	0	483	516	228	299	
15	0	0	0	0	451	510	228	299	
0	0	0	0	0	470	509	229	299	
1	0	0	0	0	487	516	229	297	
2	0	0	0	0	452	504	227	297	
3	0	0	0	0	516	510	226	296	
4	0	0	0	0	546	512	226	296	
5	0	0	0	0	523	512	227	293	
6	0	0	0	0	511	513	225	293	
7	0	0	0	0	540	508	225	293	
8	0	0	0	0	544	503	219	292	
9	0	0	0	0	522	504	219	292	
10	0	0	0	0	495	510	219	292	
11	0	0	0	0	496	514	219	292	
12	0	0	0	0	511	508	216	290	
13	0	0	0	0	527	507	217	293	
14	0	0	0	0	536	508	219	291	
15	0	0	0	0	533	514	219	290	
0	0	0	0	0	513	508	218	291	
1	0	0	0	0	515	507	217	290	
2	0	0	0	0	513	510	215	290	
3	0	0	0	0	516	512	216	292	
4	0	0	0	0	496	493	215	290	
5	0	0	0	0	492	487	215	295	
6	0	0	0	0	536	499	214	291	
7	0	0	0	0	526	507	213	289	
8	0	0	0	0	524	509	211	288	
9	0	0	0	0	531	511	210	278	
10	0	0	0	0	521	515	212	280	
11	0	0	0	0	533	516	211	276	
12	0	0	0	0	510	529	210	274	
13	0	0	0	0	473	528	209	275	
14	0	0	0	0	500	520	207	272	
15	0	0	0	0	468	512	207	271	
0	0	0	0	0	481	505	206	272	
1	0	0	0	0	516	496	206	273	
2	0	0	0	0	519	478	206	272	
3	0	0	0	0	544	472	207	272	
4	0	0	0	0	511	490	207	274	
5	0	0	0	0	512	517	207	274	
6	0	0	0	0	508	518	208	272	
7	0	0	0	0	488	523	206	271	
8	0	0	0	0	495	517	207	270	
9	0	0	0	0	484	509	207	269	
10	0	0	0	0	452	504	206	268	
11	0	0	0	0	443	517	206	267	
12	0	0	0	0	462	519	204	267	
13	0	0	0	0	491	516	203	267	
14	0	0	0	0	536	515	203	269	
15	0	0	0	0	576	510	206	266	
0	0	0	0	0	631	506	205	266	
1	0	0	0	0	591	517	201	264	
2	0	0	0	0	534	515	204	262	
3	0	0	0	0	500	498	204	263	
4	0	0	0	0	503	498	203	261	
5	0	0	0	0	510	520	204	262	
6	0	0	0	0	520	509	202	262	
7	0	0	0	0	522	503	204	261	
8	0	0	0	0	500	494	204	261	
9	0	0	0	0	477	478	203	260	
10	0	0	0	0	469	486	204	257	
11	0	0	0	0	477	487	203	258	
12	0	0	0	0	492	499	203	254	
13	0	0	0	0	516	522	203	255	
14	0	0	0	0	543	526	204	256	
15	0	0	0	0	553	511	201	255	
0	0	0	0	0	534	516	200	253	
1	0	0	0	0	513	515	200	252	
2	0	0	0	0	529	512	201	252	
3	0	0	0	0	519	521	199	250	
4	0	0	0	0	505	516	200	250	
5	0	0	0	0	517	509	199	250	
6	0	0	0	0	527	509	200	252	
7	0	0	0	0	497	507	199	249	
8	0	0	0	0	475	508	199	250	
9	0	0	0	0	464	511	199	248	
10	0	0	0	0	429	516	198	248	
11	0	0	0	0	466	513	198	248	
12	0	0	0	0	529	512	198	247	
13	0	0	0	0	532	513	198	246	
14	0	0	0	0	527	511	197	239	
15	0	0	0	0	547	499	197	237	
0	0	0	0	0	537	499	196	232	
1	0	0	0	0	518	505	196	231	
2	0	0	0	0	533	500	196	230	
3	0	0	0	0	536	497	193	230	
4	0	0	0	0	514	500	193	228	
5	0	0	0	0	535	513	193	228	
6	0	0	0	0	520	509	192	228	
7	0	0	0	0	505	512	193	227	
8	0	0	0	0	480	513	192	225	
9	0	0	0	0	474	523	191	225	
10	0	0	0	0	476	527	191	223	
11	0	0	0	0	476	516	190	223	
12	0	0	0	0	518	507	191	222	
13	0	0	0	0	548	494	188	221	
14	0	0	0	0	576	495	188	222	
15	0	0	0	0	568	484	188	223	
0	0	0	0	0	543	489	188	223	
1	0	0	0	0	511	507	187	223	
2	0	0	0	0	480	511	187	225	
3	0	0	0	0	453	517	187	223	
4	0	0	0	0	448	519	186	222	
5	0	0	0	0	431	506	185	221	
6	0	0	0	0	448	510	184	221	
7	0	0	0	0	495	515	185	220	
8	0	0	0	0	521	508	185	222	
9	0	0	0	0	555	511	185	221	
10	0	0	0	0	573	509	185	221	
11	0	0	0	0	569	509	185	221	
12	0	0	0	0	545	508	185	220	
13	0	0	0	0	527	512	185	221	
14	0	0	0	0	511	511	185	220	
15	0	0	0	0	482	512	186	221	
0	0	0	0	0	476	506	187	221	
1	0	0	0	0	474	501	187	220	
2	0	0	0	0	480	505	186	220	
3	0	0	0	0	482	504	189	221	
4	0	0	0	0	495	507	188	220	
5	0	0	0	0	559	511	189	220	
6	0	0	0	0	538	514	189	222	
7	0	0	0	0	522	521	188	222	
8	0	0	0	0	547	515	189	222	
9	0	0	0	0	568	500	191	221	
10	0	0	0	0	543	496	188	221	
11	0	0	0	0	502	501	189	221	
12	0	0	0	0	492	495	191	221	
13	0	0	0	0	502	494	190	222	
14	0	0	0	0	513	504	190	222	
15	0	0	0	0	518	515	192	221	
0	0	0	0	0	491	525	191	220	
1	0	0	0	0	461	518	190	220	
2	0	0	0	0	491	508	190	221	
3	0	0	0	0	527	500	190	219	
4	0	0	0	0	551	506	191	219	
5	0	0	0	0	550	528	190	218	
6	0	0	0	0	564	536	191	219	
7	0	0	0	0	512	508	190	218	
8	0	0	0	0	446	504	190	218	
9	0	0	0	0	441	506	191	217	
10	0	0	0	0	489	498	192	216	
11	0	0	0	0	510	482	193	216	
12	0	0	0	0	508	489	192	217	
13	0	0	0	0	523	496	193	216	
14	0	0	0	0	534	513	191	216	
15	0	0	0	0	518	507	192	217	
0	0	0	0	0	502	510	193	217	
1	0	0	0	0	500	516	193	218	
2	0	0	0	0	501	521	192	219	
3	0	0	0	0	511	515	192	218	
4	0	0	0	0	501	512	193	218	
5	0	0	0	0	515	499	194	219	
6	0	0	0	0	532	492	193	217	
7	0	0	0	0	534	500	194	218	
8	0	0	0	0	533	508	193	217	
9	0	0	0	0	501	507	194	217	
10	0	0	0	0	498	511	195	218	
11	0	0	0	0	522	517	195	217	
12	0	0	0	0	518	525	195	217	
13	0	0	0	0	530	521	195	214	
14	0	0	0	0	560	511	196	216	
15	0	0	0	0	531	505	196	215	
0	0	0	0	0	482	504	196	215	
1	0	0	0	0	492	494	195	215	
2	0	0	0	0	485	492	195	215	
3	0	0	0	0	472	512	194	215	
4	0	0	0	0	505	520	194	215	
5	0	0	0	0	466	512	194	214	
6	0	0	0	0	444	513	193	215	
7	0	0	0	0	468	515	193	214	
8	0	0	0	0	496	513	194	214	
9	0	0	0	0	552	500	194	214	
10	0	0	0	0	601	502	193	213	
11	0	0	0	0	586	511	193	212	
12	0	0	0	0	550	512	194	210	
13	0	0	0	0	541	500	194	210	
14	0	0	0	0	523	501	193	211	
15	0	0	0	0	507	499	194	211	
0	0	0	0	0	515	507	194	210	
1	0	0	0	0	512	511	193	210	
2	0	0	0	0	502	515	192	210	
3	0	0	0	0	500	501	193	211	
4	0	0	0	0	512	504	192	211	
5	0	0	0	0	511	513	191	211	
6	0	0	0	0	488	521	191	210	
7	0	0	0	0	466	518	191	209	
8	0	0	0	0	464	511	191	209	
9	0	0	0	0	489	508	191	210	
10	0	0	0	0	520	505	192	209	
11	0	0	0	0	540	504	192	208	
12	0	0	0	0	539	508	193	207	
13	0	0	0	0	536	515	192	207	
14	0	0	0	0	502	517	191	206	
15	0	0	0	0	481	517	192	206	
0	0	0	0	0	455	510	190	205	
1	0	0	0	0	478	497	191	206	
2	0	0	0	0	522	492	190	204	
3	0	0	0	0	539	493	190	203	
4	0	0	0	0	547	497	189	203	
5	0	0	0	0	553	507	188	203	
6	0	0	0	0	513	508	188	202	
7	0	0	0	0	498	503	187	201	
8	0	0	0	0	500	506	186	201	
9	0	0	0	0	508	515	185	199	
10	0	0	0	0	525	516	185	200	
11	0	0	0	0	521	511	185	198	
12	0	0	0	0	512	508	186	198	
13	0	0	0	0	500	508	186	198	
14	0	0	0	0	510	510	185	196	
15	0	0	0	0	551	513	184	195	
0	0	0	0	0	531	513	185	195	
1	0	0	0	0	468	521	185	194	
2	0	0	0	0	459	523	186	202	
3	0	0	0	0	500	513	184	200	
4	0	0	0	0	511	522	185	197	
5	0	0	0	0	489	513	186	199	
6	0	0	0	0	509	504	185	199	
7	0	0	0	0	521	489	186	199	
8	0	0	0	0	530	482	185	198	
9	0	0	0	0	522	487	186	197	
10	0	0	0	0	487	497	187	194	
11	0	0	0	0	522	498	188	193	
12	0	0	0	0	520	494	188	190	
13	0	0	0	0	500	513	189	192	
14	0	0	0	0	521	519	189	195	
15	0	0	0	0	555	513	189	191	
0	0	0	0	0	538	501	189	190	
1	0	0	0	0	541	512	189	191	
2	0	0	0	0	536	524	190	192	
3	0	0	0	0	509	517	190	187	
4	0	0	0	0	492	511	190	189	
5	0	0	0	0	475	511	190	190	
6	0	0	0	0	492	522	190	191	
7	0	0	0	0	508	519	191	188	
8	0	0	0	0	516	514	189	189	
9	0	0	0	0	500	512	191	189	
10	0	0	0	0	508	504	191	185	
11	0	0	0	0	519	494	191	187	
12	0	0	0	0	499	492	191	188	
13	0	0	0	0	476	497	191	187	
14	0	0	0	0	477	508	192	187	
15	0	0	0	0	469	489	191	188	
0	0	0	0	0	504	499	191	188	
1	0	0	0	0	534	515	191	188	
2	0	0	0	0	529	513	192	187	
3	0	0	0	0	558	516	190	187	
4	0	0	0	0	539	515	191	188	
5	0	0	0	0	523	507	190	188	
6	0	0	0	0	522	504	190	188	
7	0	0	0	0	508	503	189	189	
8	0	0	0	0	471	506	190	190	
9	0	0	0	0	489	519	189	190	
10	0	0	0	0	524	514	189	190	
11	0	0	0	0	532	517	188	191	
12	0	0	0	0	546	514	189	192	
13	0	0	0	0	533	501	188	191	
14	0	0	0	0	506	504	187	191	
15	0	0	0	0	485	517	188	191	
0	0	0	0	0	454	521	187	191	
1	0	0	0	0	456	525	187	191	
2	0	0	0	0	513	518	187	191	
3	0	0	0	0	534	504	187	192	
4	0	0	0	0	541	493	187	191	
5	0	0	0	0	529	499	188	194	
6	0	0	0	0	526	497	188	191	
7	0	0	0	0	523	496	190	192	
8	0	0	0	0	508	498	189	191	
9	0	0	0	0	506	511	188	191	
10	0	0	0	0	504	516	189	183	
11	0	0	0	0	513	508	190	183	
12	0	0	0	0	524	495	189	183	
13	0	0	0	0	551	490	190	184	
14	0	0	0	0	573	502	191	183	
15	0	0	0	0	546	513	191	185	
0	0	0	0	0	543	510	191	187	
1	0	0	0	0	505	511	192	187	
2	0	0	0	0	441	507	192	182	
3	0	0	0	0	425	510	193	185	
4	0	0	0	0	439	515	193	185	
5	0	0	0	0	467	518	193	185	
6	0	0	0	0	491	519	195	187	
7	0	0	0	0	496	513	194	193	
8	0	0	0	0	508	509	195	191	
9	0	0	0	0	519	506	195	195	
10	0	0	0	0	535	509	194	194	
11	0	0	0	0	524	510	195	194	
12	0	0	0	0	499	503	195	196	
13	0	0	0	0	515	511	196	199	
14	0	0	0	0	516	507	195	198	
15	0	0	0	0	528	508	197	199	
0	0	0	0	0	538	512	196	201	
1	0	0	0	0	539	520	198	204	
2	0	0	0	0	537	521	196	204	
3	0	0	0	0	549	513	196	203	
4	0	0	0	0	528	506	195	204	
5	0	0	0	0	509	500	197	204	
6	0	0	0	0	497	480	196	204	
7	0	0	0	0	496	483	196	205	
8	0	0	0	0	472	503	196	205	
9	0	0	0	0	456	509	195	201	
10	0	0	0	0	472	513	195	201	
11	0	0	0	0	504	514	196	201	
12	0	0	0	0	553	513	196	203	
13	0	0	0	0	586	510	196	202	
14	0	0	0	0	603	514	198	204	
15	0	0	0	0	526	520	196	202	
0	0	0	0	0	473	518	197	202	
1	0	0	0	0	487	497	200	203	
2	0	0	0	0	495	496	198	208	
3	0	0	0	0	506	499	198	206	
4	0	0	0	0	540	511	198	207	
5	0	0	0	0	508	491	197	212	
6	0	0	0	0	499	502	197	212	
7	0	0	0	0	508	505	198	213	
8	0	0	0	0	530	512	198	214	
9	0	0	0	0	551	527	198	216	
10	0	0	0	0	540	535	197	215	
11	0	0	0	0	533	527	197	217	
12	0	0	0	0	490	509	199	218	
13	0	0	0	0	448	500	198	218	
14	0	0	0	0	420	502	199	220	
15	0	0	0	0	424	495	199	221	
0	0	0	0	0	469	484	199	219	
1	0	0	0	0	531	496	199	216	
2	0	0	0	0	565	517	198	218	
3	0	0	0	0	534	510	199	218	
4	0	0	0	0	525	501	198	219	
5	0	0	0	0	516	515	199	218	
6	0	0	0	0	518	520	199	219	
7	0	0	0	0	531	505	199	220	
8	0	0	0	0	531	504	199	220	
9	0	0	0	0	522	510	199	220	
10	0	0	0	0	506	513	200	221	
11	0	0	0	0	502	512	198	220	
12	0	0	0	0	496	518	201	221	
13	0	0	0	0	482	512	200	220	
14	0	0	0	0	500	504	201	222	
15	0	0	0	0	518	504	201	222	
0	0	0	0	0	523	510	201	223	
1	0	0	0	0	531	515	202	223	
2	0	0	0	0	534	508	201	223	
3	0	0	0	0	537	504	201	223	
4	0	0	0	0	542	504	203	222	
5	0	0	0	0	516	505	204	223	
6	0	0	0	0	517	502	204	223	
7	0	0	0	0	504	504	204	223	
8	0	0	0	0	466	504	203	222	
9	0	0	0	0	468	508	205	222	
10	0	0	0	0	473	519	203	224	
11	0	0	0	0	475	513	204	223	
12	0	0	0	0	499	510	205	224	
13	0	0	0	0	521	512	205	223	
14	0	0	0	0	515	506	205	224	
15	0	0	0	0	511	504	204	224	
0	0	0	0	0	491	504	205	226	
1	0	0	0	0	495	504	206	225	
2	0	0	0	0	525	509	207	223	
3	0	0	0	0	547	510	206	223	
4	0	0	0	0	572	507	206	224	
5	0	0	0	0	565	506	207	225	
6	0	0	0	0	523	508	207	224	
7	0	0	0	0	518	505	206	224	
8	0	0	0	0	497	505	207	225	
9	0	0	0	0	511	504	207	224	
10	0	0	0	0	523	513	208	226	
11	0	0	0	0	492	516	208	225	
12	0	0	0	0	483	518	208	226	
13	0	0	0	0	472	515	208	225	
14	0	0	0	0	474	506	208	225	
15	0	0	0	0	484	502	207	226	
0	0	0	0	0	535	505	206	226	
1	0	0	0	0	568	505	206	229	
2	0	0	0	0	575	506	207	232	
3	0	0	0	0	556	518	208	230	
4	0	0	0	0	535	511	207	229	
5	0	0	0	0	503	506	209	227	
6	0	0	0	0	481	507	207	229	
7	0	0	0	0	467	498	208	228	
8	0	0	0	0	464	497	207	231	
9	0	0	0	0	468	502	205	233	
10	0	0	0	0	499	508	207	231	
11	0	0	0	0	504	505	207	227	
12	0	0	0	0	516	511	206	227	
13	0	0	0	0	550	515	205	226	
14	0	0	0	0	553	511	205	227	
15	0	0	0	0	548	504	204	228	
0	0	0	0	0	530	507	204	228	
1	0	0	0	0	515	513	205	227	
2	0	0	0	0	502	515	202	228	
3	0	0	0	0	488	507	202	228	
4	0	0	0	0	486	500	202	231	
5	0	0	0	0	479	510	203	229	
6	0	0	0	0	480	507	201	231	
7	0	0	0	0	509	509	202	231	
8	0	0	0	0	519	509	202	231	
9	0	0	0	0	531	510	203	230	
10	0	0	0	0	519	512	202	230	
11	0	0	0	0	505	512	203	228	
12	0	0	0	0	491	514	203	228	
13	0	0	0	0	472	507	203	228	
14	0	0	0	0	474	502	201	229	
15	0	0	0	0	517	508	202	229	
0	0	0	0	0	533	510	202	227	
1	0	0	0	0	544	507	202	229	
2	0	0	0	0	543	511	201	230	
3	0	0	0	0	510	507	202	231	
4	0	0	0	0	507	512	201	232	
5	0	0	0	0	513	512	202	231	
6	0	0	0	0	532	510	201	229	
7	0	0	0	0	529	506	200	230	
8	0	0	0	0	523	501	201	228	
9	0	0	0	0	531	503	202	230	
10	0	0	0	0	529	508	200	230	
11	0	0	0	0	496	505	202	228	
12	0	0	0	0	493	507	202	230	
13	0	0	0	0	495	512	202	230	
14	0	0	0	0	488	512	200	230	
15	0	0	0	0	494	507	201	230	
0	0	0	0	0	499	508	199	230	
1	0	0	0	0	507	511	202	230	
2	0	0	0	0	507	510	201	228	
3	0	0	0	0	510	500	200	229	
4	0	0	0	0	519	504	199	229	
5	0	0	0	0	516	509	198	228	
6	0	0	0	0	511	509	199	227	
7	0	0	0	0	512	512	197	226	
8	0	0	0	0	516	513	195	227	
9	0	0	0	0	516	510	196	222	
10	0	0	0	0	519	511	198	219	
11	0	0	0	0	523	514	195	220	
12	0	0	0	0	528	510	195	220	
13	0	0	0	0	529	501	192	221	
14	0	0	0	0	519	502	191	221	
15	0	0	0	0	512	507	190	219	
0	0	0	0	0	513	503	191	221	
1	0	0	0	0	513	505	192	219	
2	0	0	0	0	507	508	190	217	
3	0	0	0	0	500	510	190	214	
4	0	0	0	0	506	508	189	213	
5	0	0	0	0	502	505	190	212	
6	0	0	0	0	498	509	189	210	
7	0	0	0	0	505	510	189	208	
8	0	0	0	0	511	505	187	207	
9	0	0	0	0	502	504	188	206	
10	0	0	0	0	510	510	188	205	
11	0	0	0	0	508	512	186	205	
12	0	0	0	0	505	508	186	202	
13	0	0	0	0	503	510	186	202	
14	0	0	0	0	501	510	187	200	
15	0	0	0	0	510	511	182	201	
0	0	0	0	0	505	508	181	201	
1	0	0	0	0	504	508	181	195	
2	0	0	0	0	509	510	179	195	
3	0	0	0	0	515	506	179	193	
4	0	0	0	0	519	509	175	191	
5	0	0	0	0	528	510	173	188	
6	0	0	0	0	523	508	173	192	
7	0	0	0	0	539	508	174	191	
8	0	0	0	0	518	507	169	185	
9	0	0	0	0	510	507	168	185	
10	0	0	0	0	508	507	168	187	
11	0	0	0	0	505	507	171	191	
12	0	0	0	0	500	508	171	185	
13	0	0	0	0	503	506	168	186	
14	0	0	0	0	497	505	169	183	
15	0	0	0	0	495	510	167	179	
0	0	0	0	0	493	509	167	178	
1	0	0	0	0	501	506	167	176	
2	0	0	0	0	502	506	166	172	
3	0	0	0	0	512	506	166	166	
4	0	0	0	0	519	508	166	165	
5	0	0	0	0	535	512	164	165	
6	0	0	0	0	533	510	163	163	
7	0	0	0	0	524	510	166	161	
8	0	0	0	0	522	508	165	161	
9	0	0	0	0	534	508	168	159	
10	0	0	0	0	531	510	166	156	
11	0	0	0	0	505	507	167	152	
12	0	0	0	0	491	504	167	150	
13	0	0	0	0	495	507	167	148	
14	0	0	0	0	499	506	165	150	
15	0	0	0	0	499	510	167	137	
0	0	0	0	0	508	513	165	139	
1	0	0	0	0	511	507	164	134	
2	0	0	0	0	508	507	167	127	
3	0	0	0	0	515	504	167	130	
4	0	0	0	0	519	509	163	134	
5	0	0	0	0	508	509	160	119	
6	0	0	0	0	507	512	160	124	
7	0	0	0	0	505	511	159	115	
8	0	0	0	0	509	506	156	101	
9	0	0	0	0	511	505	156	101	
10	0	0	0	0	508	508	154	101	
11	0	0	0	0	506	507	155	99	
12	0	0	0	0	504	507	155	98	
13	0	0	0	0	508	508	155	96	
14	0	0	0	0	511	509	155	97	
15	0	0	0	0	499	507	154	99	
0	0	0	0	0	500	510	157	100	
1	0	0	0	0	504	508	158	93	
2	0	0	0	0	512	507	159	93	
3	0	0	0	0	531	507	161	92	
4	0	0	0	0	524	506	158	94	
5	0	0	0	0	508	506	162	96	
6	0	0	0	0	505	507	164	95	
7	0	0	0	0	510	507	163	104	
8	0	0	0	0	515	505	163	102	
9	0	0	0	0	518	508	162	85	
10	0	0	0	0	521	512	163	81	
11	0	0	0	0	520	510	164	80	
12	0	0	0	0	520	511	163	71	
13	0	0	0	0	513	509	156	71	
14	0	0	0	0	512	510	158	72	
15	0	0	0	0	506	510	161	74	
0	0	0	0	0	497	506	165	66	
1	0	0	0	0	510	506	165	68	
2	0	0	0	0	512	506	169	76	
3	0	0	0	0	510	505	168	67	
4	0	0	0	0	518	514	165	43	
5	0	0	0	0	510	509	165	41	
6	0	0	0	0	506	508	166	44	
7	0	0	0	0	507	507	168	42	
8	0	0	0	0	505	502	167	28	
9	0	0	0	0	501	504	171	28	
10	0	0	0	0	502	504	172	39	
11	0	0	0	0	504	507	171	33	
12	0	0	0	0	511	509	167	35	
13	0	0	0	0	515	510	161	27	
14	0	0	0	0	514	511	152	26	
15	0	0	0	0	514	509	148	25	
0	0	0	0	0	515	507	144	24	
1	0	0	0	0	516	508	143	25	
2	0	0	0	0	518	510	144	23	
3	0	0	0	0	513	506	141	23	
4	0	0	0	0	514	507	141	22	
5	0	0	0	0	511	508	135	21	
6	0	0	0	0	508	508	131	20	
7	0	0	0	0	507	511	135	21	
8	0	0	0	0	508	509	136	20	
9	0	0	0	0	510	507	138	20	
10	0	0	0	0	513	505	139	20	
11	0	0	0	0	513	507	140	19	
12	0	0	0	0	513	508	143	19	
13	0	0	0	0	511	508	145	19	
14	0	0	0	0	507	510	142	18	
15	0	0	0	0	510	508	140	17	
0	0	0	0	0	510	507	141	17	
1	0	0	0	0	514	507	141	17	
2	0	0	0	0	513	508	143	16	
3	0	0	0	0	514	509	145	16	
4	0	0	0	0	508	508	142	16	
5	0	0	0	0	505	509	146	15	
6	0	0	0	0	509	508	143	15	
7	0	0	0	0	511	510	142	15	
8	0	0	0	0	510	508	144	15	
9	0	0	0	0	513	507	140	14	
10	0	0	0	0	514	507	138	13	
11	0	0	0	0	518	508	137	12	
12	0	0	0	0	521	507	137	10	
13	0	0	0	0	513	508	139	10	
14	0	0	0	0	505	507	136	10	
15	0	0	0	0	504	508	135	9	
0	0	0	0	0	498	505	132	0	
1	0	0	0	0	494	502	131	0	
2	0	0	0	0	502	508	132	0	
3	0	0	0	0	508	510	132	0	
4	0	0	0	0	511	511	132	0	
5	0	0	0	0	511	509	131	0	
6	0	0	0	0	515	508	131	0	
7	0	0	0	0	514	510	134	0	
8	0	0	0	0	517	512	136	0	
9	0	0	0	0	517	510	137	0	
10	0	0	0	0	518	507	133	0	
11	0	0	0	0	517	510	130	0	
12	0	0	0	0	519	509	133	0	
13	0	0	0	0	518	508	132	0	
14	0	0	0	0	513	508	134	0	
15	0	0	0	0	512	506	134	0	
0	0	0	0	0	513	507	131	0	
1	0	0	0	0	512	507	132	0	
2	0	0	0	0	511	507	134	0	
3	0	0	0	0	508	509	132	0	
4	0	0	0	0	508	508	134	0	
5	0	0	0	0	515	507	131	0	
6	0	0	0	0	512	510	127	0	
7	0	0	0	0	512	509	128	0	
8	0	0	0	0	507	508	125	0	
9	0	0	0	0	511	507	122	0	
10	0	0	0	0	518	506	118	0	
11	0	0	0	0	513	510	115	0	
12	0	0	0	0	517	509	113	0	
13	0	0	0	0	519	510	112	0	
14	0	0	0	0	511	510	108	0	
15	0	0	0	0	511	509	107	0	
0	0	0	0	0	508	507	108	0	
1	0	0	0	0	512	508	107	0	
2	0	0	0	0	515	507	108	0	
3	0	0	0	0	510	503	105	0	
4	0	0	0	0	505	506	105	0	
5	0	0	0	0	509	508	107	0	
6	0	0	0	0	507	510	104	0	
7	0	0	0	0	509	509	107	0	
8	0	0	0	0	508	509	105	0	
9	0	0	0	0	511	508	103	0	
10	0	0	0	0	512	509	103	0	
11	0	0	0	0	515	509	103	0	
12	0	0	0	0	508	506	103	0	
13	0	0	0	0	510	509	103	0	
14	0	0	0	0	510	511	102	0	
15	0	0	0	0	512	507	101	0	
0	0	0	0	0	513	509	99	0	
1	0	0	0	0	516	506	98	0	
2	0	0	0	0	513	505	101	0	
3	0	0	0	0	511	510	89	0	
4	0	0	0	0	511	505	88	0	
5	0	0	0	0	510	504	88	0	
6	0	0	0	0	509	506	77	0	
7	0	0	0	0	511	507	73	0	
8	0	0	0	0	510	509	71	0	
9	0	0	0	0	508	508	72	0	
10	0	0	0	0	510	507	66	0	
11	0	0	0	0	507	510	70	0	
12	0	0	0	0	509	511	69	0	
13	0	0	0	0	510	512	68	0	
14	0	0	0	0	511	509	64	0	
15	0	0	0	0	510	508	59	0	
0	0	0	0	0	511	507	54	0	
1	0	0	0	0	510	507	57	0	
2	0	0	0	0	511	503	56	0	
3	0	0	0	0	510	508	60	0	
4	0	0	0	0	511	508	55	0	
5	0	0	0	0	512	509	56	0	
6	0	0	0	0	512	508	41	0	
7	0	0	0	0	511	510	47	0	
8	0	0	0	0	511	506	51	0	
9	0	0	0	0	511	509	50	0	
10	0	0	0	0	511	510	56	0	
11	0	0	0	0	508	507	43	0	
12	0	0	0	0	508	508	49	0	
13	0	0	0	0	507	507	56	0	
14	0	0	0	0	506	508	58	0	
15	0	0	0	0	509	509	54	0	
0	0	0	0	0	510	508	58	0	
1	0	0	0	0	508	508	54	0	
2	0	0	0	0	511	509	56	0	
3	0	0	0	0	511	507	59	0	
4	0	0	0	0	515	508	41	0	
5	0	0	0	0	513	510	41	0	
6	0	0	0	0	511	506	45	0	
7	0	0	0	0	513	508	45	0	
8	0	0	0	0	511	508	48	0	
9	0	0	0	0	512	506	54	0	
10	0	0	0	0	512	508	55	0	
11	0	0	0	0	513	505	51	0	
12	0	0	0	0	513	508	45	0	
13	0	0	0	0	511	506	52	0	
14	0	0	0	0	511	508	46	0	
15	0	0	0	0	510	507	46	0	
0	0	0	0	0	510	509	49	0	
1	0	0	0	0	513	509	49	0	
2	0	0	0	0	509	507	47	0	
3	0	0	0	0	508	506	50	0	
4	0	0	0	0	509	508	48	0	
5	0	0	0	0	510	508	50	0	
6	0	0	0	0	509	510	47	0	
7	0	0	0	0	511	510	45	0	
8	0	0	0	0	510	510	49	0	
9	0	0	0	0	510	507	55	0	
10	0	0	0	0	510	508	50	0	
11	0	0	0	0	513	510	51	0	
12	0	0	0	0	512	508	49	0	
13	0	0	0	0	512	504	47	0	
14	0	0	0	0	511	507	46	0	
15	0	0	0	0	514	508	44	0	
0	0	0	0	0	512	510	45	0	
1	0	0	0	0	512	508	43	0	
2	0	0	0	0	511	508	45	0	
3	0	0	0	0	509	506	45	0	
4	0	0	0	0	509	511	44	0	
5	0	0	0	0	510	509	50	0	
6	0	0	0	0	510	505	49	0	
7	0	0	0	0	511	505	49	0	
8	0	0	0	0	511	507	52	0	
9	0	0	0	0	509	508	47	0	
10	0	0	0	0	510	509	47	0	
11	0	0	0	0	508	508	46	0	
12	0	0	0	0	510	511	46	0	
13	0	0	0	0	514	510	48	0	
14	0	0	0	0	514	509	49	0	
15	0	0	0	0	514	508	49	0	
0	0	0	0	0	513	508	47	0	
1	0	0	0	0	513	507	51	0	
2	0	0	0	0	514	510	48	0	
3	0	0	0	0	511	507	50	0	
4	0	0	0	0	511	507	48	0	
5	0	0	0	0	508	510	48	0	
6	0	0	0	0	509	508	47	0	
7	0	0	0	0	512	508	47	0	
8	0	0	0	0	510	509	49	0	
9	0	0	0	0	510	507	52	0	
10	0	0	0	0	508	508	49	0	
11	0	0	0	0	510	506	48	0	
12	0	0	0	0	509	507	49	0	
13	0	0	0	0	510	506	49	0	
14	0	0	0	0	510	510	53	0	
15	0	0	0	0	510	510	49	0	
0	0	0	0	0	511	508	50	0	
1	0	0	0	0	511	509	48	0	
2	0	0	0	0	512	509	48	0	
3	0	0	0	0	514	507	53	0	
4	0	0	0	0	511	508	49	0	
5	0	0	0	0	512	508	50	0	
6	0	0	0	0	515	508	54	0	
7	0	0	0	0	515	508	59	0	
8	0	0	0	0	512	506	60	0	
9	0	0	0	0	511	507	55	0	
10	0	0	0	0	509	508	52	0	
11	0	0	0	0	508	510	57	0	
12	0	0	0	0	511	508	55	0	
13	0	0	0	0	511	508	51	0	
14	0	0	0	0	510	508	54	0	
15	0	0	0	0	509	507	50	0	
0	0	0	0	0	511	505	54	0	
1	0	0	0	0	511	505	54	0	
2	0	0	0	0	511	507	56	0	
3	0	0	0	0	508	507	52	0	
4	0	0	0	0	512	508	51	0	
5	0	0	0	0	511	510	55	0	
6	0	0	0	0	510	510	52	0	
7	0	0	0	0	510	510	51	0	
8	0	0	0	0	512	507	52	0	
9	0	0	0	0	513	508	51	0	
10	0	0	0	0	513	506	53	0	
11	0	0	0	0	515	507	53	0	
12	0	0	0	0	512	509	52	0	
13	0	0	0	0	513	509	44	0	
14	0	0	0	0	511	510	52	0	
15	0	0	0	0	508	509	49	0	
0	0	0	0	0	510	507	48	0	
1	0	0	0	0	508	506	51	0	
2	0	0	0	0	510	508	50	0	
3	0	0	0	0	509	507	49	0	
4	0	0	0	0	510	506	48	0	
5	0	0	0	0	509	509	50	0	
6	0	0	0	0	511	508	50	0	
7	0	0	0	0	511	508	51	0	
8	0	0	0	0	512	509	49	0	
9	0	0	0	0	512	507	50	0	
10	0	0	0	0	512	509	49	0	
11	0	0	0	0	511	508	47	0	
12	0	0	0	0	511	510	54	0	
13	0	0	0	0	514	508	45	0	
14	0	0	0	0	513	507	44	0	
15	0	0	0	0	516	507	47	0	
0	0	0	0	0	513	509	43	0	
1	0	0	0	0	514	506	45	0	
2	0	0	0	0	511	508	43	0	
3	0	0	0	0	514	508	43	0	
4	0	0	0	0	509	507	43	0	
5	0	0	0	0	508	506	39	0	
6	0	0	0	0	509	510	42	0	
7	0	0	0	0	505	509	39	0	
8	0	0	0	0	509	509	36	0	
9	0	0	0	0	509	509	35	0	
10	0	0	0	0	511	509	35	0	
11	0	0	0	0	512	508	36	0	
12	0	0	0	0	508	502	36	0	
13	0	0	0	0	511	504	33	0	
14	0	0	0	0	513	504	39	0	
15	0	0	0	0	512	508	35	0	
0	0	0	0	0	514	510	37	0	
1	0	0	0	0	512	512	38	0	
2	0	0	0	0	513	514	39	0	
3	0	0	0	0	510	507	43	0	
4	0	0	0	0	513	505	36	0	
5	0	0	0	0	514	509	36	0	
6	0	0	0	0	511	509	36	0	
7	0	0	0	0	509	507	32	0	
8	0	0	0	0	511	507	28	0	
9	0	0	0	0	509	509	27	0	
10	0	0	0	0	508	509	27	0	
11	0	0	0	0	510	508	31	0	
12	0	0	0	0	510	510	41	0	
13	0	0	0	0	510	507	40	0	
14	0	0	0	0	511	508	39	0	
15	0	0	0	0	511	509	36	0	
0	0	0	0	0	511	511	37	0	
1	0	0	0	0	511	508	41	0	
2	0	0	0	0	511	508	31	0	
3	0	0	0	0	511	505	35	0	
4	0	0	0	0	511	509	35	0	
5	0	0	0	0	513	508	33	0	
6	0	0	0	0	513	509	31	0	
7	0	0	0	0	512	508	30	0	
8	0	0	0	0	514	508	33	0	
9	0	0	0	0	510	506	30	0	
10	0	0	0	0	509	507	34	0	
11	0	0	0	0	513	508	39	0	
12	0	0	0	0	508	508	28	0	
13	0	0	0	0	507	511	31	0	
14	0	0	0	0	508	508	30	0	
15	0	0	0	0	510	508	31	0	
0	0	0	0	0	511	504	32	0	
1	0	0	0	0	513	506	27	0	
2	0	0	0	0	510	510	31	0	
3	0	0	0	0	513	511	28	0	
4	0	0	0	0	512	508	24	0	
5	0	0	0	0	514	509	23	0	
6	0	0	0	0	511	509	24	0	
7	0	0	0	0	513	508	25	0	
8	0	0	0	0	512	508	25	0	
9	0	0	0	0	511	510	29	0	
10	0	0	0	0	513	507	25	0	
11	0	0	0	0	511	507	23	0	
12	0	0	0	0	511	508	17	0	
13	0	0	0	0	509	509	0	0	
14	0	0	0	0	512	508	0	0	
15	0	0	0	0	510	507	0	0	
0	0	0	0	0	511	508	0	0	
1	0	0	0	0	511	509	0	0	
2	0	0	0	0	510	508	0	0	
3	0	0	0	0	508	508	0	0	
4	0	0	0	0	511	507	0	0	
5	0	0	0	0	510	506	0	0	
6	0	0	0	0	511	508	0	0	
7	0	0	0	0	509	508	0	0	
8	0	0	0	0	512	508	0	0	
9	0	0	0	0	512	508	0	0	
10	0	0	0	0	511	510	0	0	
11	0	0	0	0	511	509	0	0	
12	0	0	0	0	513	508	0	0	
13	0	0	0	0	512	508	0	0	
14	0	0	0	0	512	508	0	0	
15	0	0	0	0	513	506	0	0	
0	0	0	0	0	514	507	0	0	
1	0	0	0	0	511	509	0	0	
2	0	0	0	0	509	508	0	0	
3	0	0	0	0	510	508	0	0	
4	0	0	0	0	510	508	0	0	
5	0	0	0	0	508	507	0	0	
6	0	0	0	0	511	507	0	0	
7	0	0	0	0	509	508	0	0	
8	0	0	0	0	507	507	0	0	
9	0	0	0	0	507	507	0	0	
10	0	0	0	0	509	507	0	0	
11	0	0	0	0	510	510	0	0	
12	0	0	0	0	512	510	0	0	
13	0	0	0	0	511	508	0	0	
14	0	0	0	0	513	508	0	0	
15	0	0	0	0	513	506	0	0	
0	0	0	0	0	516	508	0	0	
1	0	0	0	0	513	511	0	0	
2	0	0	0	0	514	509	0	0	
3	0	0	0	0	513	508	0	0	
4	0	0	0	0	511	508	0	0	
5	0	0	0	0	512	507	0	0	
6	0	0	0	0	509	504	0	0	
7	0	0	0	0	509	507	0	0	
8	0	0	0	0	510	507	0	0	
9	0	0	0	0	510	507	0	0	
10	0	0	0	0	509	508	0	0	
11	0	0	0	0	508	509	0	0	
12	0	0	0	0	510	510	0	0	
13	0	0	0	0	510	509	0	0	
14	0	0	0	0	509	508	0	0	
15	0	0	0	0	510	508	0	0	
0	0	0	0	0	511	508	0	0	
1	0	0	0	0	511	508	0	0	
2	0	0	0	0	513	509	0	0	
3	0	0	0	0	514	508	0	0	
4	0	0	0	0	515	507	0	0	
5	0	0	0	0	514	507	0	0	
6	0	0	0	0	511	508	0	0	
7	0	0	0	0	513	506	0	0	
8	0	0	0	0	510	507	0	0	
9	0	0	0	0	511	507	0	0	
10	0	0	0	0	510	509	0	0	
11	0	0	0	0	508	507	0	0	
12	0	0	0	0	508	507	0	0	
13	0	0	0	0	510	508	0	0	
14	0	0	0	0	508	507	0	0	
15	0	0	0	0	509	507	0	0	
0	0	0	0	0	508	508	0	0	
1	0	0	0	0	509	508	0	0	
2	0	0	0	0	511	509	0	0	
3	0	0	0	0	511	508	0	0	
4	0	0	0	0	514	508	0	0	
5	0	0	0	0	513	511	0	0	
6	0	0	0	0	512	508	0	0	
7	0	0	0	0	512	509	0	0	
8	0	0	0	0	512	509	0	0	
9	0	0	0	0	514	508	0	0	
10	0	0	0	0	514	508	0	0	
11	0	0	0	0	512	507	0	0	
12	0	0	0	0	511	508	0	0	
13	0	0	0	0	510	510	0	0	
14	0	0	0	0	511	509	0	0	
15	0	0	0	0	511	509	0	0	
0	0	0	0	0	509	507	0	0	
1	0	0	0	0	508	505	0	0	
2	0	0	0	0	508	506	0	0	
3	0	0	0	0	510	508	0	0	
4	0	0	0	0	509	506	0	0	
5	0	0	0	0	508	508	0	0	
6	0	0	0	0	511	507	0	0	
7	0	0	0	0	512	509	0	0	
8	0	0	0	0	512	509	0	0	
9	0	0	0	0	513	508	0	0	
10	0	0	0	0	512	508	0	0	
11	0	0	0	0	514	507	0	0	
12	0	0	0	0	515	508	0	0	
13	0	0	0	0	512	508	0	0	
14	0	0	0	0	514	508	0	0	
15	0	0	0	0	512	507	0	0	
0	0	0	0	0	511	508	0	0	
1	0	0	0	0	510	510	0	0	
2	0	0	0	0	511	508	0	0	
3	0	0	0	0	512	509	0	0	
4	0	0	0	0	511	505	0	0	
5	0	0	0	0	506	507	0	0	
6	0	0	0	0	508	508	0	0	
7	0	0	0	0	510	507	0	0	
8	0	0	0	0	508	508	0	0	
9	0	0	0	0	508	508	0	0	
10	0	0	0	0	511	509	0	0	
11	0	0	0	0	512	508	0	0	
12	0	0	0	0	512	508	0	0	
13	0	0	0	0	512	508	0	0	
14	0	0	0	0	513	507	0	0	
15	0	0	0	0	513	509	0	0	
0	0	0	0	0	513	507	0	0	
1	0	0	0	0	513	510	0	0	
2	0	0	0	0	511	509	0	0	
3	0	0	0	0	512	509	0	0	
4	0	0	0	0	511	508	0	0	
5	0	0	0	0	510	508	0	0	
6	0	0	0	0	511	508	0	0	
7	0	0	0	0	510	506	0	0	
8	0	0	0	0	510	508	0	0	
9	0	0	0	0	508	509	0	0	
10	0	0	0	0	509	508	0	0	
11	0	0	0	0	508	509	0	0	
12	0	0	0	0	509	509	0	0	
13	0	0	0	0	509	505	0	0	
14	0	0	0	0	510	508	0	0	
15	0	0	0	0	511	509	0	0	
0	0	0	0	0	513	511	0	0	
1	0	0	0	0	512	508	0	0	
2	0	0	0	0	515	510	0	0	
3	0	0	0	0	512	509	0	0	
4	0	0	0	0	514	509	0	0	
5	0	0	0	0	513	508	0	0	
6	0	0	0	0	511	505	0	0	
7	0	0	0	0	513	507	0	0	
8	0	0	0	0	510	506	0	0	
9	0	0	0	0	510	508	0	0	
10	0	0	0	0	509	507	0	0	
11	0	0	0	0	510	506	0	0	
12	0	0	0	0	509	508	0	0	
13	0	0	0	0	509	508	0	0	
14	0	0	0	0	512	507	0	0	
15	0	0	0	0	508	508	0	0	
0	0	0	0	0	508	507	0	0	
1	0	0	0	0	511	508	0	0	
2	0	0	0	0	511	509	0	0	
3	0	0	0	0	510	507	0	0	
4	0	0	0	0	512	509	0	0	
5	0	0	0	0	513	510	0	0	
6	0	0	0	0	512	509	0	0	
7	0	0	0	0	515	509	0	0	
8	0	0	0	0	513	508	0	0	
9	0	0	0	0	512	506	0	0	
10	0	0	0	0	511	508	0	0	
11	0	0	0	0	512	510	0	0	
12	0	0	0	0	512	507	0	0	
13	0	0	0	0	510	507	0	0	
14	0	0	0	0	511	508	0	0	
15	0	0	0	0	509	508	0	0	
0	0	0	0	0	508	507	0	0	
1	0	0	0	0	509	507	0	0	
2	0	0	0	0	509	507	0	0	
3	0	0	0	0	509	507	0	0	
4	0	0	0	0	509	509	0	0	
5	0	0	0	0	510	508	0	0	
6	0	0	0	0	512	508	0	0	
7	0	0	0	0	513	507	0	0	
8	0	0	0	0	513	510	0	0	
9	0	0	0	0	511	511	0	0	
10	0	0	0	0	513	508	0	0	
11	0	0	0	0	513	509	0	0	
12	0	0	0	0	512	507	0	0	
13	0	0	0	0	513	508	0	0	
14	0	0	0	0	512	508	0	0	
15	0	0	0	0	513	506	0	0	
0	0	0	0	0	512	509	0	0	
1	0	0	0	0	511	506	0	0	
2	0	0	0	0	511	506	0	0	
3	0	0	0	0	510	507	0	0	
4	0	0	0	0	508	508	0	0	
5	0	0	0	0	506	507	0	0	
6	0	0	0	0	508	508	0	0	
7	0	0	0	0	509	510	0	0	
8	0	0	0	0	511	509	0	0	
9	0	0	0	0	511	507	0	0	
10	0	0	0	0	510	508	0	0	
11	0	0	0	0	513	507	0	0	
12	0	0	0	0	510	508	0	0	
13	0	0	0	0	514	509	0	0	
14	0	0	0	0	511	509	0	0	
15	0	0	0	0	512	507	0	0	
0	0	0	0	0	513	507	0	0	
1	0	0	0	0	514	509	0	0	
2	0	0	0	0	513	509	0	0	
3	0	0	0	0	514	508	0	0	
4	0	0	0	0	510	506	0	0	
5	0	0	0	0	513	506	0	0	
6	0	0	0	0	511	508	0	0	
7	0	0	0	0	508	506	0	0	
8	0	0	0	0	507	507	0	0	
9	0	0	0	0	508	509	0	0	
10	0	0	0	0	508	508	0	0	
11	0	0	0	0	508	508	0	0	
12	0	0	0	0	507	509	0	0	
13	0	0	0	0	509	507	0	0	
14	0	0	0	0	511	511	0	0	
15	0	0	0	0	511	508	0	0	
0	0	0	0	0	512	509	0	0	
1	0	0	0	0	514	507	0	0	
2	0	0	0	0	513	509	0	0	
3	0	0	0	0	515	507	0	0	
4	0	0	0	0	515	508	0	0	
5	0	0	0	0	515	508	0	0	
6	0	0	0	0	514	508	0	0	
7	0	0	0	0	511	507	0	0	
8	0	0	0	0	510	505	0	0	
9	0	0	0	0	511	507	0	0	
10	0	0	0	0	508	508	0	0	
11	0	0	0	0	509	507	0	0	
12	0	0	0	0	509	509	0	0	
13	0	0	0	0	508	508	0	0	
14	0	0	0	0	510	507	0	0	
15	0	0	0	0	509	508	0	0	
0	0	0	0	0	507	510	0	0	
1	0	0	0	0	509	510	0	0	
2	0	0	0	0	511	507	0	0	
3	0	0	0	0	513	508	0	0	
4	0	0	0	0	512	509	0	0	
5	0	0	0	0	514	508	0	0	
6	0	0	0	0	511	510	0	0	
7	0	0	0	0	513	508	0	0	
8	0	0	0	0	515	506	0	0	
9	0	0	0	0	512	508	0	0	
10	0	0	0	0	513	510	0	0	
11	0	0	0	0	512	509	0	0	
12	0	0	0	0	510	509	0	0	
13	0	0	0	0	512	508	0	0	
14	0	0	0	0	509	505	0	0	
15	0	0	0	0	511	506	0	0	
0	0	0	0	0	508	508	0	0	
1	0	0	0	0	508	507	0	0	
2	0	0	0	0	508	507	0	0	
3	0	0	0	0	508	506	0	0	
4	0	0	0	0	510	507	0	0	
5	0	0	0	0	510	511	0	0	
6	0	0	0	0	509	508	0	0	
7	0	0	0	0	511	508	0	0	
8	0	0	0	0	511	509	0	0	
9	0	0	0	0	512	509	0	0	
10	0	0	0	0	514	508	0	0	
11	0	0	0	0	513	511	0	0	
12	0	0	0	0	512	509	0	0	
13	0	0	0	0	515	507	0	0	
14	0	0	0	0	512	508	0	0	
15	0	0	0	0	512	507	0	0	
0	0	0	0	0	511	507	0	0	
1	0	0	0	0	511	507	0	0	
2	0	0	0	0	508	508	0	0	
3	0	0	0	0	510	510	0	0	
4	0	0	0	0	509	507	0	0	
5	0	0	0	0	508	507	0	0	
6	0	0	0	0	510	507	0	0	
7	0	0	0	0	509	508	0	0	
8	0	0	0	0	508	508	0	0	
9	0	0	0	0	510	508	0	0	
10	0	0	0	0	511	507	0	0	
11	0	0	0	0	511	509	0	0	
12	0	0	0	0	513	509	0	0	
13	0	0	0	0	513	509	0	0	
14	0	0	0	0	513	507	0	0	
15	0	0	0	0	514	510	0	0	
0	0	0	0	0	514	509	0	0	
1	0	0	0	0	512	506	0	0	
2	0	0	0	0	513	508	0	0	
3	0	0	0	0	512	508	0	0	
4	0	0	0	0	512	508	0	0	
5	0	0	0	0	511	507	0	0	
6	0	0	0	0	509	508	0	0	
7	0	0	0	0	512	508	0	0	
8	0	0	0	0	508	510	0	0	
9	0	0	0	0	508	507	0	0	
10	0	0	0	0	508	508	0	0	
11	0	0	0	0	508	508	0	0	
12	0	0	0	0	510	509	0	0	
13	0	0	0	0	508	508	0	0	
14	0	0	0	0	511	507	0	0	
15	0	0	0	0	512	508	0	0	
0	0	0	0	0	514	508	0	0	
1	0	0	0	0	514	509	0	0	
2	0	0	0	0	513	509	0	0	
3	0	0	0	0	515	509	0	0	
4	0	0	0	0	512	508	0	0	
5	0	0	0	0	511	507	0	0	
6	0	0	0	0	514	508	0	0	
7	0	0	0	0	510	508	0	0	
8	0	0	0	0	511	505	0	0	
9	0	0	0	0	510	508	0	0	
10	0	0	0	0	510	506	0	0	
11	0	0	0	0	511	508	0	0	
12	0	0	0	0	507	509	0	0	
13	0	0	0	0	508	508	0	0	
14	0	0	0	0	510	507	0	0	
15	0	0	0	0	510	508	0	0	
0	0	0	0	0	510	507	0	0	
1	0	0	0	0	512	508	0	0	
2	0	0	0	0	511	508	0	0	
3	0	0	0	0	512	508	0	0	
4	0	0	0	0	511	509	0	0	
5	0	0	0	0	512	508	0	0	
6	0	0	0	0	514	507	0	0	
7	0	0	0	0	516	509	0	0	
8	0	0	0	0	514	509	0	0	
9	0	0	0	0	513	510	0	0	
10	0	0	0	0	514	509	0	0	
11	0	0	0	0	512	509	0	0	
12	0	0	0	0	511	507	0	0	
13	0	0	0	0	511	507	0	0	
14	0	0	0	0	510	506	0	0	
15	0	0	0	0	506	507	0	0	
0	0	0	0	0	508	508	0	0	
1	0	0	0	0	509	507	0	0	
2	0	0	0	0	505	505	0	0	
3	0	0	0	0	508	508	0	0	
4	0	0	0	0	508	508	0	0	
5	0	0	0	0	510	510	0	0	
6	0	0	0	0	512	508	0	0	
7	0	0	0	0	511	508	0	0	
8	0	0	0	0	513	509	0	0	
9	0	0	0	0	511	509	0	0	
10	0	0	0	0	514	508	0	0	
11	0	0	0	0	512	508	0	0	
12	0	0	0	0	512	508	0	0	
13	0	0	0	0	510	507	0	0	
14	0	0	0	0	512	506	0	0	
15	0	0	0	0	513	506	0	0	
0	0	0	0	0	514	507	0	0	
1	0	0	0	0	511	507	0	0	
2	0	0	0	0	508	509	0	0	
3	0	0	0	0	509	509	0	0	
4	0	0	0	0	509	508	0	0	
5	0	0	0	0	507	508	0	0	
6	0	0	0	0	507	509	0	0	
7	0	0	0	0	508	506	0	0	
8	0	0	0	0	509	508	0	0	
9	0	0	0	0	510	507	0	0	
10	0	0	0	0	512	509	0	0	
11	0	0	0	0	511	508	0	0	
12	0	0	0	0	512	509	0	0	
13	0	0	0	0	513	507	0	0	
14	0	0	0	0	514	507	0	0	
15	0	0	0	0	512	508	0	0	
0	0	0	0	0	514	509	0	0	
1	0	0	0	0	512	509	0	0	
2	0	0	0	0	514	508	0	0	
3	0	0	0	0	513	507	0	0	
4	0	0	0	0	511	508	0	0	
5	0	0	0	0	509	509	0	0	
6	0	0	0	0	510	509	0	0	
7	0	0	0	0	511	508	0	0	
8	0	0	0	0	508	508	0	0	
9	0	0	0	0	509	508	0	0	
10	0	0	0	0	509	508	0	0	
11	0	0	0	0	508	507	0	0	
12	0	0	0	0	509	509	0	0	
13	0	0	0	0	510	507	0	0	
14	0	0	0	0	511	507	0	0	
15	0	0	0	0	514	507	0	0	
0	0	0	0	0	513	507	0	0	
1	0	0	0	0	511	508	0	0	
2	0	0	0	0	513	509	0	0	
3	0	0	0	0	514	510	0	0	
4	0	0	0	0	513	508	0	0	
5	0	0	0	0	513	508	0	0	
6	0	0	0	0	514	506	0	0	
7	0	0	0	0	511	507	0	0	
8	0	0	0	0	512	507	0	0	
9	0	0	0	0	511	510	0	0	
10	0	0	0	0	510	509	0	0	
11	0	0	0	0	510	507	0	0	
12	0	0	0	0	508	508	0	0	
13	0	0	0	0	508	508	0	0	
14	0	0	0	0	509	509	0	0	
15	0	0	0	0	507	507	0	0	
0	0	0	0	0	510	507	0	0	
1	0	0	0	0	511	508	0	0	
2	0	0	0	0	511	508	0	0	
3	0	0	0	0	513	508	0	0	
4	0	0	0	0	515	509	0	0	
5	0	0	0	0	515	508	0	0	
6	0	0	0	0	512	507	0	0	
7	0	0	0	0	512	508	0	0	
8	0	0	0	0	512	508	0	0	
9	0	0	0	0	514	509	0	0	
10	0	0	0	0	514	508	0	0	
11	0	0	0	0	511	508	0	0	
12	0	0	0	0	510	508	0	0	
13	0	0	0	0	511	506	0	0	
14	0	0	0	0	510	508	0	0	
15	0	0	0	0	511	508	0	0	
0	0	0	0	0	507	508	0	0	
1	0	0	0	0	507	507	0	0	
2	0	0	0	0	508	508	0	0	
3	0	0	0	0	508	505	0	0	
4	0	0	0	0	509	506	0	0	
5	0	0	0	0	510	508	0	0	
6	0	0	0	0	512	507	0	0	
7	0	0	0	0	513	507	0	0	
8	0	0	0	0	510	510	0	0	
9	0	0	0	0	512	507	0	0	
10	0	0	0	0	511	508	0	0	
11	0	0	0	0	515	506	0	0	
12	0	0	0	0	516	507	0	0	
13	0	0	0	0	513	508	0	0	
14	0	0	0	0	513	510	0	0	
15	0	0	0	0	511	508	0	0	
0	0	0	0	0	510	510	0	0	
1	0	0	0	0	511	510	0	0	
2	0	0	0	0	509	508	0	0	
3	0	0	0	0	506	507	0	0	
4	0	0	0	0	510	507	0	0	
5	0	0	0	0	509	508	0	0	
6	0	0	0	0	509	509	0	0	
7	0	0	0	0	509	507	0	0	
8	0	0	0	0	511	508	0	0	
9	0	0	0	0	512	508	0	0	
10	0	0	0	0	511	507	0	0	
11	0	0	0	0	511	507	0	0	
12	0	0	0	0	510	509	0	0	
13	0	0	0	0	512	508	0	0	
14	0	0	0	0	513	507	0	0	
15	0	0	0	0	514	508	0	0	
0	0	0	0	0	513	508	0	0	
1	0	0	0	0	513	509	0	0	
2	0	0	0	0	512	508	0	0	
3	0	0	0	0	511	507	0	0	
4	0	0	0	0	511	507	0	0	
5	0	0	0	0	510	507	0	0	
6	0	0	0	0	510	511	0	0	
7	0	0	0	0	508	509	0	0	
8	0	0	0	0	509	505	0	0	
9	0	0	0	0	507	506	0	0	
10	0	0	0	0	508	503	0	0	
11	0	0	0	0	509	507	0	0	
12	0	0	0	0	508	509	0	0	
13	0	0	0	0	509	509	0	0	
14	0	0	0	0	512	507	0	0	
15	0	0	0	0	514	510	0	0	
0	0	0	0	0	516	508	0	0	
1	0	0	0	0	514	508	0	0	
2	0	0	0	0	513	509	0	0	
3	0	0	0	0	512	508	0	0	
4	0	0	0	0	515	510	0	0	
5	0	0	0	0	513	505	0	0	
6	0	0	0	0	513	509	0	0	
7	0	0	0	0	511	508	0	0	
8	0	0	0	0	511	507	0	0	
9	0	0	0	0	512	509	0	0	
10	0	0	0	0	511	510	0	0	
11	0	0	0	0	510	508	0	0	
12	0	0	0	0	507	508	0	0	
13	0	0	0	0	508	508	0	0	
14	0	0	0	0	508	507	0	0	
15	0	0	0	0	508	507	0	0	
0	0	0	0	0	508	509	0	0	
1	0	0	0	0	508	509	0	0	
2	0	0	0	0	509	508	0	0	
3	0	0	0	0	513	507	0	0	
4	0	0	0	0	513	508	0	0	
5	0	0	0	0	514	505	0	0	
6	0	0	0	0	514	507	0	0	
7	0	0	0	0	512	509	0	0	
8	0	0	0	0	511	508	0	0	
9	0	0	0	0	513	508	0	0	
10	0	0	0	0	512	507	0	0	
11	0	0	0	0	512	509	0	0	
12	0	0	0	0	512	507	0	0	
13	0	0	0	0	512	510	0	0	
14	0	0	0	0	510	508	0	0	
15	0	0	0	0	508	507	0	0	
0	0	0	0	0	508	508	0	0	
1	0	0	0	0	509	508	0	0	
2	0	0	0	0	508	508	0	0	
3	0	0	0	0	510	508	0	0	
4	0	0	0	0	510	508	0	0	
5	0	0	0	0	510	509	0	0	
6	0	0	0	0	510	508	0	0	
7	0	0	0	0	511	511	0	0	
8	0	0	0	0	513	509	0	0	
9	0	0	0	0	512	508	0	0	
10	0	0	0	0	513	507	0	0	
11	0	0	0	0	513	508	0	0	
12	0	0	0	0	513	508	0	0	
13	0	0	0	0	515	508	0	0	
14	0	0	0	0	514	507	0	0	
15	0	0	0	0	513	507	0	0	
0	0	0	0	0	511	510	0	0	
1	0	0	0	0	512	508	0	0	
2	0	0	0	0	510	507	0	0	
3	0	0	0	0	509	506	0	0	
4	0	0	0	0	507	508	0	0	
5	0	0	0	0	507	508	0	0	
6	0	0	0	0	507	508	0	0	
7	0	0	0	0	508	508	0	0	
8	0	0	0	0	511	509	0	0	
9	0	0	0	0	514	505	0	0	
10	0	0	0	0	512	508	0	0	
11	0	0	0	0	513	510	0	0	
12	0	0	0	0	511	508	0	0	
13	0	0	0	0	513	510	0	0	
14	0	0	0	0	510	508	0	0	
15	0	0	0	0	512	508	0	0	
0	0	0	0	0	514	508	0	0	
1	0	0	0	0	513	505	0	0	
2	0	0	0	0	513	506	0	0	
3	0	0	0	0	513	508	0	0	
4	0	0	0	0	511	506	0	0	
5	0	0	0	0	508	509	0	0	
6	0	0	0	0	509	506	0	0	
7	0	0	0	0	508	509	0	0	
8	0	0	0	0	510	508	0	0	
9	0	0	0	0	509	508	0	0	
10	0	0	0	0	507	509	0	0	
11	0	0	0	0	508	507	0	0	
12	0	0	0	0	510	509	0	0	
13	0	0	0	0	511	507	0	0	
14	0	0	0	0	510	508	0	0	
15	0	0	0	0	511	508	0	0	
0	0	0	0	0	513	509	0	0	
1	0	0	0	0	513	509	0	0	
2	0	0	0	0	515	507	0	0	
3	0	0	0	0	515	509	0	0	
4	0	0	0	0	515	508	0	0	
5	0	0	0	0	514	509	0	0	
6	0	0	0	0	514	510	0	0	
7	0	0	0	0	511	507	0	0	
8	0	0	0	0	511	507	0	0	
9	0	0	0	0	510	509	0	0	
10	0	0	0	0	510	508	0	0	
11	0	0	0	0	508	508	0	0	
12	0	0	0	0	505	508	0	0	
13	0	0	0	0	507	506	0	0	
14	0	0	0	0	509	507	0	0	
15	0	0	0	0	510	506	0	0	
0	0	0	0	0	510	507	0	0	
1	0	0	0	0	509	508	0	0	
2	0	0	0	0	511	508	0	0	
3	0	0	0	0	509	509	0	0	
4	0	0	0	0	513	509	0	0	
5	0	0	0	0	512	507	0	0	
6	0	0	0	0	513	508	0	0	
7	0	0	0	0	512	507	0	0	
8	0	0	0	0	515	509	0	0	
9	0	0	0	0	515	509	0	0	
10	0	0	0	0	513	508	0	0	
11	0	0	0	0	512	507	0	0	
12	0	0	0	0	512	508	0	0	
13	0	0	0	0	511	506	0	0	
14	0	0	0	0	510	508	0	0	
15	0	0	0	0	510	507	0	0	
0	0	0	0	0	507	506	0	0	
1	0	0	0	0	508	507	0	0	
2	0	0	0	0	508	509	0	0	
3	0	0	0	0	508	508	0	0	
4	0	0	0	0	507	510	0	0	
5	0	0	0	0	511	509	0	0	
6	0	0	0	0	509	510	0	0	
7	0	0	0	0	511	507	0	0	
8	0	0	0	0	513	506	0	0	
9	0	0	0	0	513	508	0	0	
10	0	0	0	0	513	510	0	0	
11	0	0	0	0	514	509	0	0	
12	0	0	0	0	514	508	0	0	
13	0	0	0	0	512	506	0	0	
14	0	0	0	0	512	508	0	0	
15	0	0	0	0	511	508	0	0	
0	0	0	0	0	511	507	0	0	
1	0	0	0	0	511	508	0	0	
2	0	0	0	0	509	507	0	0	
3	0	0	0	0	511	508	0	0	
4	0	0	0	0	508	508	0	0	
5	0	0	0	0	508	509	0	0	
6	0	0	0	0	508	508	0	0	
7	0	0	0	0	507	506	0	0	
8	0	0	0	0	508	508	0	0	
9	0	0	0	0	510	509	0	0	
10	0	0	0	0	510	510	0	0	
11	0	0	0	0	512	507	0	0	
12	0	0	0	0	511	508	0	0	
13	0	0	0	0	512	509	0	0	
14	0	0	0	0	512	507	0	0	
15	0	0	0	0	515	508	0	0	
0	0	0	0	0	514	508	0	0	
1	0	0	0	0	514	507	0	0	
2	0	0	0	0	513	509	0	0	
3	0	0	0	0	511	509	0	0	
4	0	0	0	0	513	507	0	0	
5	0	0	0	0	511	508	0	0	
6	0	0	0	0	510	508	0	0	
7	0	0	0	0	509	509	0	0	
8	0	0	0	0	510	506	0	0	
9	0	0	0	0	510	507	0	0	
10	0	0	0	0	509	508	0	0	
11	0	0	0	0	509	508	0	0	
12	0	0	0	0	507	509	0	0	
13	0	0	0	0	508	510	0	0	
14	0	0	0	0	511	509	0	0	
15	0	0	0	0	512	508	0	0	
0	0	0	0	0	515	508	0	0	
1	0	0	0	0	513	509	0	0	
2	0	0	0	0	513	511	0	0	
3	0	0	0	0	513	508	0	0	
4	0	0	0	0	514	508	0	0	
5	0	0	0	0	513	509	0	0	
6	0	0	0	0	511	508	0	0	
7	0	0	0	0	512	505	0	0	
8	0	0	0	0	512	499	0	0	
9	0	0	0	0	508	501	0	0	
10	0	0	0	0	510	508	0	0	
11	0	0	0	0	510	510	0	0	
12	0	0	0	0	508	512	0	0	
13	0	0	0	0	509	510	0	0	
14	0	0	0	0	508	510	0	0	
15	0	0	0	0	510	510	0	0	
0	0	0	0	0	509	510	0	0	
1	0	0	0	0	509	509	0	0	
2	0	0	0	0	510	508	0	0	
3	0	0	0	0	511	507	0	0	
4	0	0	0	0	513	507	0	0	
5	0	0	0	0	514	506	0	0	
6	0	0	0	0	513	508	0	0	
7	0	0	0	0	514	507	0	0	
8	0	0	0	0	515	509	0	0	
9	0	0	0	0	513	511	0	0	
10	0	0	0	0	511	512	0	0	
11	0	0	0	0	511	509	0	0	
12	0	0	0	0	512	508	0	0	
13	0	0	0	0	510	508	0	0	
14	0	0	0	0	510	505	0	0	
15	0	0	0	0	508	502	0	0	
0	0	0	0	0	508	502	0	0	
1	0	0	0	0	508	507	0	0	
2	0	0	0	0	509	509	0	0	
3	0	0	0	0	510	512	0	0	
4	0	0	0	0	511	509	0	0	
5	0	0	0	0	511	508	0	0	
6	0	0	0	0	509	508	0	0	
7	0	0	0	0	511	510	0	0	
8	0	0	0	0	512	510	0	0	
9	0	0	0	0	512	507	0	0	
10	0	0	0	0	511	504	0	0	
11	0	0	0	0	513	508	0	0	
12	0	0	0	0	516	511	0	0	
13	0	0	0	0	515	509	0	0	
14	0	0	0	0	512	508	0	0	
15	0	0	0	0	512	511	0	0	
0	0	0	0	0	513	511	0	0	
1	0	0	0	0	510	507	0	0	
2	0	0	0	0	508	506	0	0	
3	0	0	0	0	509	506	0	0	
4	0	0	0	0	511	505	0	0	
5	0	0	0	0	509	506	0	0	
6	0	0	0	0	510	508	0	0	
7	0	0	0	0	511	510	0	0	
8	0	0	0	0	508	510	0	0	
9	0	0	0	0	509	507	0	0	
10	0	0	0	0	510	510	0	0	
11	0	0	0	0	511	510	0	0	
12	0	0	0	0	513	508	0	0	
13	0	0	0	0	513	508	0	0	
14	0	0	0	0	514	507	0	0	
15	0	0	0	0	512	508	0	0	
0	0	0	0	0	514	507	0	0	
1	0	0	0	0	512	508	0	0	
2	0	0	0	0	511	507	0	0	
3	0	0	0	0	512	509	0	0	
4	0	0	0	0	510	510	0	0	
5	0	0	0	0	511	508	0	0	
6	0	0	0	0	511	508	0	0	
7	0	0	0	0	510	507	0	0	
8	0	0	0	0	510	507	0	0	
9	0	0	0	0	509	507	0	0	
10	0	0	0	0	509	508	0	0	
11	0	0	0	0	507	508	0	0	
12	0	0	0	0	507	508	0	0	
13	0	0	0	0	509	509	0	0	
14	0	0	0	0	511	508	0	0	
15	0	0	0	0	511	508	0	0	
0	0	0	0	0	513	507	0	0	
1	0	0	0	0	512	508	0	0	
2	0	0	0	0	513	508	0	0	
3	0	0	0	0	513	509	0	0	
4	0	0	0	0	514	507	0	0	
5	0	0	0	0	513	507	0	0	
6	0	0	0	0	512	509	0	0	
7	0	0	0	0	513	507	0	0	
8	0	0	0	0	513	508	0	0	
9	0	0	0	0	511	509	0	0	
10	0	0	0	0	510	508	0	0	
11	0	0	0	0	510	505	0	0	
12	0	0	0	0	508	507	0	0	
13	0	0	0	0	510	509	0	0	
14	0	0	0	0	507	507	0	0	
15	0	0	0	0	507	506	0	0	
0	0	0	0	0	508	507	0	0	
1	0	0	0	0	511	509	0	0	
2	0	0	0	0	510	509	0	0	
3	0	0	0	0	511	508	0	0	
4	0	0	0	0	513	508	0	0	
5	0	0	0	0	513	509	0	0	
6	0	0	0	0	513	506	0	0	
7	0	0	0	0	513	508	0	0	
8	0	0	0	0	515	508	0	0	
9	0	0	0	0	514	510	0	0	
10	0	0	0	0	513	509	0	0	
11	0	0	0	0	511	508	0	0	
12	0	0	0	0	512	507	0	0	
13	0	0	0	0	511	508	0	0	
14	0	0	0	0	508	508	0	0	
15	0	0	0	0	509	507	0	0	
0	0	0	0	0	508	507	0	0	
1	0	0	0	0	508	509	0	0	
2	0	0	0	0	508	507	0	0	
3	0	0	0	0	509	506	0	0	
4	0	0	0	0	508	507	0	0	
5	0	0	0	0	510	508	0	0	
6	0	0	0	0	511	510	0	0	
7	0	0	0	0	510	509	0	0	
8	0	0	0	0	512	509	0	0	
9	0	0	0	0	513	511	0	0	
10	0	0	0	0	515	508	0	0	
11	0	0	0	0	515	509	0	0	
12	0	0	0	0	514	509	0	0	
13	0	0	0	0	515	508	0	0	
14	0	0	0	0	513	508	0	0	
15	0	0	0	0	511	507	0	0	
0	0	0	0	0	511	508	0	0	
1	0	0	0	0	512	508	0	0	
2	0	0	0	0	510	508	0	0	
3	0	0	0	0	509	507	0	0	
4	0	0	0	0	510	510	0	0	
5	0	0	0	0	508	507	0	0	
6	0	0	0	0	507	508	0	0	
7	0	0	0	0	508	509	0	0	
8	0	0	0	0	508	508	0	0	
9	0	0	0	0	510	504	0	0	
10	0	0	0	0	510	505	0	0	
11	0	0	0	0	511	508	0	0	
12	0	0	0	0	512	509	0	0	
13	0	0	0	0	513	510	0	0	
14	0	0	0	0	512	509	0	0	
15	0	0	0	0	515	508	0	0	
0	0	0	0	0	513	510	0	0	
1	0	0	0	0	513	508	0	0	
2	0	0	0	0	511	509	0	0	
3	0	0	0	0	513	507	0	0	
4	0	0	0	0	511	508	0	0	
5	0	0	0	0	510	508	0	0	
6	0	0	0	0	508	506	0	0	
7	0	0	0	0	510	506	0	0	
8	0	0	0	0	510	507	0	0	
9	0	0	0	0	509	507	0	0	
10	0	0	0	0	508	508	0	0	
11	0	0	0	0	508	510	0	0	
12	0	0	0	0	510	507	0	0	
13	0	0	0	0	510	508	0	0	
14	0	0	0	0	511	509	0	0	
15	0	0	0	0	511	509	0	0	
0	0	0	0	0	509	508	0	0	
1	0	0	0	0	513	509	0	0	
2	0	0	0	0	511	510	0	0	
3	0	0	0	0	514	508	0	0	
4	0	0	0	0	512	507	0	0	
5	0	0	0	0	511	507	0	0	
6	0	0	0	0	515	508	0	0	
7	0	0	0	0	514	510	0	0	
8	0	0	0	0	511	508	0	0	
9	0	0	0	0	511	507	0	0	
10	0	0	0	0	511	508	0	0	
11	0	0	0	0	509	507	0	0	
12	0	0	0	0	508	508	0	0	
13	0	0	0	0	507	508	0	0	
14	0	0	0	0	510	508	0	0	
15	0	0	0	0	508	507	0	0	
0	0	0	0	0	511	509	0	0	
1	0	0	0	0	509	506	0	0	
2	0	0	0	0	511	508	0	0	
3	0	0	0	0	510	510	0	0	
4	0	0	0	0	510	507	0	0	
5	0	0	0	0	512	509	0	0	
6	0	0	0	0	513	509	0	0	
7	0	0	0	0	515	507	0	0	
8	0	0	0	0	514	509	0	0	
9	0	0	0	0	513	509	0	0	
10	0	0	0	0	513	509	0	0	
11	0	0	0	0	510	509	0	0	
12	0	0	0	0	512	507	0	0	
13	0	0	0	0	512	507	0	0	
14	0	0	0	0	511	508	0	0	
15	0	0	0	0	510	508	0	0	
0	0	0	0	0	511	507	0	0	
1	0	0	0	0	508	507	0	0	
2	0	0	0	0	510	507	0	0	
3	0	0	0	0	509	505	0	0	
4	0	0	0	0	509	509	0	0	
5	0	0	0	0	508	507	0	0	
6	0	0	0	0	510	508	0	0	
7	0	0	0	0	511	508	0	0	
8	0	0	0	0	511	510	0	0	
9	0	0	0	0	513	508	0	0	
10	0	0	0	0	512	509	0	0	
11	0	0	0	0	514	508	0	0	
12	0	0	0	0	514	506	0	0	
13	0	0	0	0	512	508	0	0	
14	0	0	0	0	516	508	0	0	
15	0	0	0	0	511	508	0	0	
0	0	0	0	0	513	507	0	0	
1	0	0	0	0	511	506	0	0	
2	0	0	0	0	509	505	0	0	
3	0	0	0	0	510	508	0	0	
4	0	0	0	0	507	507	0	0	
5	0	0	0	0	507	507	0	0	
6	0	0	0	0	508	509	0	0	
7	0	0	0	0	508	508	0	0	
8	0	0	0	0	509	507	0	0	
9	0	0	0	0	510	508	0	0	
10	0	0	0	0	512	508	0	0	
11	0	0	0	0	509	507	0	0	
12	0	0	0	0	512	509	0	0	
13	0	0	0	0	514	510	0	0	
14	0	0	0	0	514	508	0	0	
15	0	0	0	0	513	507	0	0	
0	0	0	0	0	515	508	0	0	
1	0	0	0	0	514	507	0	0	
2	0	0	0	0	512	510	0	0	
3	0	0	0	0	513	508	0	0	
4	0	0	0	0	512	507	0	0	
5	0	0	0	0	510	508	0	0	
6	0	0	0	0	508	506	0	0	
7	0	0	0	0	507	508	0	0	
8	0	0	0	0	507	510	0	0	
9	0	0	0	0	507	507	0	0	
10	0	0	0	0	508	507	0	0	
11	0	0	0	0	509	507	0	0	
12	0	0	0	0	509	507	0	0	
13	0	0	0	0	508	506	0	0	
14	0	0	0	0	510	508	0	0	
15	0	0	0	0	511	508	0	0	
0	0	0	0	0	511	507	0	0	
1	0	0	0	0	514	511	0	0	
2	0	0	0	0	511	508	0	0	
3	0	0	0	0	513	507	0	0	
4	0	0	0	0	513	508	0	0	
5	0	0	0	0	515	508	0	0	
6	0	0	0	0	515	508	0	0	
7	0	0	0	0	511	509	0	0	
8	0	0	0	0	511	508	0	0	
9	0	0	0	0	509	508	0	0	
10	0	0	0	0	510	507	0	0	
11	0	0	0	0	511	507	0	0	
12	0	0	0	0	509	507	0	0	
13	0	0	0	0	509	506	0	0	
14	0	0	0	0	509	509	0	0	
15	0	0	0	0	509	510	0	0	
0	0	0	0	0	509	510	0	0	
1	0	0	0	0	508	509	0	0	
2	0	0	0	0	510	506	0	0	
3	0	0	0	0	510	509	0	0	
4	0	0	0	0	511	508	0	0	
5	0	0	0	0	515	509	0	0	
6	0	0	0	0	514	510	0	0	
7	0	0	0	0	514	507	0	0	
8	0	0	0	0	514	508	0	0	
9	0	0	0	0	515	508	0	0	
10	0	0	0	0	512	509	0	0	
11	0	0	0	0	513	509	0	0	
12	0	0	0	0	514	507	0	0	
13	0	0	0	0	510	508	0	0	
14	0	0	0	0	509	509	0	0	
15	0	0	0	0	510	508	0	0	
0	0	0	0	0	511	508	0	0	
1	0	0	0	0	508	508	0	0	
2	0	0	0	0	508	508	0	0	
3	0	0	0	0	510	508	0	0	
4	0	0	0	0	509	507	0	0	
5	0	0	0	0	511	506	0	0	
6	0	0	0	0	512	509	0	0	
7	0	0	0	0	512	510	0	0	
8	0	0	0	0	511	507	0	0	
9	0	0	0	0	511	510	0	0	
10	0	0	0	0	514	508	0	0	
11	0	0	0	0	513	509	0	0	
12	0	0	0	0	511	508	0	0	
13	0	0	0	0	513	510	0	0	
14	0	0	0	0	513	509	0	0	
15	0	0	0	0	513	509	0	0	
0	0	0	0	0	511	506	0	0	
1	0	0	0	0	510	507	0	0	
2	0	0	0	0	509	507	0	0	
3	0	0	0	0	508	507	0	0	
4	0	0	0	0	510	508	0	0	
5	0	0	0	0	508	506	0	0	
6	0	0	0	0	508	508	0	0	
7	0	0	0	0	508	507	0	0	
8	0	0	0	0	508	507	0	0	
9	0	0	0	0	510	507	0	0	
10	0	0	0	0	511	509	0	0	
11	0	0	0	0	509	509	0	0	
12	0	0	0	0	513	510	0	0	
13	0	0	0	0	513	509	0	0	
14	0	0	0	0	514	510	0	0	
15	0	0	0	0	515	508	0	0	
0	0	0	0	0	514	508	0	0	
1	0	0	0	0	513	508	0	0	
2	0	0	0	0	514	506	0	0	
3	0	0	0	0	512	504	0	0	
4	0	0	0	0	512	505	0	0	
5	0	0	0	0	512	505	0	0	
6	0	0	0	0	509	508	0	0	
7	0	0	0	0	508	508	0	0	
8	0	0	0	0	508	507	0	0	
9	0	0	0	0	509	508	0	0	
10	0	0	0	0	509	508	0	0	
11	0	0	0	0	508	509	0	0	
12	0	0	0	0	508	510	0	0	
13	0	0	0	0	510	508	0	0	
14	0	0	0	0	512	508	0	0	
15	0	0	0	0	512	511	0	0	
0	0	0	0	0	514	509	0	0	
1	0	0	0	0	512	508	0	0	
2	0	0	0	0	513	510	0	0	
3	0	0	0	0	514	508	0	0	
4	0	0	0	0	513	508	0	0	
5	0	0	0	0	514	507	0	0	
6	0	0	0	0	512	506	0	0	
7	0	0	0	0	512	508	0	0	
8	0	0	0	0	511	510	0	0	
9	0	0	0	0	511	509	0	0	
10	0	0	0	0	508	509	0	0	
11	0	0	0	0	510	508	0	0	
12	0	0	0	0	511	508	0	0	
13	0	0	0	0	509	508	0	0	
14	0	0	0	0	507	508	0	0	
15	0	0	0	0	510	507	0	0	
0	0	0	0	0	509	508	0	0	
1	0	0	0	0	508	509	0	0	
2	0	0	0	0	510	510	0	0	
3	0	0	0	0	509	508	0	0	
4	0	0	0	0	510	509	0	0	
5	0	0	0	0	511	508	0	0	
6	0	0	0	0	514	508	0	0	
7	0	0	0	0	516	504	0	0	
8	0	0	0	0	513	507	0	0	
9	0	0	0	0	513	507	0	0	
10	0	0	0	0	513	509	0	0	
11	0	0	0	0	512	508	0	0	
12	0	0	0	0	513	507	0	0	
13	0	0	0	0	512	510	0	0	
14	0	0	0	0	510	507	0	0	
15	0	0	0	0	510	507	0	0	
0	0	0	0	0	509	507	0	0	
1	0	0	0	0	508	507	0	0	
2	0	0	0	0	508	508	0	0	
3	0	0	0	0	508	508	0	0	
4	0	0	0	0	509	508	0	0	
5	0	0	0	0	509	511	0	0	
6	0	0	0	0	511	510	0	0	
7	0	0	0	0	510	509	0	0	
8	0	0	0	0	514	507	0	0	
9	0	0	0	0	514	509	0	0	
10	0	0	0	0	515	507	0	0	
11	0	0	0	0	514	508	0	0	
12	0	0	0	0	511	510	0	0	
13	0	0	0	0	513	508	0	0	
14	0	0	0	0	513	506	0	0	
15	0	0	0	0	512	508	0	0	
0	0	0	0	0	511	506	0	0	
1	0	0	0	0	510	509	0	0	
2	0	0	0	0	512	508	0	0	
3	0	0	0	0	508	506	0	0	
4	0	0	0	0	511	507	0	0	
5	0	0	0	0	510	508	0	0	
6	0	0	0	0	508	508	0	0	
7	0	0	0	0	507	509	0	0	
8	0	0	0	0	509	509	0	0	
9	0	0	0	0	510	509	0	0	
10	0	0	0	0	511	508	0	0	
11	0	0	0	0	511	509	0	0	
12	0	0	0	0	513	508	0	0	
13	0	0	0	0	512	509	0	0	
14	0	0	0	0	516	509	0	0	
15	0	0	0	0	515	508	0	0	
0	0	0	0	0	513	510	0	0	
1	0	0	0	0	512	508	0	0	
2	0	0	0	0	514	508	0	0	
3	0	0	0	0	512	507	0	0	
4	0	0	0	0	510	507	0	0	
5	0	0	0	0	509	508	0	0	
6	0	0	0	0	509	506	0	0	
7	0	0	0	0	509	505	0	0	
8	0	0	0	0	508	508	0	0	
9	0	0	0	0	509	506	0	0	
10	0	0	0	0	506	507	0	0	
11	0	0	0	0	508	508	0	0	
12	0	0	0	0	510	510	0	0	
13	0	0	0	0	510	508	0	0	
14	0	0	0	0	511	507	0	0	
15	0	0	0	0	510	508	0	0	
0	0	0	0	0	512	511	0	0	
1	0	0	0	0	511	508	0	0	
2	0	0	0	0	514	509	0	0	
3	0	0	0	0	513	508	0	0	
4	0	0	0	0	514	508	0	0	
5	0	0	0	0	513	508	0	0	
6	0	0	0	0	513	507	0	0	
7	0	0	0	0	513	507	0	0	
8	0	0	0	0	513	507	0	0	
9	0	0	0	0	510	507	0	0	
10	0	0	0	0	511	508	0	0	
11	0	0	0	0	508	508	0	0	
12	0	0	0	0	509	510	0	0	
13	0	0	0	0	509	510	0	0	
14	0	0	0	0	510	510	0	0	
15	0	0	0	0	508	508	0	0	
0	0	0	0	0	509	508	0	0	
1	0	0	0	0	507	510	0	0	
2	0	0	0	0	510	508	0	0	
3	0	0	0	0	511	508	0	0	
4	0	0	0	0	512	509	0	0	
5	0	0	0	0	513	507	0	0	
6	0	0	0	0	513	507	0	0	
7	0	0	0	0	513	507	0	0	
8	0	0	0	0	514	508	0	0	
9	0	0	0	0	513	508	0	0	
10	0	0	0	0	512	508	0	0	
11	0	0	0	0	513	509	0	0	
12	0	0	0	0	511	507	0	0	
13	0	0	0	0	509	505	0	0	
14	0	0	0	0	506	508	0	0	
15	0	0	0	0	507	507	0	0	
0	0	0	0	0	509	507	0	0	
1	0	0	0	0	511	508	0	0	
2	0	0	0	0	508	508	0	0	
3	0	0	0	0	507	508	0	0	
4	0	0	0	0	511	511	0	0	
5	0	0	0	0	511	509	0	0	
6	0	0	0	0	510	508	0	0	
7	0	0	0	0	513	505	0	0	
8	0	0	0	0	514	509	0	0	
9	0	0	0	0	513	509	0	0	
10	0	0	0	0	514	508	0	0	
11	0	0	0	0	513	507	0	0	
12	0	0	0	0	512	508	0	0	
13	0	0	0	0	513	508	0	0	
14	0	0	0	0	512	506	0	0	
15	0	0	0	0	511	508	0	0	
0	0	0	0	0	511	508	0	0	
1	0	0	0	0	510	507	0	0	
2	0	0	0	0	510	507	0	0	
3	0	0	0	0	509	508	0	0	
4	0	0	0	0	508	509	0	0	
5	0	0	0	0	510	506	0	0	
6	0	0	0	0	507	509	0	0	
7	0	0	0	0	508	509	0	0	
8	0	0	0	0	510	508	0	0	
9	0	0	0	0	511	507	0	0	
10	0	0	0	0	511	508	0	0	
11	0	0	0	0	513	508	0	0	
12	0	0	0	0	512	508	0	0	
13	0	0	0	0	512	509	0	0	
14	0	0	0	0	515	508	0	0	
15	0	0	0	0	511	507	0	0	
0	0	0	0	0	515	508	0	0	
1	0	0	0	0	511	511	0	0	
2	0	0	0	0	512	508	0	0	
3	0	0	0	0	510	507	0	0	
4	0	0	0	0	511	509	0	0	
5	0	0	0	0	510	510	0	0	
6	0	0	0	0	508	506	0	0	
7	0	0	0	0	509	505	0	0	
8	0	0	0	0	508	506	0	0	
9	0	0	0	0	510	509	0	0	
10	0	0	0	0	511	508	0	0	
11	0	0	0	0	509	508	0	0	
12	0	0	0	0	508	508	0	0	
13	0	0	0	0	511	508	0	0	
14	0	0	0	0	511	507	0	0	
15	0	0	0	0	512	508	0	0	
0	0	0	0	0	512	510	0	0	
1	0	0	0	0	512	507	0	0	
2	0	0	0	0	514	508	0	0	
3	0	0	0	0	513	508	0	0	
4	0	0	0	0	514	509	0	0	
5	0	0	0	0	515	508	0	0	
6	0	0	0	0	513	506	0	0	
7	0	0	0	0	511	507	0	0	
8	0	0	0	0	509	508	0	0	
9	0	0	0	0	511	508	0	0	
10	0	0	0	0	509	507	0	0	
11	0	0	0	0	509	508	0	0	
12	0	0	0	0	507	508	0	0	
13	0	0	0	0	508	507	0	0	
14	0	0	0	0	508	507	0	0	
15	0	0	0	0	506	508	0	0	
0	0	0	0	0	508	508	0	0	
1	0	0	0	0	508	508	0	0	
2	0	0	0	0	510	508	0	0	
3	0	0	0	0	511	507	0	0	
4	0	0	0	0	513	509	0	0	
5	0	0	0	0	513	509	0	0	
6	0	0	0	0	514	507	0	0	
7	0	0	0	0	513	508	0	0	
8	0	0	0	0	515	508	0	0	
9	0	0	0	0	514	508	0	0	
10	0	0	0	0	516	509	0	0	
11	0	0	0	0	513	510	0	0	
12	0	0	0	0	512	507	0	0	
13	0	0	0	0	512	506	0	0	
14	0	0	0	0	510	508	0	0	
15	0	0	0	0	508	507	0	0	
0	0	0	0	0	506	506	0	0	
1	0	0	0	0	509	508	0	0	
2	0	0	0	0	509	508	0	0	
3	0	0	0	0	508	507	0	0	
4	0	0	0	0	509	508	0	0	
5	0	0	0	0	511	509	0	0	
6	0	0	0	0	510	508	0	0	
7	0	0	0	0	510	508	0	0	
8	0	0	0	0	512	509	0	0	
9	0	0	0	0	513	508	0	0	
10	0	0	0	0	511	508	0	0	
11	0	0	0	0	513	509	0	0	
12	0	0	0	0	514	508	0	0	
13	0	0	0	0	515	507	0	0	
14	0	0	0	0	512	508	0	0	
15	0	0	0	0	513	507	0	0	
0	0	0	0	0	512	506	0	0	
1	0	0	0	0	511	507	0	0	
2	0	0	0	0	511	509	0	0	
3	0	0	0	0	508	507	0	0	
4	0	0	0	0	507	509	0	0	
5	0	0	0	0	507	508	0	0	
6	0	0	0	0	507	508	0	0	
7	0	0	0	0	509	508	0	0	
8	0	0	0	0	508	507	0	0	
9	0	0	0	0	512	506	0	0	
10	0	0	0	0	511	505	0	0	
11	0	0	0	0	511	508	0	0	
12	0	0	0	0	512	509	0	0	
13	0	0	0	0	513	508	0	0	
14	0	0	0	0	513	508	0	0	
15	0	0	0	0	513	508	0	0	
0	0	0	0	0	515	508	0	0	
1	0	0	0	0	512	507	0	0	
2	0	0	0	0	512	508	0	0	
3	0	0	0	0	513	508	0	0	
4	0	0	0	0	512	507	0	0	
5	0	0	0	0	510	510	0	0	
6	0	0	0	0	511	508	0	0	
7	0	0	0	0	509	508	0	0	
8	0	0	0	0	508	509	0	0	
9	0	0	0	0	508	505	0	0	
10	0	0	0	0	510	507	0	0	
11	0	0	0	0	508	508	0	0	
12	0	0	0	0	509	507	0	0	
13	0	0	0	0	510	508	0	0	
14	0	0	0	0	509	508	0	0	
15	0	0	0	0	511	508	0	0	
0	0	0	0	0	510	509	0	0	
1	0	0	0	0	513	510	0	0	
2	0	0	0	0	513	509	0	0	
3	0	0	0	0	515	510	0	0	
4	0	0	0	0	515	508	0	0	
5	0	0	0	0	514	504	0	0	
6	0	0	0	0	514	506	0	0	
7	0	0	0	0	513	507	0	0	
8	0	0	0	0	510	508	0	0	
9	0	0	0	0	510	508	0	0	
10	0	0	0	0	509	508	0	0	
11	0	0	0	0	508	511	0	0	
12	0	0	0	0	510	508	0	0	
13	0	0	0	0	507	507	0	0	
14	0	0	0	0	508	509	0	0	
15	0	0	0	0	509	508	0	0	
0	0	0	0	0	508	508	0	0	
1	0	0	0	0	508	509	0	0	
2	0	0	0	0	510	509	0	0	
3	0	0	0	0	512	509	0	0	
4	0	0	0	0	511	507	0	0	
5	0	0	0	0	513	508	0	0	
6	0	0	0	0	515	508	0	0	
7	0	0	0	0	514	507	0	0	
8	0	0	0	0	514	506	0	0	
9	0	0	0	0	514	508	0	0	
10	0	0	0	0	515	509	0	0	
11	0	0	0	0	512	507	0	0	
12	0	0	0	0	512	506	0	0	
13	0	0	0	0	509	508	0	0	
14	0	0	0	0	509	508	0	0	
15	0	0	0	0	507	508	0	0	
0	0	0	0	0	507	508	0	0	
1	0	0	0	0	508	507	0	0	
2	0	0	0	0	508	507	0	0	
