# OpenSignals Text File Format. Version 1
# {"20:18:06:13:21:78": {"position": 0, "device": "bitalino_rev", "device name": "20:18:06:13:21:78", "device connection": "BTH20:18:06:13:21:78", "sampling rate": 1000, "resolution": [4, 1, 1, 1, 1, 10, 10, 10, 10], "firmware version": 1281, "comments": "", "keywords": "", "mode": 0, "sync interval": 2, "date": "2023-6-5", "time": "20:1:23.671", "channels": [1, 2, 3, 4], "sensor": ["EMGBITREV", "EMGBITREV", "RAW", "RAW"], "label": ["A1", "A2", "A3", "A4"], "column": ["nSeq", "I1", "I2", "O1", "O2", "A1", "A2", "A3", "A4"], "special": [{}, {}, {}, {}], "digital IO": [0, 0, 1, 1]}}
# EndOfHeader
0	0	0	0	0	510	508	0	0	
1	0	0	0	0	510	508	0	0	
2	0	0	0	0	510	508	0	0	
3	0	0	0	0	509	508	0	0	
4	0	0	0	0	510	507	0	0	
5	0	0	0	0	511	508	0	0	
6	0	0	0	0	510	508	0	0	
7	0	0	0	0	510	509	0	0	
8	0	0	0	0	511	509	0	0	
9	0	0	0	0	512	508	0	0	
10	0	0	0	0	511	507	0	0	
11	0	0	0	0	512	508	0	0	
12	0	0	0	0	512	508	0	0	
13	0	0	0	0	513	508	0	0	
14	0	0	0	0	513	509	0	0	
15	0	0	0	0	513	510	0	0	
0	0	0	0	0	514	507	0	0	
1	0	0	0	0	511	506	0	0	
2	0	0	0	0	514	506	0	0	
3	0	0	0	0	511	507	0	0	
4	0	0	0	0	511	506	0	0	
5	0	0	0	0	511	506	0	0	
6	0	0	0	0	511	508	0	0	
7	0	0	0	0	511	509	0	0	
8	0	0	0	0	512	507	0	0	
9	0	0	0	0	508	507	0	0	
10	0	0	0	0	507	508	0	0	
11	0	0	0	0	511	510	0	0	
12	0	0	0	0	510	509	0	0	
13	0	0	0	0	512	509	0	0	
14	0	0	0	0	514	509	0	0	
15	0	0	0	0	511	507	0	0	
0	0	0	0	0	513	508	0	0	
1	0	0	0	0	511	508	0	0	
2	0	0	0	0	514	507	0	0	
3	0	0	0	0	510	508	0	0	
4	0	0	0	0	510	510	0	0	
5	0	0	0	0	510	509	0	0	
6	0	0	0	0	513	508	0	0	
7	0	0	0	0	511	507	0	0	
8	0	0	0	0	510	508	0	0	
9	0	0	0	0	510	507	0	0	
10	0	0	0	0	511	507	0	0	
11	0	0	0	0	508	507	0	0	
12	0	0	0	0	510	510	0	0	
13	0	0	0	0	510	508	0	0	
14	0	0	0	0	509	508	0	0	
15	0	0	0	0	510	509	0	0	
0	0	0	0	0	511	508	0	0	
1	0	0	0	0	513	507	0	0	
2	0	0	0	0	510	508	0	0	
3	0	0	0	0	509	509	0	0	
4	0	0	0	0	512	510	0	0	
5	0	0	0	0	512	508	0	0	
6	0	0	0	0	512	507	0	0	
7	0	0	0	0	513	507	0	0	
8	0	0	0	0	511	507	0	0	
9	0	0	0	0	513	509	0	0	
10	0	0	0	0	512	507	0	0	
11	0	0	0	0	510	508	0	0	
12	0	0	0	0	509	507	0	0	
13	0	0	0	0	509	508	0	0	
14	0	0	0	0	507	509	0	0	
15	0	0	0	0	509	505	0	0	
0	0	0	0	0	511	509	0	0	
1	0	0	0	0	509	509	0	0	
2	0	0	0	0	511	509	0	0	
3	0	0	0	0	510	509	0	0	
4	0	0	0	0	510	508	0	0	
5	0	0	0	0	513	508	0	0	
6	0	0	0	0	512	509	0	0	
7	0	0	0	0	512	508	0	0	
8	0	0	0	0	515	507	0	0	
9	0	0	0	0	515	508	0	0	
10	0	0	0	0	513	506	0	0	
11	0	0	0	0	513	508	0	0	
12	0	0	0	0	513	508	0	0	
13	0	0	0	0	512	506	0	0	
14	0	0	0	0	508	507	0	0	
15	0	0	0	0	507	509	0	0	
0	0	0	0	0	510	506	0	0	
1	0	0	0	0	511	508	0	0	
2	0	0	0	0	511	507	0	0	
3	0	0	0	0	510	509	0	0	
4	0	0	0	0	508	507	0	0	
5	0	0	0	0	511	508	0	0	
6	0	0	0	0	510	505	0	0	
7	0	0	0	0	510	507	0	0	
8	0	0	0	0	513	508	0	0	
9	0	0	0	0	512	511	0	0	
10	0	0	0	0	512	508	0	0	
11	0	0	0	0	511	508	0	0	
12	0	0	0	0	515	509	0	0	
13	0	0	0	0	511	509	0	0	
14	0	0	0	0	511	510	0	0	
15	0	0	0	0	514	509	0	0	
0	0	0	0	0	512	508	0	0	
1	0	0	0	0	511	508	0	0	
2	0	0	0	0	511	508	0	0	
3	0	0	0	0	510	508	0	0	
4	0	0	0	0	511	507	0	0	
5	0	0	0	0	510	508	0	0	
6	0	0	0	0	509	508	0	0	
7	0	0	0	0	511	509	0	0	
8	0	0	0	0	508	505	0	0	
9	0	0	0	0	508	508	0	0	
10	0	0	0	0	508	509	0	0	
11	0	0	0	0	509	507	0	0	
12	0	0	0	0	510	508	0	0	
13	0	0	0	0	511	510	0	0	
14	0	0	0	0	512	507	0	0	
15	0	0	0	0	511	508	0	0	
0	0	0	0	0	513	510	0	0	
1	0	0	0	0	512	507	0	0	
2	0	0	0	0	512	507	0	0	
3	0	0	0	0	512	507	0	0	
4	0	0	0	0	512	508	0	0	
5	0	0	0	0	513	508	0	0	
6	0	0	0	0	511	508	0	0	
7	0	0	0	0	511	508	0	0	
8	0	0	0	0	511	507	0	0	
9	0	0	0	0	509	508	0	0	
10	0	0	0	0	511	506	0	0	
11	0	0	0	0	511	508	0	0	
12	0	0	0	0	509	508	0	0	
13	0	0	0	0	510	510	0	0	
14	0	0	0	0	510	509	0	0	
15	0	0	0	0	510	508	0	0	
0	0	0	0	0	511	509	0	0	
1	0	0	0	0	511	508	0	0	
2	0	0	0	0	512	508	0	0	
3	0	0	0	0	512	507	0	0	
4	0	0	0	0	512	510	0	0	
5	0	0	0	0	513	507	0	0	
6	0	0	0	0	512	510	0	0	
7	0	0	0	0	514	506	0	0	
8	0	0	0	0	513	506	0	0	
9	0	0	0	0	513	509	0	0	
10	0	0	0	0	510	507	0	0	
11	0	0	0	0	512	508	0	0	
12	0	0	0	0	510	507	0	0	
13	0	0	0	0	511	509	0	0	
14	0	0	0	0	510	509	0	0	
15	0	0	0	0	511	508	0	0	
0	0	0	0	0	511	508	0	0	
1	0	0	0	0	511	510	0	0	
2	0	0	0	0	509	509	0	0	
3	0	0	0	0	512	508	0	0	
4	0	0	0	0	510	508	0	0	
5	0	0	0	0	511	509	0	0	
6	0	0	0	0	511	508	0	0	
7	0	0	0	0	511	507	0	0	
8	0	0	0	0	514	506	0	0	
9	0	0	0	0	513	507	0	0	
10	0	0	0	0	512	506	0	0	
11	0	0	0	0	515	508	0	0	
12	0	0	0	0	513	508	0	0	
13	0	0	0	0	511	507	0	0	
14	0	0	0	0	510	510	0	0	
15	0	0	0	0	509	508	0	0	
0	0	0	0	0	511	508	0	0	
1	0	0	0	0	511	507	0	0	
2	0	0	0	0	510	508	0	0	
3	0	0	0	0	511	508	0	0	
4	0	0	0	0	508	508	0	0	
5	0	0	0	0	508	508	0	0	
6	0	0	0	0	509	509	0	0	
7	0	0	0	0	510	511	0	0	
8	0	0	0	0	510	508	0	0	
9	0	0	0	0	511	511	0	0	
10	0	0	0	0	512	505	0	0	
11	0	0	0	0	513	507	0	0	
12	0	0	0	0	513	508	0	0	
13	0	0	0	0	514	507	0	0	
14	0	0	0	0	513	510	0	0	
15	0	0	0	0	510	509	0	0	
0	0	0	0	0	512	510	0	0	
1	0	0	0	0	511	506	0	0	
2	0	0	0	0	512	509	0	0	
3	0	0	0	0	512	508	0	0	
4	0	0	0	0	509	508	0	0	
5	0	0	0	0	510	507	0	0	
6	0	0	0	0	512	508	0	0	
7	0	0	0	0	510	507	0	0	
8	0	0	0	0	510	508	0	0	
9	0	0	0	0	509	508	0	0	
10	0	0	0	0	510	508	0	0	
11	0	0	0	0	510	506	0	0	
12	0	0	0	0	508	509	0	0	
13	0	0	0	0	508	508	0	0	
14	0	0	0	0	510	508	0	0	
15	0	0	0	0	511	511	0	0	
0	0	0	0	0	513	509	0	0	
1	0	0	0	0	511	507	0	0	
2	0	0	0	0	515	508	0	0	
3	0	0	0	0	511	508	0	0	
4	0	0	0	0	511	508	0	0	
5	0	0	0	0	512	508	0	0	
6	0	0	0	0	510	508	0	0	
7	0	0	0	0	512	508	0	0	
8	0	0	0	0	512	508	0	0	
9	0	0	0	0	512	508	0	0	
10	0	0	0	0	512	509	0	0	
11	0	0	0	0	510	507	0	0	
12	0	0	0	0	510	507	0	0	
13	0	0	0	0	509	508	0	0	
14	0	0	0	0	509	508	0	0	
15	0	0	0	0	509	508	0	0	
0	0	0	0	0	509	508	0	0	
1	0	0	0	0	511	508	0	0	
2	0	0	0	0	513	508	0	0	
3	0	0	0	0	514	508	0	0	
4	0	0	0	0	512	508	0	0	
5	0	0	0	0	511	508	0	0	
6	0	0	0	0	511	509	0	0	
7	0	0	0	0	511	510	0	0	
8	0	0	0	0	513	508	0	0	
9	0	0	0	0	508	504	0	0	
10	0	0	0	0	510	508	0	0	
11	0	0	0	0	512	508	0	0	
12	0	0	0	0	510	506	0	0	
13	0	0	0	0	510	507	0	0	
14	0	0	0	0	509	508	0	0	
15	0	0	0	0	510	507	0	0	
0	0	0	0	0	510	505	0	0	
1	0	0	0	0	509	508	0	0	
2	0	0	0	0	511	509	0	0	
3	0	0	0	0	509	509	0	0	
4	0	0	0	0	510	509	0	0	
5	0	0	0	0	514	506	0	0	
6	0	0	0	0	511	508	0	0	
7	0	0	0	0	513	511	0	0	
8	0	0	0	0	512	509	0	0	
9	0	0	0	0	514	508	0	0	
10	0	0	0	0	513	507	0	0	
11	0	0	0	0	513	508	0	0	
12	0	0	0	0	512	509	0	0	
13	0	0	0	0	511	509	0	0	
14	0	0	0	0	513	507	0	0	
15	0	0	0	0	512	509	0	0	
0	0	0	0	0	508	508	0	0	
1	0	0	0	0	510	507	0	0	
2	0	0	0	0	511	508	0	0	
3	0	0	0	0	507	507	0	0	
4	0	0	0	0	510	509	0	0	
5	0	0	0	0	512	509	0	0	
6	0	0	0	0	511	509	0	0	
7	0	0	0	0	510	508	0	0	
8	0	0	0	0	511	507	0	0	
9	0	0	0	0	512	510	0	0	
10	0	0	0	0	513	508	0	0	
11	0	0	0	0	512	507	0	0	
12	0	0	0	0	511	508	0	0	
13	0	0	0	0	513	509	0	0	
14	0	0	0	0	512	509	0	0	
15	0	0	0	0	512	506	0	0	
0	0	0	0	0	511	507	0	0	
1	0	0	0	0	511	509	0	0	
2	0	0	0	0	511	506	0	0	
3	0	0	0	0	512	507	0	0	
4	0	0	0	0	511	507	0	0	
5	0	0	0	0	509	506	0	0	
6	0	0	0	0	508	509	0	0	
7	0	0	0	0	508	509	0	0	
8	0	0	0	0	510	507	0	0	
9	0	0	0	0	509	510	0	0	
10	0	0	0	0	510	509	0	0	
11	0	0	0	0	510	510	0	0	
12	0	0	0	0	511	507	0	0	
13	0	0	0	0	513	507	0	0	
14	0	0	0	0	512	509	0	0	
15	0	0	0	0	511	507	0	0	
0	0	0	0	0	513	509	0	0	
1	0	0	0	0	511	506	0	0	
2	0	0	0	0	511	508	0	0	
3	0	0	0	0	511	507	0	0	
4	0	0	0	0	513	510	0	0	
5	0	0	0	0	513	508	0	0	
6	0	0	0	0	511	506	0	0	
7	0	0	0	0	510	506	0	0	
8	0	0	0	0	510	508	0	0	
9	0	0	0	0	511	508	0	0	
10	0	0	0	0	510	510	0	0	
11	0	0	0	0	510	507	0	0	
12	0	0	0	0	511	510	0	0	
13	0	0	0	0	510	508	0	0	
14	0	0	0	0	510	507	0	0	
15	0	0	0	0	510	507	0	0	
0	0	0	0	0	511	508	0	0	
1	0	0	0	0	512	508	0	0	
2	0	0	0	0	511	507	0	0	
3	0	0	0	0	511	509	0	0	
4	0	0	0	0	513	508	0	0	
5	0	0	0	0	510	508	0	0	
6	0	0	0	0	512	509	0	0	
7	0	0	0	0	512	510	0	0	
8	0	0	0	0	513	508	0	0	
9	0	0	0	0	512	506	0	0	
10	0	0	0	0	512	508	0	0	
11	0	0	0	0	510	508	0	0	
12	0	0	0	0	508	506	0	0	
13	0	0	0	0	510	507	0	0	
14	0	0	0	0	510	507	0	0	
15	0	0	0	0	511	505	0	0	
0	0	0	0	0	511	508	0	0	
1	0	0	0	0	511	507	0	0	
2	0	0	0	0	510	510	0	0	
3	0	0	0	0	509	510	0	0	
4	0	0	0	0	510	508	0	0	
5	0	0	0	0	511	507	0	0	
6	0	0	0	0	513	508	0	0	
7	0	0	0	0	512	511	0	0	
8	0	0	0	0	511	508	0	0	
9	0	0	0	0	513	507	0	0	
10	0	0	0	0	513	507	0	0	
11	0	0	0	0	514	508	0	0	
12	0	0	0	0	513	507	0	0	
13	0	0	0	0	512	509	0	0	
14	0	0	0	0	513	509	0	0	
15	0	0	0	0	512	508	0	0	
0	0	0	0	0	511	507	0	0	
1	0	0	0	0	510	508	0	0	
2	0	0	0	0	509	508	0	0	
3	0	0	0	0	510	507	0	0	
4	0	0	0	0	509	506	0	0	
5	0	0	0	0	509	508	0	0	
6	0	0	0	0	509	506	0	0	
7	0	0	0	0	511	508	0	0	
8	0	0	0	0	510	509	0	0	
9	0	0	0	0	511	508	0	0	
10	0	0	0	0	512	508	0	0	
11	0	0	0	0	512	508	0	0	
12	0	0	0	0	512	510	0	0	
13	0	0	0	0	513	508	0	0	
14	0	0	0	0	512	508	0	0	
15	0	0	0	0	511	508	0	0	
0	0	0	0	0	510	508	0	0	
1	0	0	0	0	511	508	0	0	
2	0	0	0	0	512	506	0	0	
3	0	0	0	0	511	508	0	0	
4	0	0	0	0	511	507	0	0	
5	0	0	0	0	512	507	0	0	
6	0	0	0	0	510	508	0	0	
7	0	0	0	0	510	508	0	0	
8	0	0	0	0	508	508	0	0	
9	0	0	0	0	509	509	0	0	
10	0	0	0	0	512	505	0	0	
11	0	0	0	0	511	508	0	0	
12	0	0	0	0	511	508	0	0	
13	0	0	0	0	511	510	0	0	
14	0	0	0	0	511	508	0	0	
15	0	0	0	0	511	509	0	0	
0	0	0	0	0	512	508	0	0	
1	0	0	0	0	514	508	0	0	
2	0	0	0	0	513	506	0	0	
3	0	0	0	0	512	508	0	0	
4	0	0	0	0	510	508	0	0	
5	0	0	0	0	513	509	0	0	
6	0	0	0	0	510	506	0	0	
7	0	0	0	0	509	508	0	0	
8	0	0	0	0	510	507	0	0	
9	0	0	0	0	511	507	0	0	
10	0	0	0	0	511	506	0	0	
11	0	0	0	0	510	508	0	0	
12	0	0	0	0	509	508	0	0	
13	0	0	0	0	510	508	0	0	
14	0	0	0	0	511	509	0	0	
15	0	0	0	0	508	509	0	0	
0	0	0	0	0	510	508	0	0	
1	0	0	0	0	510	508	0	0	
2	0	0	0	0	512	508	0	0	
3	0	0	0	0	511	509	0	0	
4	0	0	0	0	511	508	0	0	
5	0	0	0	0	513	508	0	0	
6	0	0	0	0	513	508	0	0	
7	0	0	0	0	512	506	0	0	
8	0	0	0	0	511	508	0	0	
9	0	0	0	0	515	509	0	0	
10	0	0	0	0	510	508	0	0	
11	0	0	0	0	511	507	0	0	
12	0	0	0	0	511	507	0	0	
13	0	0	0	0	511	507	0	0	
14	0	0	0	0	510	508	0	0	
15	0	0	0	0	510	509	0	0	
0	0	0	0	0	510	509	0	0	
1	0	0	0	0	510	508	0	0	
2	0	0	0	0	510	509	0	0	
3	0	0	0	0	511	507	0	0	
4	0	0	0	0	510	507	0	0	
5	0	0	0	0	510	508	0	0	
6	0	0	0	0	511	509	0	0	
7	0	0	0	0	513	509	0	0	
8	0	0	0	0	512	510	0	0	
9	0	0	0	0	513	508	0	0	
10	0	0	0	0	512	507	0	0	
11	0	0	0	0	510	508	0	0	
12	0	0	0	0	513	507	0	0	
13	0	0	0	0	512	507	0	0	
14	0	0	0	0	511	507	0	0	
15	0	0	0	0	514	508	0	0	
0	0	0	0	0	511	508	0	0	
1	0	0	0	0	510	507	0	0	
2	0	0	0	0	511	509	0	0	
3	0	0	0	0	509	508	0	0	
4	0	0	0	0	510	507	0	0	
5	0	0	0	0	510	510	0	0	
6	0	0	0	0	510	509	0	0	
7	0	0	0	0	511	509	0	0	
8	0	0	0	0	511	507	0	0	
9	0	0	0	0	511	508	0	0	
10	0	0	0	0	511	508	0	0	
11	0	0	0	0	511	507	0	0	
12	0	0	0	0	512	508	0	0	
13	0	0	0	0	511	507	0	0	
14	0	0	0	0	512	509	0	0	
15	0	0	0	0	513	509	0	0	
0	0	0	0	0	512	509	0	0	
1	0	0	0	0	510	508	0	0	
2	0	0	0	0	511	508	0	0	
3	0	0	0	0	512	508	0	0	
4	0	0	0	0	512	509	0	0	
5	0	0	0	0	511	507	0	0	
6	0	0	0	0	511	509	0	0	
7	0	0	0	0	512	508	0	0	
8	0	0	0	0	509	508	0	0	
9	0	0	0	0	509	508	0	0	
10	0	0	0	0	510	508	0	0	
11	0	0	0	0	506	508	0	0	
12	0	0	0	0	508	509	0	0	
13	0	0	0	0	509	508	0	0	
14	0	0	0	0	512	510	0	0	
15	0	0	0	0	513	510	0	0	
0	0	0	0	0	511	508	0	0	
1	0	0	0	0	514	509	0	0	
2	0	0	0	0	513	508	0	0	
3	0	0	0	0	515	505	0	0	
4	0	0	0	0	513	509	0	0	
5	0	0	0	0	514	507	0	0	
6	0	0	0	0	510	509	0	0	
7	0	0	0	0	511	508	0	0	
8	0	0	0	0	510	508	0	0	
9	0	0	0	0	510	508	0	0	
10	0	0	0	0	509	507	0	0	
11	0	0	0	0	508	505	0	0	
12	0	0	0	0	510	509	0	0	
13	0	0	0	0	512	508	0	0	
14	0	0	0	0	510	507	0	0	
15	0	0	0	0	510	508	0	0	
0	0	0	0	0	509	509	0	0	
1	0	0	0	0	511	508	0	0	
2	0	0	0	0	511	507	0	0	
3	0	0	0	0	511	508	0	0	
4	0	0	0	0	511	507	0	0	
5	0	0	0	0	511	509	0	0	
6	0	0	0	0	512	509	0	0	
7	0	0	0	0	512	508	0	0	
8	0	0	0	0	512	507	0	0	
9	0	0	0	0	511	508	0	0	
10	0	0	0	0	510	506	0	0	
11	0	0	0	0	513	507	0	0	
12	0	0	0	0	511	510	0	0	
13	0	0	0	0	508	506	0	0	
14	0	0	0	0	510	506	0	0	
15	0	0	0	0	509	506	0	0	
0	0	0	0	0	511	509	0	0	
1	0	0	0	0	511	510	0	0	
2	0	0	0	0	511	509	0	0	
3	0	0	0	0	509	507	0	0	
4	0	0	0	0	511	507	0	0	
5	0	0	0	0	511	509	0	0	
6	0	0	0	0	512	508	0	0	
7	0	0	0	0	512	508	0	0	
8	0	0	0	0	510	507	0	0	
9	0	0	0	0	511	508	0	0	
10	0	0	0	0	513	507	0	0	
11	0	0	0	0	512	507	0	0	
12	0	0	0	0	512	508	0	0	
13	0	0	0	0	512	508	0	0	
14	0	0	0	0	511	508	0	0	
15	0	0	0	0	511	508	0	0	
0	0	0	0	0	510	508	0	0	
1	0	0	0	0	511	508	0	0	
2	0	0	0	0	509	506	0	0	
3	0	0	0	0	511	506	0	0	
4	0	0	0	0	510	508	0	0	
5	0	0	0	0	508	508	0	0	
6	0	0	0	0	508	510	0	0	
7	0	0	0	0	511	511	0	0	
8	0	0	0	0	512	510	0	0	
9	0	0	0	0	513	508	0	0	
10	0	0	0	0	511	508	0	0	
11	0	0	0	0	512	509	0	0	
12	0	0	0	0	511	508	0	0	
13	0	0	0	0	514	507	0	0	
14	0	0	0	0	515	508	0	0	
15	0	0	0	0	513	508	0	0	
0	0	0	0	0	512	509	0	0	
1	0	0	0	0	510	508	0	0	
2	0	0	0	0	512	505	0	0	
3	0	0	0	0	510	506	0	0	
4	0	0	0	0	511	508	0	0	
5	0	0	0	0	510	509	0	0	
6	0	0	0	0	510	508	0	0	
7	0	0	0	0	510	508	0	0	
8	0	0	0	0	508	509	0	0	
9	0	0	0	0	507	510	0	0	
10	0	0	0	0	511	508	0	0	
11	0	0	0	0	510	507	0	0	
12	0	0	0	0	510	507	0	0	
13	0	0	0	0	511	509	0	0	
14	0	0	0	0	513	510	0	0	
15	0	0	0	0	513	508	0	0	
0	0	0	0	0	513	508	0	0	
1	0	0	0	0	512	508	0	0	
2	0	0	0	0	511	507	0	0	
3	0	0	0	0	511	508	0	0	
4	0	0	0	0	512	508	0	0	
5	0	0	0	0	515	507	0	0	
6	0	0	0	0	511	510	0	0	
7	0	0	0	0	511	507	0	0	
8	0	0	0	0	510	507	0	0	
9	0	0	0	0	509	508	0	0	
10	0	0	0	0	508	507	0	0	
11	0	0	0	0	510	508	0	0	
12	0	0	0	0	510	506	0	0	
13	0	0	0	0	511	509	0	0	
14	0	0	0	0	509	507	0	0	
15	0	0	0	0	509	508	0	0	
0	0	0	0	0	511	508	0	0	
1	0	0	0	0	509	509	0	0	
2	0	0	0	0	511	508	0	0	
3	0	0	0	0	513	511	0	0	
4	0	0	0	0	512	509	0	0	
5	0	0	0	0	513	508	0	0	
6	0	0	0	0	514	507	0	0	
7	0	0	0	0	513	507	0	0	
8	0	0	0	0	511	505	0	0	
9	0	0	0	0	511	506	0	0	
10	0	0	0	0	512	510	0	0	
11	0	0	0	0	511	508	0	0	
12	0	0	0	0	512	509	0	0	
13	0	0	0	0	510	507	0	0	
14	0	0	0	0	510	508	0	0	
15	0	0	0	0	511	507	0	0	
0	0	0	0	0	510	508	0	0	
1	0	0	0	0	507	508	0	0	
2	0	0	0	0	509	507	0	0	
3	0	0	0	0	510	509	0	0	
4	0	0	0	0	509	508	0	0	
5	0	0	0	0	512	508	0	0	
6	0	0	0	0	511	509	0	0	
7	0	0	0	0	512	509	0	0	
8	0	0	0	0	513	507	0	0	
9	0	0	0	0	513	509	0	0	
10	0	0	0	0	513	509	0	0	
11	0	0	0	0	513	509	0	0	
12	0	0	0	0	513	508	0	0	
13	0	0	0	0	512	507	0	0	
14	0	0	0	0	510	509	0	0	
15	0	0	0	0	510	507	0	0	
0	0	0	0	0	510	507	0	0	
1	0	0	0	0	511	507	0	0	
2	0	0	0	0	508	508	0	0	
3	0	0	0	0	508	507	0	0	
4	0	0	0	0	511	505	0	0	
5	0	0	0	0	509	507	0	0	
6	0	0	0	0	511	508	0	0	
7	0	0	0	0	510	509	0	0	
8	0	0	0	0	509	510	0	0	
9	0	0	0	0	512	507	0	0	
10	0	0	0	0	511	508	0	0	
11	0	0	0	0	512	508	0	0	
12	0	0	0	0	513	508	0	0	
13	0	0	0	0	512	510	0	0	
14	0	0	0	0	515	509	0	0	
15	0	0	0	0	515	508	0	0	
0	0	0	0	0	512	508	0	0	
1	0	0	0	0	512	509	0	0	
2	0	0	0	0	513	509	0	0	
3	0	0	0	0	512	507	0	0	
4	0	0	0	0	510	509	0	0	
5	0	0	0	0	509	508	0	0	
6	0	0	0	0	509	508	0	0	
7	0	0	0	0	505	505	0	0	
8	0	0	0	0	508	507	0	0	
9	0	0	0	0	509	508	0	0	
10	0	0	0	0	510	508	0	0	
11	0	0	0	0	509	508	0	0	
12	0	0	0	0	509	511	0	0	
13	0	0	0	0	511	508	0	0	
14	0	0	0	0	511	509	0	0	
15	0	0	0	0	511	508	0	0	
0	0	0	0	0	513	508	0	0	
1	0	0	0	0	515	508	0	0	
2	0	0	0	0	515	507	0	0	
3	0	0	0	0	513	508	0	0	
4	0	0	0	0	513	509	0	0	
5	0	0	0	0	511	507	0	0	
6	0	0	0	0	512	508	0	0	
7	0	0	0	0	511	507	0	0	
8	0	0	0	0	510	507	0	0	
9	0	0	0	0	510	507	0	0	
10	0	0	0	0	510	508	0	0	
11	0	0	0	0	510	507	0	0	
12	0	0	0	0	510	508	0	0	
13	0	0	0	0	510	508	0	0	
14	0	0	0	0	512	509	0	0	
15	0	0	0	0	510	510	0	0	
0	0	0	0	0	510	508	0	0	
1	0	0	0	0	510	508	0	0	
2	0	0	0	0	511	508	0	0	
3	0	0	0	0	514	510	0	0	
4	0	0	0	0	514	509	0	0	
5	0	0	0	0	514	507	0	0	
6	0	0	0	0	513	507	0	0	
7	0	0	0	0	511	508	0	0	
8	0	0	0	0	511	508	0	0	
9	0	0	0	0	511	509	0	0	
10	0	0	0	0	511	508	0	0	
11	0	0	0	0	510	507	0	0	
12	0	0	0	0	510	508	0	0	
13	0	0	0	0	510	508	0	0	
14	0	0	0	0	509	507	0	0	
15	0	0	0	0	510	508	0	0	
0	0	0	0	0	510	509	0	0	
1	0	0	0	0	510	508	0	0	
2	0	0	0	0	508	508	0	0	
3	0	0	0	0	508	508	0	0	
4	0	0	0	0	513	508	0	0	
5	0	0	0	0	512	509	0	0	
6	0	0	0	0	512	508	0	0	
7	0	0	0	0	512	507	0	0	
8	0	0	0	0	509	508	0	0	
9	0	0	0	0	509	507	0	0	
10	0	0	0	0	511	508	0	0	
11	0	0	0	0	512	506	0	0	
12	0	0	0	0	512	510	0	0	
13	0	0	0	0	513	509	0	0	
14	0	0	0	0	511	507	0	0	
15	0	0	0	0	512	507	0	0	
0	0	0	0	0	512	508	0	0	
1	0	0	0	0	511	507	0	0	
2	0	0	0	0	509	507	0	0	
3	0	0	0	0	509	509	0	0	
4	0	0	0	0	510	507	0	0	
5	0	0	0	0	511	506	0	0	
6	0	0	0	0	511	509	0	0	
7	0	0	0	0	511	507	0	0	
8	0	0	0	0	508	509	0	0	
9	0	0	0	0	512	508	0	0	
10	0	0	0	0	512	507	0	0	
11	0	0	0	0	513	508	0	0	
12	0	0	0	0	513	508	0	0	
13	0	0	0	0	512	509	0	0	
14	0	0	0	0	512	509	0	0	
15	0	0	0	0	512	509	0	0	
0	0	0	0	0	512	510	0	0	
1	0	0	0	0	509	507	0	0	
2	0	0	0	0	512	508	0	0	
3	0	0	0	0	513	509	0	0	
4	0	0	0	0	510	508	0	0	
5	0	0	0	0	512	508	0	0	
6	0	0	0	0	509	506	0	0	
7	0	0	0	0	509	507	0	0	
8	0	0	0	0	509	508	0	0	
9	0	0	0	0	509	508	0	0	
10	0	0	0	0	509	508	0	0	
11	0	0	0	0	511	507	0	0	
12	0	0	0	0	510	507	0	0	
13	0	0	0	0	511	506	0	0	
14	0	0	0	0	510	508	0	0	
15	0	0	0	0	512	508	0	0	
0	0	0	0	0	512	508	0	0	
1	0	0	0	0	513	510	0	0	
2	0	0	0	0	513	509	0	0	
3	0	0	0	0	511	508	0	0	
4	0	0	0	0	512	509	0	0	
5	0	0	0	0	512	509	0	0	
6	0	0	0	0	514	508	0	0	
7	0	0	0	0	511	508	0	0	
8	0	0	0	0	510	507	0	0	
9	0	0	0	0	510	508	0	0	
10	0	0	0	0	509	508	0	0	
11	0	0	0	0	510	507	0	0	
12	0	0	0	0	511	505	0	0	
13	0	0	0	0	509	508	0	0	
14	0	0	0	0	509	510	0	0	
15	0	0	0	0	511	507	0	0	
0	0	0	0	0	510	508	0	0	
1	0	0	0	0	511	507	0	0	
2	0	0	0	0	514	508	0	0	
3	0	0	0	0	513	511	0	0	
4	0	0	0	0	512	510	0	0	
5	0	0	0	0	514	508	0	0	
6	0	0	0	0	511	508	0	0	
7	0	0	0	0	514	507	0	0	
8	0	0	0	0	512	511	0	0	
9	0	0	0	0	510	509	0	0	
10	0	0	0	0	508	508	0	0	
11	0	0	0	0	512	505	0	0	
12	0	0	0	0	510	506	0	0	
13	0	0	0	0	511	508	0	0	
14	0	0	0	0	511	506	0	0	
15	0	0	0	0	512	507	0	0	
0	0	0	0	0	509	508	0	0	
1	0	0	0	0	507	508	0	0	
2	0	0	0	0	510	509	0	0	
3	0	0	0	0	509	510	0	0	
4	0	0	0	0	510	508	0	0	
5	0	0	0	0	510	510	0	0	
6	0	0	0	0	510	509	0	0	
7	0	0	0	0	512	508	0	0	
8	0	0	0	0	513	507	0	0	
9	0	0	0	0	513	508	0	0	
10	0	0	0	0	513	508	0	0	
11	0	0	0	0	512	507	0	0	
12	0	0	0	0	511	511	0	0	
13	0	0	0	0	511	507	0	0	
14	0	0	0	0	512	507	0	0	
15	0	0	0	0	512	506	0	0	
0	0	0	0	0	510	506	0	0	
1	0	0	0	0	511	508	0	0	
2	0	0	0	0	508	508	0	0	
3	0	0	0	0	511	509	0	0	
4	0	0	0	0	509	508	0	0	
5	0	0	0	0	509	508	0	0	
6	0	0	0	0	509	510	0	0	
7	0	0	0	0	510	507	0	0	
8	0	0	0	0	512	509	0	0	
9	0	0	0	0	511	508	0	0	
10	0	0	0	0	511	508	0	0	
11	0	0	0	0	511	509	0	0	
12	0	0	0	0	513	508	0	0	
13	0	0	0	0	514	507	0	0	
14	0	0	0	0	511	508	0	0	
15	0	0	0	0	514	508	0	0	
0	0	0	0	0	510	509	0	0	
1	0	0	0	0	513	509	0	0	
2	0	0	0	0	512	507	0	0	
3	0	0	0	0	512	508	0	0	
4	0	0	0	0	509	505	0	0	
5	0	0	0	0	511	508	0	0	
6	0	0	0	0	511	508	0	0	
7	0	0	0	0	510	509	0	0	
8	0	0	0	0	511	509	0	0	
9	0	0	0	0	511	507	0	0	
10	0	0	0	0	509	508	0	0	
11	0	0	0	0	509	509	0	0	
12	0	0	0	0	508	508	0	0	
13	0	0	0	0	511	508	0	0	
14	0	0	0	0	511	508	0	0	
15	0	0	0	0	511	508	0	0	
0	0	0	0	0	513	508	0	0	
1	0	0	0	0	514	510	0	0	
2	0	0	0	0	512	510	0	0	
3	0	0	0	0	512	511	0	0	
4	0	0	0	0	513	507	0	0	
5	0	0	0	0	511	506	0	0	
6	0	0	0	0	512	508	0	0	
7	0	0	0	0	512	507	0	0	
8	0	0	0	0	510	507	0	0	
9	0	0	0	0	511	507	0	0	
10	0	0	0	0	510	506	0	0	
11	0	0	0	0	510	508	0	0	
12	0	0	0	0	508	508	0	0	
13	0	0	0	0	509	508	0	0	
14	0	0	0	0	509	508	0	0	
15	0	0	0	0	508	509	0	0	
0	0	0	0	0	510	509	0	0	
1	0	0	0	0	510	509	0	0	
2	0	0	0	0	512	509	0	0	
3	0	0	0	0	513	507	0	0	
4	0	0	0	0	512	506	0	0	
5	0	0	0	0	514	509	0	0	
6	0	0	0	0	513	509	0	0	
7	0	0	0	0	511	507	0	0	
8	0	0	0	0	513	507	0	0	
9	0	0	0	0	512	508	0	0	
10	0	0	0	0	511	508	0	0	
11	0	0	0	0	512	508	0	0	
12	0	0	0	0	512	508	0	0	
13	0	0	0	0	511	506	0	0	
14	0	0	0	0	512	508	0	0	
15	0	0	0	0	508	508	0	0	
0	0	0	0	0	509	509	0	0	
1	0	0	0	0	508	508	0	0	
2	0	0	0	0	509	507	0	0	
3	0	0	0	0	509	509	0	0	
4	0	0	0	0	511	508	0	0	
5	0	0	0	0	512	509	0	0	
6	0	0	0	0	511	509	0	0	
7	0	0	0	0	511	510	0	0	
8	0	0	0	0	513	509	0	0	
9	0	0	0	0	511	508	0	0	
10	0	0	0	0	511	508	0	0	
11	0	0	0	0	509	510	0	0	
12	0	0	0	0	513	509	0	0	
13	0	0	0	0	513	507	0	0	
14	0	0	0	0	512	507	0	0	
15	0	0	0	0	510	507	0	0	
0	0	0	0	0	511	507	0	0	
1	0	0	0	0	510	508	0	0	
2	0	0	0	0	511	507	0	0	
3	0	0	0	0	509	509	0	0	
4	0	0	0	0	509	507	0	0	
5	0	0	0	0	511	508	0	0	
6	0	0	0	0	511	508	0	0	
7	0	0	0	0	509	508	0	0	
8	0	0	0	0	511	510	0	0	
9	0	0	0	0	510	508	0	0	
10	0	0	0	0	512	508	0	0	
11	0	0	0	0	510	509	0	0	
12	0	0	0	0	513	508	0	0	
13	0	0	0	0	512	509	0	0	
14	0	0	0	0	513	508	0	0	
15	0	0	0	0	513	508	0	0	
0	0	0	0	0	512	508	0	0	
1	0	0	0	0	512	508	0	0	
2	0	0	0	0	512	508	0	0	
3	0	0	0	0	513	508	0	0	
4	0	0	0	0	513	509	0	0	
5	0	0	0	0	512	506	0	0	
6	0	0	0	0	511	507	0	0	
7	0	0	0	0	510	506	0	0	
8	0	0	0	0	511	507	0	0	
9	0	0	0	0	507	509	0	0	
10	0	0	0	0	509	508	0	0	
11	0	0	0	0	506	510	0	0	
12	0	0	0	0	509	508	0	0	
13	0	0	0	0	511	508	0	0	
14	0	0	0	0	511	508	0	0	
15	0	0	0	0	512	510	0	0	
0	0	0	0	0	512	508	0	0	
1	0	0	0	0	512	509	0	0	
2	0	0	0	0	512	508	0	0	
3	0	0	0	0	513	507	0	0	
4	0	0	0	0	515	506	0	0	
5	0	0	0	0	512	508	0	0	
6	0	0	0	0	512	509	0	0	
7	0	0	0	0	511	509	0	0	
8	0	0	0	0	511	507	0	0	
9	0	0	0	0	512	510	0	0	
10	0	0	0	0	509	508	0	0	
11	0	0	0	0	507	507	0	0	
12	0	0	0	0	508	508	0	0	
13	0	0	0	0	509	507	0	0	
14	0	0	0	0	509	508	0	0	
15	0	0	0	0	512	508	0	0	
0	0	0	0	0	512	508	0	0	
1	0	0	0	0	508	508	0	0	
2	0	0	0	0	513	506	0	0	
3	0	0	0	0	510	507	0	0	
4	0	0	0	0	512	508	0	0	
5	0	0	0	0	516	510	0	0	
6	0	0	0	0	513	511	0	0	
7	0	0	0	0	514	510	0	0	
8	0	0	0	0	513	508	0	0	
9	0	0	0	0	514	508	0	0	
10	0	0	0	0	513	504	0	0	
11	0	0	0	0	513	508	0	0	
12	0	0	0	0	511	509	0	0	
13	0	0	0	0	510	509	0	0	
14	0	0	0	0	509	507	0	0	
15	0	0	0	0	508	507	0	0	
0	0	0	0	0	511	508	0	0	
1	0	0	0	0	510	508	0	0	
2	0	0	0	0	512	508	0	0	
3	0	0	0	0	510	508	0	0	
4	0	0	0	0	510	508	0	0	
5	0	0	0	0	510	508	0	0	
6	0	0	0	0	511	507	0	0	
7	0	0	0	0	512	508	0	0	
8	0	0	0	0	513	508	0	0	
9	0	0	0	0	511	508	0	0	
10	0	0	0	0	510	509	0	0	
11	0	0	0	0	511	508	0	0	
12	0	0	0	0	512	507	0	0	
13	0	0	0	0	513	507	0	0	
14	0	0	0	0	511	507	0	0	
15	0	0	0	0	511	508	0	0	
0	0	0	0	0	511	508	0	0	
1	0	0	0	0	511	505	0	0	
2	0	0	0	0	510	507	0	0	
3	0	0	0	0	507	506	0	0	
4	0	0	0	0	510	510	0	0	
5	0	0	0	0	509	508	0	0	
6	0	0	0	0	509	509	0	0	
7	0	0	0	0	512	506	0	0	
8	0	0	0	0	509	508	0	0	
9	0	0	0	0	511	508	0	0	
10	0	0	0	0	511	509	0	0	
11	0	0	0	0	511	512	0	0	
12	0	0	0	0	509	507	0	0	
13	0	0	0	0	512	509	0	0	
14	0	0	0	0	511	510	0	0	
15	0	0	0	0	511	508	0	0	
0	0	0	0	0	510	507	0	0	
1	0	0	0	0	512	506	0	0	
2	0	0	0	0	511	508	0	0	
3	0	0	0	0	512	507	0	0	
4	0	0	0	0	513	509	0	0	
5	0	0	0	0	510	507	0	0	
6	0	0	0	0	510	508	0	0	
7	0	0	0	0	509	507	0	0	
8	0	0	0	0	510	509	0	0	
9	0	0	0	0	511	507	0	0	
10	0	0	0	0	511	509	0	0	
11	0	0	0	0	512	507	0	0	
12	0	0	0	0	510	508	0	0	
13	0	0	0	0	512	508	0	0	
14	0	0	0	0	513	508	0	0	
15	0	0	0	0	513	509	0	0	
0	0	0	0	0	512	509	0	0	
1	0	0	0	0	511	509	0	0	
2	0	0	0	0	511	506	0	0	
3	0	0	0	0	511	507	0	0	
4	0	0	0	0	511	507	0	0	
5	0	0	0	0	512	508	0	0	
6	0	0	0	0	510	508	0	0	
7	0	0	0	0	509	511	0	0	
8	0	0	0	0	511	507	0	0	
9	0	0	0	0	509	507	0	0	
10	0	0	0	0	510	509	0	0	
11	0	0	0	0	510	510	0	0	
12	0	0	0	0	510	508	0	0	
13	0	0	0	0	510	508	0	0	
14	0	0	0	0	511	508	0	0	
15	0	0	0	0	511	508	0	0	
0	0	0	0	0	510	507	0	0	
1	0	0	0	0	510	508	0	0	
2	0	0	0	0	512	508	0	0	
3	0	0	0	0	513	508	0	0	
4	0	0	0	0	511	509	0	0	
5	0	0	0	0	513	509	0	0	
6	0	0	0	0	512	508	0	0	
7	0	0	0	0	511	507	0	0	
8	0	0	0	0	513	507	0	0	
9	0	0	0	0	512	507	0	0	
10	0	0	0	0	510	506	0	0	
11	0	0	0	0	508	507	0	0	
12	0	0	0	0	508	507	0	0	
13	0	0	0	0	511	507	0	0	
14	0	0	0	0	511	508	0	0	
15	0	0	0	0	508	508	0	0	
0	0	0	0	0	511	507	0	0	
1	0	0	0	0	512	510	0	0	
2	0	0	0	0	510	507	0	0	
3	0	0	0	0	509	508	0	0	
4	0	0	0	0	510	508	0	0	
5	0	0	0	0	509	509	0	0	
6	0	0	0	0	513	508	0	0	
7	0	0	0	0	510	508	0	0	
8	0	0	0	0	512	508	0	0	
9	0	0	0	0	513	507	0	0	
10	0	0	0	0	511	508	0	0	
11	0	0	0	0	514	507	0	0	
12	0	0	0	0	512	510	0	0	
13	0	0	0	0	514	509	0	0	
14	0	0	0	0	511	506	0	0	
15	0	0	0	0	512	506	0	0	
0	0	0	0	0	512	506	0	0	
1	0	0	0	0	511	507	0	0	
2	0	0	0	0	511	507	0	0	
3	0	0	0	0	508	508	0	0	
4	0	0	0	0	508	508	0	0	
5	0	0	0	0	511	508	0	0	
6	0	0	0	0	511	509	0	0	
7	0	0	0	0	509	510	0	0	
8	0	0	0	0	509	508	0	0	
9	0	0	0	0	511	509	0	0	
10	0	0	0	0	508	508	0	0	
11	0	0	0	0	511	510	0	0	
12	0	0	0	0	510	509	0	0	
13	0	0	0	0	512	507	0	0	
14	0	0	0	0	511	507	0	0	
15	0	0	0	0	511	508	0	0	
0	0	0	0	0	511	507	0	0	
1	0	0	0	0	514	507	0	0	
2	0	0	0	0	514	508	0	0	
3	0	0	0	0	512	509	0	0	
4	0	0	0	0	511	509	0	0	
5	0	0	0	0	511	508	0	0	
6	0	0	0	0	512	510	0	0	
7	0	0	0	0	511	507	0	0	
8	0	0	0	0	510	508	0	0	
9	0	0	0	0	508	508	0	0	
10	0	0	0	0	511	507	0	0	
11	0	0	0	0	511	507	0	0	
12	0	0	0	0	510	508	0	0	
13	0	0	0	0	511	509	0	0	
14	0	0	0	0	511	507	0	0	
15	0	0	0	0	515	507	0	0	
0	0	0	0	0	511	507	0	0	
1	0	0	0	0	511	508	0	0	
2	0	0	0	0	513	508	0	0	
3	0	0	0	0	512	508	0	0	
4	0	0	0	0	511	509	0	0	
5	0	0	0	0	509	509	0	0	
6	0	0	0	0	511	509	0	0	
7	0	0	0	0	511	508	0	0	
8	0	0	0	0	511	507	0	0	
9	0	0	0	0	511	507	0	0	
10	0	0	0	0	510	508	0	0	
11	0	0	0	0	510	509	0	0	
12	0	0	0	0	511	508	0	0	
13	0	0	0	0	510	508	0	0	
14	0	0	0	0	509	508	0	0	
15	0	0	0	0	508	508	0	0	
0	0	0	0	0	511	508	0	0	
1	0	0	0	0	512	510	0	0	
2	0	0	0	0	511	508	0	0	
3	0	0	0	0	511	508	0	0	
4	0	0	0	0	514	508	0	0	
5	0	0	0	0	513	509	0	0	
6	0	0	0	0	512	508	0	0	
7	0	0	0	0	511	507	0	0	
8	0	0	0	0	512	508	0	0	
9	0	0	0	0	512	510	0	0	
10	0	0	0	0	512	508	0	0	
11	0	0	0	0	513	506	0	0	
12	0	0	0	0	511	508	0	0	
13	0	0	0	0	511	508	0	0	
14	0	0	0	0	512	509	0	0	
15	0	0	0	0	508	507	0	0	
0	0	0	0	0	507	508	0	0	
1	0	0	0	0	508	508	0	0	
2	0	0	0	0	508	507	0	0	
3	0	0	0	0	510	507	0	0	
4	0	0	0	0	511	508	0	0	
5	0	0	0	0	512	511	0	0	
6	0	0	0	0	512	507	0	0	
7	0	0	0	0	513	508	0	0	
8	0	0	0	0	512	509	0	0	
9	0	0	0	0	511	507	0	0	
10	0	0	0	0	513	508	0	0	
11	0	0	0	0	513	507	0	0	
12	0	0	0	0	508	510	0	0	
13	0	0	0	0	511	507	0	0	
14	0	0	0	0	510	507	0	0	
15	0	0	0	0	512	508	0	0	
0	0	0	0	0	511	508	0	0	
1	0	0	0	0	509	507	0	0	
2	0	0	0	0	509	508	0	0	
3	0	0	0	0	509	508	0	0	
4	0	0	0	0	511	509	0	0	
5	0	0	0	0	511	508	0	0	
6	0	0	0	0	510	508	0	0	
7	0	0	0	0	511	510	0	0	
8	0	0	0	0	510	508	0	0	
9	0	0	0	0	511	507	0	0	
10	0	0	0	0	511	508	0	0	
11	0	0	0	0	512	508	0	0	
12	0	0	0	0	513	507	0	0	
13	0	0	0	0	513	509	0	0	
14	0	0	0	0	514	510	0	0	
15	0	0	0	0	513	509	0	0	
0	0	0	0	0	513	509	0	0	
1	0	0	0	0	511	508	0	0	
2	0	0	0	0	511	508	0	0	
3	0	0	0	0	511	507	0	0	
4	0	0	0	0	510	505	0	0	
5	0	0	0	0	511	508	0	0	
6	0	0	0	0	508	506	0	0	
7	0	0	0	0	509	508	0	0	
8	0	0	0	0	508	509	0	0	
9	0	0	0	0	512	508	0	0	
10	0	0	0	0	509	507	0	0	
11	0	0	0	0	511	507	0	0	
12	0	0	0	0	510	508	0	0	
13	0	0	0	0	511	508	0	0	
14	0	0	0	0	511	507	0	0	
15	0	0	0	0	513	509	0	0	
0	0	0	0	0	512	508	0	0	
1	0	0	0	0	512	508	0	0	
2	0	0	0	0	512	507	0	0	
3	0	0	0	0	512	508	0	0	
4	0	0	0	0	511	507	0	0	
5	0	0	0	0	513	507	0	0	
6	0	0	0	0	513	510	0	0	
7	0	0	0	0	512	508	0	0	
8	0	0	0	0	511	509	0	0	
9	0	0	0	0	508	508	0	0	
10	0	0	0	0	510	507	0	0	
11	0	0	0	0	508	506	0	0	
12	0	0	0	0	507	508	0	0	
13	0	0	0	0	509	508	0	0	
14	0	0	0	0	510	509	0	0	
15	0	0	0	0	510	507	0	0	
0	0	0	0	0	510	512	0	0	
1	0	0	0	0	511	510	0	0	
2	0	0	0	0	512	508	0	0	
3	0	0	0	0	513	509	0	0	
4	0	0	0	0	513	509	0	0	
5	0	0	0	0	515	507	0	0	
6	0	0	0	0	512	507	0	0	
7	0	0	0	0	511	506	0	0	
8	0	0	0	0	514	510	0	0	
9	0	0	0	0	512	509	0	0	
10	0	0	0	0	512	508	0	0	
11	0	0	0	0	513	507	0	0	
12	0	0	0	0	514	507	0	0	
13	0	0	0	0	511	508	0	0	
14	0	0	0	0	508	506	0	0	
15	0	0	0	0	508	506	0	0	
0	0	0	0	0	511	508	0	0	
1	0	0	0	0	509	506	0	0	
2	0	0	0	0	508	507	0	0	
3	0	0	0	0	510	509	0	0	
4	0	0	0	0	511	509	0	0	
5	0	0	0	0	511	510	0	0	
6	0	0	0	0	510	506	0	0	
7	0	0	0	0	513	510	0	0	
8	0	0	0	0	512	511	0	0	
9	0	0	0	0	511	509	0	0	
10	0	0	0	0	513	509	0	0	
11	0	0	0	0	513	508	0	0	
12	0	0	0	0	511	508	0	0	
13	0	0	0	0	513	508	0	0	
14	0	0	0	0	511	508	0	0	
15	0	0	0	0	511	508	0	0	
0	0	0	0	0	511	507	0	0	
1	0	0	0	0	511	508	0	0	
2	0	0	0	0	511	507	0	0	
3	0	0	0	0	511	508	0	0	
4	0	0	0	0	511	509	0	0	
5	0	0	0	0	511	508	0	0	
6	0	0	0	0	508	508	0	0	
7	0	0	0	0	510	508	0	0	
8	0	0	0	0	508	508	0	0	
9	0	0	0	0	512	510	0	0	
10	0	0	0	0	511	508	0	0	
11	0	0	0	0	511	508	0	0	
12	0	0	0	0	513	509	0	0	
13	0	0	0	0	511	508	0	0	
14	0	0	0	0	511	510	0	0	
15	0	0	0	0	513	508	0	0	
0	0	0	0	0	510	509	0	0	
1	0	0	0	0	512	509	0	0	
2	0	0	0	0	513	508	0	0	
3	0	0	0	0	511	505	0	0	
4	0	0	0	0	512	507	0	0	
5	0	0	0	0	512	508	0	0	
6	0	0	0	0	511	507	0	0	
7	0	0	0	0	510	507	0	0	
8	0	0	0	0	511	507	0	0	
9	0	0	0	0	510	508	0	0	
10	0	0	0	0	508	508	0	0	
11	0	0	0	0	509	507	0	0	
12	0	0	0	0	507	508	0	0	
13	0	0	0	0	512	510	0	0	
14	0	0	0	0	511	509	0	0	
15	0	0	0	0	511	508	0	0	
0	0	0	0	0	511	509	0	0	
1	0	0	0	0	511	510	0	0	
2	0	0	0	0	512	510	0	0	
3	0	0	0	0	513	508	0	0	
4	0	0	0	0	513	508	0	0	
5	0	0	0	0	513	508	0	0	
6	0	0	0	0	511	507	0	0	
7	0	0	0	0	511	509	0	0	
8	0	0	0	0	508	506	0	0	
9	0	0	0	0	512	508	0	0	
10	0	0	0	0	511	507	0	0	
11	0	0	0	0	512	508	0	0	
12	0	0	0	0	510	508	0	0	
13	0	0	0	0	510	505	0	0	
14	0	0	0	0	510	508	0	0	
15	0	0	0	0	511	509	0	0	
0	0	0	0	0	508	507	0	0	
1	0	0	0	0	510	509	0	0	
2	0	0	0	0	513	510	0	0	
3	0	0	0	0	511	507	0	0	
4	0	0	0	0	512	509	0	0	
5	0	0	0	0	514	508	0	0	
6	0	0	0	0	513	508	0	0	
7	0	0	0	0	514	507	0	0	
8	0	0	0	0	515	508	0	0	
9	0	0	0	0	512	508	0	0	
10	0	0	0	0	510	508	0	0	
11	0	0	0	0	510	507	0	0	
12	0	0	0	0	511	508	0	0	
13	0	0	0	0	510	508	0	0	
14	0	0	0	0	509	509	0	0	
15	0	0	0	0	510	510	0	0	
0	0	0	0	0	510	509	0	0	
1	0	0	0	0	510	506	0	0	
2	0	0	0	0	509	507	0	0	
3	0	0	0	0	509	509	0	0	
4	0	0	0	0	511	510	0	0	
5	0	0	0	0	510	508	0	0	
6	0	0	0	0	511	510	0	0	
7	0	0	0	0	512	508	0	0	
8	0	0	0	0	514	511	0	0	
9	0	0	0	0	512	506	0	0	
10	0	0	0	0	513	509	0	0	
11	0	0	0	0	511	506	0	0	
12	0	0	0	0	512	507	0	0	
13	0	0	0	0	512	507	0	0	
14	0	0	0	0	514	508	0	0	
15	0	0	0	0	512	509	0	0	
0	0	0	0	0	512	507	0	0	
1	0	0	0	0	509	506	0	0	
2	0	0	0	0	511	506	0	0	
3	0	0	0	0	509	506	0	0	
4	0	0	0	0	508	508	0	0	
5	0	0	0	0	509	508	0	0	
6	0	0	0	0	511	508	0	0	
7	0	0	0	0	508	510	0	0	
8	0	0	0	0	509	509	0	0	
9	0	0	0	0	508	508	0	0	
10	0	0	0	0	513	509	0	0	
11	0	0	0	0	512	508	0	0	
12	0	0	0	0	512	510	0	0	
13	0	0	0	0	514	507	0	0	
14	0	0	0	0	511	506	0	0	
15	0	0	0	0	511	508	0	0	
0	0	0	0	0	512	508	0	0	
1	0	0	0	0	511	507	0	0	
2	0	0	0	0	512	508	0	0	
3	0	0	0	0	511	507	0	0	
4	0	0	0	0	513	510	0	0	
5	0	0	0	0	512	507	0	0	
6	0	0	0	0	511	508	0	0	
7	0	0	0	0	511	508	0	0	
8	0	0	0	0	510	508	0	0	
9	0	0	0	0	509	505	0	0	
10	0	0	0	0	511	505	0	0	
11	0	0	0	0	510	509	0	0	
12	0	0	0	0	510	507	0	0	
13	0	0	0	0	511	508	0	0	
14	0	0	0	0	511	508	0	0	
15	0	0	0	0	511	508	0	0	
0	0	0	0	0	512	509	0	0	
1	0	0	0	0	511	509	0	0	
2	0	0	0	0	511	510	0	0	
3	0	0	0	0	512	509	0	0	
4	0	0	0	0	512	508	0	0	
5	0	0	0	0	511	508	0	0	
6	0	0	0	0	512	506	0	0	
7	0	0	0	0	512	508	0	0	
8	0	0	0	0	511	506	0	0	
9	0	0	0	0	508	508	0	0	
10	0	0	0	0	508	508	0	0	
11	0	0	0	0	510	507	0	0	
12	0	0	0	0	510	507	0	0	
13	0	0	0	0	510	508	0	0	
14	0	0	0	0	512	510	0	0	
15	0	0	0	0	512	508	0	0	
0	0	0	0	0	511	508	0	0	
1	0	0	0	0	511	509	0	0	
2	0	0	0	0	512	507	0	0	
3	0	0	0	0	512	507	0	0	
4	0	0	0	0	511	507	0	0	
5	0	0	0	0	514	509	0	0	
6	0	0	0	0	513	508	0	0	
7	0	0	0	0	513	509	0	0	
8	0	0	0	0	511	509	0	0	
9	0	0	0	0	512	509	0	0	
10	0	0	0	0	511	507	0	0	
11	0	0	0	0	509	508	0	0	
12	0	0	0	0	510	507	0	0	
13	0	0	0	0	511	508	0	0	
14	0	0	0	0	509	510	0	0	
15	0	0	0	0	509	508	0	0	
0	0	0	0	0	509	507	0	0	
1	0	0	0	0	508	507	0	0	
2	0	0	0	0	509	507	0	0	
3	0	0	0	0	511	508	0	0	
4	0	0	0	0	513	507	0	0	
5	0	0	0	0	510	508	0	0	
6	0	0	0	0	512	509	0	0	
7	0	0	0	0	513	509	0	0	
8	0	0	0	0	512	509	0	0	
9	0	0	0	0	512	508	0	0	
10	0	0	0	0	512	508	0	0	
11	0	0	0	0	513	508	0	0	
12	0	0	0	0	512	507	0	0	
13	0	0	0	0	511	508	0	0	
14	0	0	0	0	513	508	0	0	
15	0	0	0	0	512	507	0	0	
0	0	0	0	0	511	507	0	0	
1	0	0	0	0	510	509	0	0	
2	0	0	0	0	510	505	0	0	
3	0	0	0	0	510	508	0	0	
4	0	0	0	0	510	508	0	0	
5	0	0	0	0	511	508	0	0	
6	0	0	0	0	511	508	0	0	
7	0	0	0	0	510	507	0	0	
8	0	0	0	0	510	507	0	0	
9	0	0	0	0	509	509	0	0	
10	0	0	0	0	510	507	0	0	
11	0	0	0	0	512	509	0	0	
12	0	0	0	0	512	509	0	0	
13	0	0	0	0	512	511	0	0	
14	0	0	0	0	512	508	0	0	
15	0	0	0	0	511	506	0	0	
0	0	0	0	0	514	507	0	0	
1	0	0	0	0	511	509	0	0	
2	0	0	0	0	512	509	0	0	
3	0	0	0	0	514	506	0	0	
4	0	0	0	0	512	508	0	0	
5	0	0	0	0	510	507	0	0	
6	0	0	0	0	509	509	0	0	
7	0	0	0	0	511	506	0	0	
8	0	0	0	0	511	507	0	0	
9	0	0	0	0	506	508	0	0	
10	0	0	0	0	510	509	0	0	
11	0	0	0	0	512	510	0	0	
12	0	0	0	0	509	509	0	0	
13	0	0	0	0	512	511	0	0	
14	0	0	0	0	510	509	0	0	
15	0	0	0	0	511	507	0	0	
0	0	0	0	0	512	508	0	0	
1	0	0	0	0	514	509	0	0	
2	0	0	0	0	513	508	0	0	
3	0	0	0	0	515	508	0	0	
4	0	0	0	0	513	509	0	0	
5	0	0	0	0	512	509	0	0	
6	0	0	0	0	514	509	0	0	
7	0	0	0	0	511	507	0	0	
8	0	0	0	0	510	506	0	0	
9	0	0	0	0	512	508	0	0	
10	0	0	0	0	510	507	0	0	
11	0	0	0	0	510	507	0	0	
12	0	0	0	0	509	508	0	0	
13	0	0	0	0	508	509	0	0	
14	0	0	0	0	509	508	0	0	
15	0	0	0	0	509	508	0	0	
0	0	0	0	0	510	510	0	0	
1	0	0	0	0	510	506	0	0	
2	0	0	0	0	510	507	0	0	
3	0	0	0	0	511	508	0	0	
4	0	0	0	0	512	508	0	0	
5	0	0	0	0	511	509	0	0	
6	0	0	0	0	510	507	0	0	
7	0	0	0	0	513	508	0	0	
8	0	0	0	0	514	506	0	0	
9	0	0	0	0	512	508	0	0	
10	0	0	0	0	512	508	0	0	
11	0	0	0	0	510	508	0	0	
12	0	0	0	0	510	509	0	0	
13	0	0	0	0	511	507	0	0	
14	0	0	0	0	510	509	0	0	
15	0	0	0	0	508	507	0	0	
0	0	0	0	0	510	506	0	0	
1	0	0	0	0	511	507	0	0	
2	0	0	0	0	511	508	0	0	
3	0	0	0	0	510	508	0	0	
4	0	0	0	0	510	509	0	0	
5	0	0	0	0	511	507	0	0	
6	0	0	0	0	511	509	0	0	
7	0	0	0	0	510	508	0	0	
8	0	0	0	0	510	508	0	0	
9	0	0	0	0	512	508	0	0	
10	0	0	0	0	512	509	0	0	
11	0	0	0	0	511	509	0	0	
12	0	0	0	0	512	508	0	0	
13	0	0	0	0	513	508	0	0	
14	0	0	0	0	512	511	0	0	
15	0	0	0	0	515	508	0	0	
0	0	0	0	0	513	504	0	0	
1	0	0	0	0	512	506	0	0	
2	0	0	0	0	510	508	0	0	
3	0	0	0	0	509	506	0	0	
4	0	0	0	0	509	507	0	0	
5	0	0	0	0	510	506	0	0	
6	0	0	0	0	510	508	0	0	
7	0	0	0	0	509	510	0	0	
8	0	0	0	0	510	510	0	0	
9	0	0	0	0	510	507	0	0	
10	0	0	0	0	511	508	0	0	
11	0	0	0	0	511	510	0	0	
12	0	0	0	0	511	510	0	0	
13	0	0	0	0	514	510	0	0	
14	0	0	0	0	512	508	0	0	
15	0	0	0	0	512	508	0	0	
0	0	0	0	0	513	510	0	0	
1	0	0	0	0	513	508	0	0	
2	0	0	0	0	512	507	0	0	
3	0	0	0	0	511	505	0	0	
4	0	0	0	0	510	509	0	0	
5	0	0	0	0	508	507	0	0	
6	0	0	0	0	510	509	0	0	
7	0	0	0	0	508	508	0	0	
8	0	0	0	0	508	507	0	0	
9	0	0	0	0	511	507	0	0	
10	0	0	0	0	511	509	0	0	
11	0	0	0	0	513	508	0	0	
12	0	0	0	0	509	509	0	0	
13	0	0	0	0	510	508	0	0	
14	0	0	0	0	511	508	0	0	
15	0	0	0	0	514	509	0	0	
0	0	0	0	0	515	508	0	0	
1	0	0	0	0	512	508	0	0	
2	0	0	0	0	513	508	0	0	
3	0	0	0	0	513	508	0	0	
4	0	0	0	0	511	510	0	0	
5	0	0	0	0	512	509	0	0	
6	0	0	0	0	510	510	0	0	
7	0	0	0	0	512	507	0	0	
8	0	0	0	0	511	507	0	0	
9	0	0	0	0	510	507	0	0	
10	0	0	0	0	510	511	0	0	
11	0	0	0	0	511	507	0	0	
12	0	0	0	0	511	507	0	0	
13	0	0	0	0	509	506	0	0	
14	0	0	0	0	508	506	0	0	
15	0	0	0	0	507	509	0	0	
0	0	0	0	0	507	510	0	0	
1	0	0	0	0	510	508	0	0	
2	0	0	0	0	511	509	0	0	
3	0	0	0	0	513	508	0	0	
4	0	0	0	0	511	509	0	0	
5	0	0	0	0	511	507	0	0	
6	0	0	0	0	511	508	0	0	
7	0	0	0	0	512	508	0	0	
8	0	0	0	0	513	508	0	0	
9	0	0	0	0	510	507	0	0	
10	0	0	0	0	508	508	0	0	
11	0	0	0	0	512	509	0	0	
12	0	0	0	0	510	507	0	0	
13	0	0	0	0	513	505	0	0	
14	0	0	0	0	511	507	0	0	
15	0	0	0	0	511	509	0	0	
0	0	0	0	0	509	508	0	0	
1	0	0	0	0	509	508	0	0	
2	0	0	0	0	508	508	0	0	
3	0	0	0	0	511	508	0	0	
4	0	0	0	0	511	508	0	0	
5	0	0	0	0	514	508	0	0	
6	0	0	0	0	508	508	0	0	
7	0	0	0	0	512	509	0	0	
8	0	0	0	0	514	508	0	0	
9	0	0	0	0	512	508	0	0	
10	0	0	0	0	511	508	0	0	
11	0	0	0	0	512	508	0	0	
12	0	0	0	0	514	508	0	0	
13	0	0	0	0	511	509	0	0	
14	0	0	0	0	511	507	0	0	
15	0	0	0	0	511	508	0	0	
0	0	0	0	0	511	509	0	0	
1	0	0	0	0	511	507	0	0	
2	0	0	0	0	509	507	0	0	
3	0	0	0	0	510	505	0	0	
4	0	0	0	0	511	509	0	0	
5	0	0	0	0	509	509	0	0	
6	0	0	0	0	507	509	0	0	
7	0	0	0	0	510	506	0	0	
8	0	0	0	0	510	508	0	0	
9	0	0	0	0	509	507	0	0	
10	0	0	0	0	510	509	0	0	
11	0	0	0	0	510	510	0	0	
12	0	0	0	0	511	508	0	0	
13	0	0	0	0	512	509	0	0	
14	0	0	0	0	514	507	0	0	
15	0	0	0	0	513	507	0	0	
0	0	0	0	0	513	508	0	0	
1	0	0	0	0	513	508	0	0	
2	0	0	0	0	511	509	0	0	
3	0	0	0	0	512	507	0	0	
4	0	0	0	0	512	508	0	0	
5	0	0	0	0	512	507	0	0	
6	0	0	0	0	510	506	0	0	
7	0	0	0	0	510	508	0	0	
8	0	0	0	0	509	508	0	0	
9	0	0	0	0	508	507	0	0	
10	0	0	0	0	510	508	0	0	
11	0	0	0	0	511	508	0	0	
12	0	0	0	0	510	510	0	0	
13	0	0	0	0	511	507	0	0	
14	0	0	0	0	511	508	0	0	
15	0	0	0	0	510	508	0	0	
0	0	0	0	0	511	507	0	0	
1	0	0	0	0	512	508	0	0	
2	0	0	0	0	511	509	0	0	
3	0	0	0	0	511	511	0	0	
4	0	0	0	0	515	507	0	0	
5	0	0	0	0	514	508	0	0	
6	0	0	0	0	511	507	0	0	
7	0	0	0	0	510	509	0	0	
8	0	0	0	0	511	506	0	0	
9	0	0	0	0	511	507	0	0	
10	0	0	0	0	509	505	0	0	
11	0	0	0	0	512	507	0	0	
12	0	0	0	0	510	507	0	0	
13	0	0	0	0	510	508	0	0	
14	0	0	0	0	508	507	0	0	
15	0	0	0	0	509	508	0	0	
0	0	0	0	0	510	508	0	0	
1	0	0	0	0	512	509	0	0	
2	0	0	0	0	514	509	0	0	
3	0	0	0	0	511	508	0	0	
4	0	0	0	0	511	508	0	0	
5	0	0	0	0	513	511	0	0	
6	0	0	0	0	513	508	0	0	
7	0	0	0	0	513	509	0	0	
8	0	0	0	0	514	509	0	0	
9	0	0	0	0	513	509	0	0	
10	0	0	0	0	511	509	0	0	
11	0	0	0	0	511	507	0	0	
12	0	0	0	0	511	508	0	0	
13	0	0	0	0	511	507	0	0	
14	0	0	0	0	509	506	0	0	
15	0	0	0	0	512	506	0	0	
0	0	0	0	0	510	508	0	0	
1	0	0	0	0	508	508	0	0	
2	0	0	0	0	509	508	0	0	
3	0	0	0	0	510	508	0	0	
4	0	0	0	0	509	508	0	0	
5	0	0	0	0	511	508	0	0	
6	0	0	0	0	510	508	0	0	
7	0	0	0	0	511	508	0	0	
8	0	0	0	0	513	506	0	0	
9	0	0	0	0	512	510	0	0	
10	0	0	0	0	512	508	0	0	
11	0	0	0	0	513	508	0	0	
12	0	0	0	0	510	507	0	0	
13	0	0	0	0	511	509	0	0	
14	0	0	0	0	512	508	0	0	
15	0	0	0	0	509	508	0	0	
0	0	0	0	0	509	507	0	0	
1	0	0	0	0	509	507	0	0	
2	0	0	0	0	509	508	0	0	
3	0	0	0	0	511	507	0	0	
4	0	0	0	0	511	506	0	0	
5	0	0	0	0	512	508	0	0	
6	0	0	0	0	509	510	0	0	
7	0	0	0	0	510	510	0	0	
8	0	0	0	0	509	508	0	0	
9	0	0	0	0	511	507	0	0	
10	0	0	0	0	510	506	0	0	
11	0	0	0	0	511	508	0	0	
12	0	0	0	0	512	509	0	0	
13	0	0	0	0	514	511	0	0	
14	0	0	0	0	513	508	0	0	
15	0	0	0	0	513	508	0	0	
0	0	0	0	0	513	508	0	0	
1	0	0	0	0	511	510	0	0	
2	0	0	0	0	514	508	0	0	
3	0	0	0	0	513	507	0	0	
4	0	0	0	0	511	508	0	0	
5	0	0	0	0	511	508	0	0	
6	0	0	0	0	512	508	0	0	
7	0	0	0	0	509	508	0	0	
8	0	0	0	0	510	506	0	0	
9	0	0	0	0	511	506	0	0	
10	0	0	0	0	509	507	0	0	
11	0	0	0	0	508	508	0	0	
12	0	0	0	0	510	510	0	0	
13	0	0	0	0	509	509	0	0	
14	0	0	0	0	514	508	0	0	
15	0	0	0	0	511	510	0	0	
0	0	0	0	0	511	508	0	0	
1	0	0	0	0	511	510	0	0	
2	0	0	0	0	514	509	0	0	
3	0	0	0	0	511	509	0	0	
4	0	0	0	0	513	508	0	0	
5	0	0	0	0	513	509	0	0	
6	0	0	0	0	512	508	0	0	
7	0	0	0	0	511	506	0	0	
8	0	0	0	0	511	508	0	0	
9	0	0	0	0	509	508	0	0	
10	0	0	0	0	509	508	0	0	
11	0	0	0	0	511	508	0	0	
12	0	0	0	0	509	508	0	0	
13	0	0	0	0	511	508	0	0	
14	0	0	0	0	508	508	0	0	
15	0	0	0	0	509	507	0	0	
0	0	0	0	0	511	508	0	0	
1	0	0	0	0	511	508	0	0	
2	0	0	0	0	509	508	0	0	
3	0	0	0	0	513	508	0	0	
4	0	0	0	0	511	510	0	0	
5	0	0	0	0	512	508	0	0	
6	0	0	0	0	512	507	0	0	
7	0	0	0	0	513	507	0	0	
8	0	0	0	0	513	508	0	0	
9	0	0	0	0	512	509	0	0	
10	0	0	0	0	513	508	0	0	
11	0	0	0	0	511	507	0	0	
12	0	0	0	0	512	509	0	0	
13	0	0	0	0	510	507	0	0	
14	0	0	0	0	510	508	0	0	
15	0	0	0	0	510	508	0	0	
0	0	0	0	0	511	507	0	0	
1	0	0	0	0	510	507	0	0	
2	0	0	0	0	510	507	0	0	
3	0	0	0	0	511	507	0	0	
4	0	0	0	0	510	508	0	0	
5	0	0	0	0	511	509	0	0	
6	0	0	0	0	510	508	0	0	
7	0	0	0	0	511	508	0	0	
8	0	0	0	0	510	508	0	0	
9	0	0	0	0	512	509	0	0	
10	0	0	0	0	512	510	0	0	
11	0	0	0	0	514	507	0	0	
12	0	0	0	0	513	507	0	0	
13	0	0	0	0	512	507	0	0	
14	0	0	0	0	513	508	0	0	
15	0	0	0	0	511	507	0	0	
0	0	0	0	0	509	508	0	0	
1	0	0	0	0	510	508	0	0	
2	0	0	0	0	509	508	0	0	
3	0	0	0	0	509	510	0	0	
4	0	0	0	0	508	510	0	0	
5	0	0	0	0	510	509	0	0	
6	0	0	0	0	511	508	0	0	
7	0	0	0	0	509	509	0	0	
8	0	0	0	0	511	508	0	0	
9	0	0	0	0	509	509	0	0	
10	0	0	0	0	511	507	0	0	
11	0	0	0	0	512	507	0	0	
12	0	0	0	0	512	508	0	0	
13	0	0	0	0	515	510	0	0	
14	0	0	0	0	515	509	0	0	
15	0	0	0	0	512	506	0	0	
0	0	0	0	0	510	508	0	0	
1	0	0	0	0	511	507	0	0	
2	0	0	0	0	512	510	0	0	
3	0	0	0	0	512	508	0	0	
4	0	0	0	0	513	507	0	0	
5	0	0	0	0	509	506	0	0	
6	0	0	0	0	510	506	0	0	
7	0	0	0	0	510	508	0	0	
8	0	0	0	0	508	508	0	0	
9	0	0	0	0	509	507	0	0	
10	0	0	0	0	511	508	0	0	
11	0	0	0	0	511	508	0	0	
12	0	0	0	0	513	509	0	0	
13	0	0	0	0	510	508	0	0	
14	0	0	0	0	512	508	0	0	
15	0	0	0	0	512	509	0	0	
0	0	0	0	0	512	510	0	0	
1	0	0	0	0	511	508	0	0	
2	0	0	0	0	513	507	0	0	
3	0	0	0	0	512	508	0	0	
4	0	0	0	0	510	509	0	0	
5	0	0	0	0	513	507	0	0	
6	0	0	0	0	510	508	0	0	
7	0	0	0	0	511	508	0	0	
8	0	0	0	0	511	508	0	0	
9	0	0	0	0	508	508	0	0	
10	0	0	0	0	511	507	0	0	
11	0	0	0	0	510	507	0	0	
12	0	0	0	0	510	508	0	0	
13	0	0	0	0	510	509	0	0	
14	0	0	0	0	509	508	0	0	
15	0	0	0	0	510	508	0	0	
0	0	0	0	0	511	507	0	0	
1	0	0	0	0	511	508	0	0	
2	0	0	0	0	509	507	0	0	
3	0	0	0	0	513	509	0	0	
4	0	0	0	0	512	509	0	0	
5	0	0	0	0	510	508	0	0	
6	0	0	0	0	514	510	0	0	
7	0	0	0	0	516	508	0	0	
8	0	0	0	0	514	507	0	0	
9	0	0	0	0	512	507	0	0	
10	0	0	0	0	512	509	0	0	
11	0	0	0	0	511	509	0	0	
12	0	0	0	0	511	506	0	0	
13	0	0	0	0	513	508	0	0	
14	0	0	0	0	510	505	0	0	
15	0	0	0	0	509	505	0	0	
0	0	0	0	0	509	507	0	0	
1	0	0	0	0	508	509	0	0	
2	0	0	0	0	508	511	0	0	
3	0	0	0	0	511	507	0	0	
4	0	0	0	0	510	508	0	0	
5	0	0	0	0	509	508	0	0	
6	0	0	0	0	511	508	0	0	
7	0	0	0	0	511	508	0	0	
8	0	0	0	0	511	507	0	0	
9	0	0	0	0	512	509	0	0	
10	0	0	0	0	512	510	0	0	
11	0	0	0	0	512	507	0	0	
12	0	0	0	0	512	508	0	0	
13	0	0	0	0	511	508	0	0	
14	0	0	0	0	511	509	0	0	
15	0	0	0	0	512	508	0	0	
0	0	0	0	0	512	508	0	0	
1	0	0	0	0	511	508	0	0	
2	0	0	0	0	509	507	0	0	
3	0	0	0	0	510	507	0	0	
4	0	0	0	0	511	508	0	0	
5	0	0	0	0	509	509	0	0	
6	0	0	0	0	509	509	0	0	
7	0	0	0	0	509	508	0	0	
8	0	0	0	0	510	509	0	0	
9	0	0	0	0	511	507	0	0	
10	0	0	0	0	511	509	0	0	
11	0	0	0	0	513	507	0	0	
12	0	0	0	0	511	507	0	0	
13	0	0	0	0	513	508	0	0	
14	0	0	0	0	513	509	0	0	
15	0	0	0	0	512	507	0	0	
0	0	0	0	0	512	508	0	0	
1	0	0	0	0	512	509	0	0	
2	0	0	0	0	514	508	0	0	
3	0	0	0	0	513	507	0	0	
4	0	0	0	0	511	510	0	0	
5	0	0	0	0	511	507	0	0	
6	0	0	0	0	508	507	0	0	
7	0	0	0	0	509	507	0	0	
8	0	0	0	0	508	507	0	0	
9	0	0	0	0	511	505	0	0	
10	0	0	0	0	511	508	0	0	
11	0	0	0	0	508	507	0	0	
12	0	0	0	0	509	508	0	0	
13	0	0	0	0	510	508	0	0	
14	0	0	0	0	510	508	0	0	
15	0	0	0	0	511	508	0	0	
0	0	0	0	0	511	511	0	0	
1	0	0	0	0	511	508	0	0	
2	0	0	0	0	513	506	0	0	
3	0	0	0	0	514	508	0	0	
4	0	0	0	0	514	508	0	0	
5	0	0	0	0	515	508	0	0	
6	0	0	0	0	511	509	0	0	
7	0	0	0	0	511	510	0	0	
8	0	0	0	0	510	509	0	0	
9	0	0	0	0	510	507	0	0	
10	0	0	0	0	511	508	0	0	
11	0	0	0	0	509	508	0	0	
12	0	0	0	0	509	508	0	0	
13	0	0	0	0	512	508	0	0	
14	0	0	0	0	511	507	0	0	
15	0	0	0	0	510	509	0	0	
0	0	0	0	0	511	508	0	0	
1	0	0	0	0	510	509	0	0	
2	0	0	0	0	510	507	0	0	
3	0	0	0	0	510	506	0	0	
4	0	0	0	0	511	508	0	0	
5	0	0	0	0	508	508	0	0	
6	0	0	0	0	512	510	0	0	
7	0	0	0	0	513	508	0	0	
8	0	0	0	0	512	509	0	0	
9	0	0	0	0	512	509	0	0	
10	0	0	0	0	511	507	0	0	
11	0	0	0	0	512	506	0	0	
12	0	0	0	0	512	507	0	0	
13	0	0	0	0	513	508	0	0	
14	0	0	0	0	512	509	0	0	
15	0	0	0	0	510	509	0	0	
0	0	0	0	0	511	507	0	0	
1	0	0	0	0	510	507	0	0	
2	0	0	0	0	511	508	0	0	
3	0	0	0	0	510	508	0	0	
4	0	0	0	0	512	507	0	0	
5	0	0	0	0	510	507	0	0	
6	0	0	0	0	511	509	0	0	
7	0	0	0	0	508	509	0	0	
8	0	0	0	0	511	509	0	0	
9	0	0	0	0	512	509	0	0	
10	0	0	0	0	513	508	0	0	
11	0	0	0	0	511	509	0	0	
12	0	0	0	0	511	505	0	0	
13	0	0	0	0	511	508	0	0	
14	0	0	0	0	513	510	0	0	
15	0	0	0	0	513	508	0	0	
0	0	0	0	0	512	509	0	0	
1	0	0	0	0	515	507	0	0	
2	0	0	0	0	513	506	0	0	
3	0	0	0	0	507	505	0	0	
4	0	0	0	0	506	507	0	0	
5	0	0	0	0	505	509	0	0	
6	0	0	0	0	504	508	0	0	
7	0	0	0	0	509	507	0	0	
8	0	0	0	0	509	511	0	0	
9	0	0	0	0	511	508	0	0	
10	0	0	0	0	513	507	0	0	
11	0	0	0	0	515	508	0	0	
12	0	0	0	0	514	508	0	0	
13	0	0	0	0	516	507	0	0	
14	0	0	0	0	516	508	0	0	
15	0	0	0	0	512	510	0	0	
0	0	0	0	0	511	507	0	0	
1	0	0	0	0	510	508	0	0	
2	0	0	0	0	509	506	0	0	
3	0	0	0	0	508	511	0	0	
4	0	0	0	0	509	511	0	0	
5	0	0	0	0	511	508	0	0	
6	0	0	0	0	510	509	0	0	
7	0	0	0	0	509	508	0	0	
8	0	0	0	0	509	505	0	0	
9	0	0	0	0	511	509	0	0	
10	0	0	0	0	510	506	0	0	
11	0	0	0	0	511	508	0	0	
12	0	0	0	0	511	508	0	0	
13	0	0	0	0	513	508	0	0	
14	0	0	0	0	516	509	0	0	
15	0	0	0	0	512	506	0	0	
0	0	0	0	0	507	508	0	0	
1	0	0	0	0	506	508	0	0	
2	0	0	0	0	510	511	0	0	
3	0	0	0	0	517	510	0	0	
4	0	0	0	0	511	508	0	0	
5	0	0	0	0	510	507	0	0	
6	0	0	0	0	512	506	0	0	
7	0	0	0	0	519	507	0	0	
8	0	0	0	0	521	505	0	0	
9	0	0	0	0	511	509	0	0	
10	0	0	0	0	508	509	0	0	
11	0	0	0	0	506	507	0	0	
12	0	0	0	0	511	508	0	0	
13	0	0	0	0	512	507	0	0	
14	0	0	0	0	515	508	0	0	
15	0	0	0	0	516	509	0	0	
0	0	0	0	0	506	507	0	0	
1	0	0	0	0	506	508	0	0	
2	0	0	0	0	511	511	0	0	
3	0	0	0	0	503	507	0	0	
4	0	0	0	0	507	508	0	0	
5	0	0	0	0	512	508	0	0	
6	0	0	0	0	513	509	0	0	
7	0	0	0	0	511	507	0	0	
8	0	0	0	0	510	507	0	0	
9	0	0	0	0	507	509	0	0	
10	0	0	0	0	507	508	0	0	
11	0	0	0	0	503	508	0	0	
12	0	0	0	0	507	507	0	0	
13	0	0	0	0	514	508	0	0	
14	0	0	0	0	526	508	0	0	
15	0	0	0	0	519	509	0	0	
0	0	0	0	0	515	508	0	0	
1	0	0	0	0	510	508	0	0	
2	0	0	0	0	509	507	0	0	
3	0	0	0	0	511	507	0	0	
4	0	0	0	0	511	508	0	0	
5	0	0	0	0	505	508	0	0	
6	0	0	0	0	504	510	0	0	
7	0	0	0	0	510	509	0	0	
8	0	0	0	0	513	507	0	0	
9	0	0	0	0	513	509	0	0	
10	0	0	0	0	513	509	0	0	
11	0	0	0	0	512	510	0	0	
12	0	0	0	0	510	508	0	0	
13	0	0	0	0	511	505	0	0	
14	0	0	0	0	512	507	0	0	
15	0	0	0	0	511	507	0	0	
0	0	0	0	0	508	507	0	0	
1	0	0	0	0	516	508	0	0	
2	0	0	0	0	508	507	0	0	
3	0	0	0	0	507	508	0	0	
4	0	0	0	0	511	509	1	0	
5	0	0	0	0	511	508	2	0	
6	0	0	0	0	511	508	3	0	
7	0	0	0	0	512	508	3	0	
8	0	0	0	0	511	507	4	0	
9	0	0	0	0	512	508	4	0	
10	0	0	0	0	512	509	5	0	
11	0	0	0	0	511	509	6	0	
12	0	0	0	0	508	509	6	0	
13	0	0	0	0	509	508	7	0	
14	0	0	0	0	513	509	7	0	
15	0	0	0	0	513	508	7	0	
0	0	0	0	0	514	511	8	0	
1	0	0	0	0	512	508	14	0	
2	0	0	0	0	512	506	16	0	
3	0	0	0	0	513	507	15	0	
4	0	0	0	0	512	507	15	0	
5	0	0	0	0	514	508	15	0	
6	0	0	0	0	512	507	14	0	
7	0	0	0	0	509	510	16	0	
8	0	0	0	0	505	509	16	0	
9	0	0	0	0	501	508	17	0	
10	0	0	0	0	505	510	19	0	
11	0	0	0	0	511	508	20	0	
12	0	0	0	0	511	508	20	0	
13	0	0	0	0	514	509	20	0	
14	0	0	0	0	512	506	20	0	
15	0	0	0	0	515	507	20	0	
0	0	0	0	0	518	508	20	0	
1	0	0	0	0	518	508	21	0	
2	0	0	0	0	517	511	20	0	
3	0	0	0	0	501	508	20	0	
4	0	0	0	0	496	508	19	0	
5	0	0	0	0	498	507	19	0	
6	0	0	0	0	502	510	19	0	
7	0	0	0	0	501	507	19	0	
8	0	0	0	0	501	507	18	0	
9	0	0	0	0	509	506	19	0	
10	0	0	0	0	525	504	20	0	
11	0	0	0	0	536	509	21	0	
12	0	0	0	0	545	509	23	0	
13	0	0	0	0	524	510	22	0	
14	0	0	0	0	512	508	23	0	
15	0	0	0	0	508	508	25	0	
0	0	0	0	0	510	509	25	0	
1	0	0	0	0	508	507	26	0	
2	0	0	0	0	505	508	26	0	
3	0	0	0	0	508	508	27	0	
4	0	0	0	0	508	507	24	0	
5	0	0	0	0	510	508	26	0	
6	0	0	0	0	511	509	25	0	
7	0	0	0	0	510	508	26	0	
8	0	0	0	0	511	508	25	0	
9	0	0	0	0	511	508	26	0	
10	0	0	0	0	512	508	27	0	
11	0	0	0	0	508	507	26	0	
12	0	0	0	0	507	507	27	0	
13	0	0	0	0	511	507	27	0	
14	0	0	0	0	512	508	28	0	
15	0	0	0	0	511	509	28	0	
0	0	0	0	0	508	509	29	0	
1	0	0	0	0	517	508	28	0	
2	0	0	0	0	510	510	29	0	
3	0	0	0	0	511	510	27	0	
4	0	0	0	0	511	507	28	0	
5	0	0	0	0	511	508	27	0	
6	0	0	0	0	510	509	29	0	
7	0	0	0	0	508	508	29	0	
8	0	0	0	0	516	509	29	0	
9	0	0	0	0	510	507	30	0	
10	0	0	0	0	510	508	29	0	
11	0	0	0	0	510	507	30	0	
12	0	0	0	0	514	508	30	0	
13	0	0	0	0	511	507	31	0	
14	0	0	0	0	512	506	31	0	
15	0	0	0	0	509	508	29	0	
0	0	0	0	0	511	507	29	0	
1	0	0	0	0	510	507	30	0	
2	0	0	0	0	511	507	31	0	
3	0	0	0	0	513	508	31	0	
4	0	0	0	0	511	510	31	0	
5	0	0	0	0	504	508	32	0	
6	0	0	0	0	508	508	31	0	
7	0	0	0	0	514	508	32	0	
8	0	0	0	0	512	507	32	0	
9	0	0	0	0	515	510	33	0	
10	0	0	0	0	505	510	32	0	
11	0	0	0	0	507	510	33	0	
12	0	0	0	0	507	509	32	0	
13	0	0	0	0	505	507	32	0	
14	0	0	0	0	508	508	32	0	
15	0	0	0	0	511	508	32	0	
0	0	0	0	0	515	507	32	0	
1	0	0	0	0	519	509	32	0	
2	0	0	0	0	525	508	32	0	
3	0	0	0	0	512	507	32	0	
4	0	0	0	0	503	508	33	0	
5	0	0	0	0	495	507	33	0	
6	0	0	0	0	498	507	33	0	
7	0	0	0	0	508	508	36	0	
8	0	0	0	0	504	510	37	0	
9	0	0	0	0	516	508	37	0	
10	0	0	0	0	529	509	37	0	
11	0	0	0	0	528	508	39	0	
12	0	0	0	0	516	510	38	0	
13	0	0	0	0	518	510	39	0	
14	0	0	0	0	513	508	38	0	
15	0	0	0	0	509	510	35	0	
0	0	0	0	0	510	510	34	0	
1	0	0	0	0	513	510	34	0	
2	0	0	0	0	507	506	34	0	
3	0	0	0	0	505	507	34	0	
4	0	0	0	0	505	508	35	0	
5	0	0	0	0	506	507	35	0	
6	0	0	0	0	512	508	35	0	
7	0	0	0	0	515	510	35	0	
8	0	0	0	0	517	504	35	0	
9	0	0	0	0	514	505	35	0	
10	0	0	0	0	505	507	35	0	
11	0	0	0	0	500	507	35	0	
12	0	0	0	0	497	509	36	0	
13	0	0	0	0	510	508	35	0	
14	0	0	0	0	504	508	36	0	
15	0	0	0	0	497	508	36	0	
0	0	0	0	0	503	508	36	0	
1	0	0	0	0	516	509	37	0	
2	0	0	0	0	529	510	37	0	
3	0	0	0	0	520	510	37	0	
4	0	0	0	0	517	509	37	0	
5	0	0	0	0	525	507	36	0	
6	0	0	0	0	537	508	37	0	
7	0	0	0	0	527	507	37	0	
8	0	0	0	0	514	507	39	0	
9	0	0	0	0	503	507	39	0	
10	0	0	0	0	509	506	38	0	
11	0	0	0	0	513	508	37	0	
12	0	0	0	0	506	510	37	0	
13	0	0	0	0	515	510	37	0	
14	0	0	0	0	495	507	37	0	
15	0	0	0	0	494	508	37	0	
0	0	0	0	0	494	508	36	0	
1	0	0	0	0	495	506	37	0	
2	0	0	0	0	489	508	37	0	
3	0	0	0	0	505	510	36	0	
4	0	0	0	0	511	509	37	0	
5	0	0	0	0	506	510	37	0	
6	0	0	0	0	515	505	38	0	
7	0	0	0	0	522	506	38	0	
8	0	0	0	0	542	508	38	0	
9	0	0	0	0	528	508	39	0	
10	0	0	0	0	513	508	39	0	
11	0	0	0	0	507	508	42	0	
12	0	0	0	0	507	508	41	0	
13	0	0	0	0	510	507	42	0	
14	0	0	0	0	502	507	41	0	
15	0	0	0	0	499	506	40	0	
0	0	0	0	0	503	508	40	0	
1	0	0	0	0	508	506	41	0	
2	0	0	0	0	509	507	43	0	
3	0	0	0	0	510	506	43	0	
4	0	0	0	0	507	505	44	0	
5	0	0	0	0	508	508	43	0	
6	0	0	0	0	523	508	43	0	
7	0	0	0	0	534	508	40	0	
8	0	0	0	0	520	511	42	0	
9	0	0	0	0	508	511	43	0	
10	0	0	0	0	520	513	44	0	
11	0	0	0	0	525	509	43	0	
12	0	0	0	0	529	507	43	0	
13	0	0	0	0	529	509	43	0	
14	0	0	0	0	520	507	43	0	
15	0	0	0	0	519	506	43	0	
0	0	0	0	0	516	508	42	0	
1	0	0	0	0	516	509	44	0	
2	0	0	0	0	500	510	42	0	
3	0	0	0	0	498	509	43	0	
4	0	0	0	0	488	507	41	0	
5	0	0	0	0	485	507	51	0	
6	0	0	0	0	484	506	53	0	
7	0	0	0	0	486	505	54	0	
8	0	0	0	0	487	506	56	0	
9	0	0	0	0	519	509	57	0	
10	0	0	0	0	576	511	57	0	
11	0	0	0	0	547	509	58	0	
12	0	0	0	0	509	510	63	0	
13	0	0	0	0	499	509	69	0	
14	0	0	0	0	492	506	70	0	
15	0	0	0	0	499	508	71	0	
0	0	0	0	0	496	509	73	0	
1	0	0	0	0	481	507	73	0	
2	0	0	0	0	504	508	76	0	
3	0	0	0	0	515	507	77	0	
4	0	0	0	0	520	505	79	0	
5	0	0	0	0	536	507	78	0	
6	0	0	0	0	535	508	76	0	
7	0	0	0	0	513	507	79	0	
8	0	0	0	0	495	509	81	0	
9	0	0	0	0	487	510	84	0	
10	0	0	0	0	493	508	85	0	
11	0	0	0	0	492	507	86	0	
12	0	0	0	0	502	508	87	0	
13	0	0	0	0	509	508	85	0	
14	0	0	0	0	523	506	87	0	
15	0	0	0	0	503	507	86	0	
0	0	0	0	0	506	510	87	0	
1	0	0	0	0	504	508	87	0	
2	0	0	0	0	512	507	87	0	
3	0	0	0	0	542	508	87	0	
4	0	0	0	0	574	510	87	0	
5	0	0	0	0	566	510	86	0	
6	0	0	0	0	548	510	87	0	
7	0	0	0	0	516	509	87	0	
8	0	0	0	0	489	506	87	0	
9	0	0	0	0	469	505	88	0	
10	0	0	0	0	499	507	90	0	
11	0	0	0	0	514	511	95	0	
12	0	0	0	0	502	508	95	0	
13	0	0	0	0	508	507	94	0	
14	0	0	0	0	512	508	95	0	
15	0	0	0	0	511	507	96	0	
0	0	0	0	0	499	506	97	0	
1	0	0	0	0	500	507	93	0	
2	0	0	0	0	491	509	95	0	
3	0	0	0	0	499	507	92	0	
4	0	0	0	0	507	508	93	0	
5	0	0	0	0	506	508	91	0	
6	0	0	0	0	498	507	91	0	
7	0	0	0	0	492	506	91	0	
8	0	0	0	0	515	507	91	0	
9	0	0	0	0	534	511	90	0	
10	0	0	0	0	540	512	91	0	
11	0	0	0	0	537	510	91	0	
12	0	0	0	0	547	508	93	0	
13	0	0	0	0	537	508	94	0	
14	0	0	0	0	545	511	92	0	
15	0	0	0	0	500	506	93	0	
0	0	0	0	0	465	506	90	0	
1	0	0	0	0	474	506	90	0	
2	0	0	0	0	493	506	91	0	
3	0	0	0	0	515	510	92	0	
4	0	0	0	0	500	508	90	0	
5	0	0	0	0	502	505	91	0	
6	0	0	0	0	519	508	88	0	
7	0	0	0	0	522	506	88	0	
8	0	0	0	0	500	508	91	0	
9	0	0	0	0	476	508	88	0	
10	0	0	0	0	473	508	87	0	
11	0	0	0	0	481	512	84	0	
12	0	0	0	0	486	508	81	0	
13	0	0	0	0	513	510	76	0	
14	0	0	0	0	592	509	76	0	
15	0	0	0	0	591	507	74	0	
0	0	0	0	0	542	508	73	0	
1	0	0	0	0	503	509	72	0	
2	0	0	0	0	494	506	73	0	
3	0	0	0	0	507	505	71	0	
4	0	0	0	0	495	507	70	0	
5	0	0	0	0	489	508	68	0	
6	0	0	0	0	488	508	66	0	
7	0	0	0	0	480	506	67	0	
8	0	0	0	0	502	506	66	0	
9	0	0	0	0	529	508	65	0	
10	0	0	0	0	535	508	62	0	
11	0	0	0	0	541	509	62	0	
12	0	0	0	0	527	508	61	0	
13	0	0	0	0	525	510	58	0	
14	0	0	0	0	517	512	60	0	
15	0	0	0	0	521	511	56	0	
0	0	0	0	0	498	507	56	0	
1	0	0	0	0	507	505	56	0	
2	0	0	0	0	491	505	58	0	
3	0	0	0	0	502	507	57	0	
4	0	0	0	0	507	508	47	0	
5	0	0	0	0	507	506	45	0	
6	0	0	0	0	508	506	47	0	
7	0	0	0	0	511	508	41	0	
8	0	0	0	0	491	507	39	0	
9	0	0	0	0	503	508	32	0	
10	0	0	0	0	518	510	32	0	
11	0	0	0	0	542	515	33	0	
12	0	0	0	0	526	511	33	0	
13	0	0	0	0	515	507	33	0	
14	0	0	0	0	501	507	35	0	
15	0	0	0	0	486	504	33	0	
0	0	0	0	0	490	505	35	0	
1	0	0	0	0	512	506	35	0	
2	0	0	0	0	526	509	35	0	
3	0	0	0	0	540	510	35	0	
4	0	0	0	0	555	513	35	0	
5	0	0	0	0	543	510	34	0	
6	0	0	0	0	506	509	35	0	
7	0	0	0	0	492	508	35	0	
8	0	0	0	0	504	508	36	0	
9	0	0	0	0	526	504	36	0	
10	0	0	0	0	522	507	36	0	
11	0	0	0	0	503	508	37	0	
12	0	0	0	0	505	510	37	0	
13	0	0	0	0	493	509	37	0	
14	0	0	0	0	485	506	36	0	
15	0	0	0	0	509	506	35	0	
0	0	0	0	0	516	507	35	0	
1	0	0	0	0	500	507	36	0	
2	0	0	0	0	493	509	34	0	
3	0	0	0	0	499	508	36	0	
4	0	0	0	0	515	508	35	0	
5	0	0	0	0	521	512	35	0	
6	0	0	0	0	530	510	35	0	
7	0	0	0	0	530	510	35	0	
8	0	0	0	0	514	509	35	0	
9	0	0	0	0	493	508	34	0	
10	0	0	0	0	493	503	34	0	
11	0	0	0	0	487	503	35	0	
12	0	0	0	0	519	508	35	0	
13	0	0	0	0	524	511	36	0	
14	0	0	0	0	518	509	38	0	
15	0	0	0	0	521	508	39	0	
0	0	0	0	0	519	510	41	0	
1	0	0	0	0	509	510	41	0	
2	0	0	0	0	505	508	43	0	
3	0	0	0	0	502	507	44	0	
4	0	0	0	0	513	504	42	0	
5	0	0	0	0	522	509	42	0	
6	0	0	0	0	498	505	42	0	
7	0	0	0	0	493	503	43	0	
8	0	0	0	0	489	507	41	0	
9	0	0	0	0	501	507	41	0	
10	0	0	0	0	518	509	43	0	
11	0	0	0	0	524	512	42	0	
12	0	0	0	0	524	512	43	0	
13	0	0	0	0	512	508	43	0	
14	0	0	0	0	510	506	43	0	
15	0	0	0	0	502	509	49	0	
0	0	0	0	0	508	509	48	0	
1	0	0	0	0	517	508	48	0	
2	0	0	0	0	514	509	48	0	
3	0	0	0	0	509	510	47	0	
4	0	0	0	0	515	508	45	0	
5	0	0	0	0	514	508	46	0	
6	0	0	0	0	511	505	48	0	
7	0	0	0	0	516	509	46	0	
8	0	0	0	0	512	507	46	0	
9	0	0	0	0	508	505	47	0	
10	0	0	0	0	501	505	48	0	
11	0	0	0	0	506	507	48	0	
12	0	0	0	0	503	503	47	0	
13	0	0	0	0	501	506	50	0	
14	0	0	0	0	510	512	51	0	
15	0	0	0	0	531	511	49	0	
0	0	0	0	0	540	510	49	0	
1	0	0	0	0	533	509	51	0	
2	0	0	0	0	523	512	55	0	
3	0	0	0	0	510	509	56	0	
4	0	0	0	0	503	508	51	0	
5	0	0	0	0	502	505	57	0	
6	0	0	0	0	513	504	63	0	
7	0	0	0	0	514	508	64	0	
8	0	0	0	0	512	513	69	0	
9	0	0	0	0	503	510	69	0	
10	0	0	0	0	506	510	67	0	
11	0	0	0	0	505	508	70	0	
12	0	0	0	0	497	506	73	0	
13	0	0	0	0	504	504	75	0	
14	0	0	0	0	527	501	73	0	
15	0	0	0	0	532	499	79	0	
0	0	0	0	0	512	512	80	0	
1	0	0	0	0	498	512	79	0	
2	0	0	0	0	494	512	85	0	
3	0	0	0	0	499	508	85	0	
4	0	0	0	0	502	511	88	0	
5	0	0	0	0	530	510	90	0	
6	0	0	0	0	526	505	89	0	
7	0	0	0	0	516	504	91	0	
8	0	0	0	0	508	507	91	0	
9	0	0	0	0	503	505	91	0	
10	0	0	0	0	495	509	90	0	
11	0	0	0	0	501	510	90	0	
12	0	0	0	0	510	511	88	0	
13	0	0	0	0	516	512	92	0	
14	0	0	0	0	513	512	92	0	
15	0	0	0	0	518	511	92	0	
0	0	0	0	0	513	505	92	0	
1	0	0	0	0	505	499	92	0	
2	0	0	0	0	516	501	94	0	
3	0	0	0	0	519	505	96	0	
4	0	0	0	0	508	509	96	0	
5	0	0	0	0	508	511	99	0	
6	0	0	0	0	521	510	103	0	
7	0	0	0	0	517	509	103	0	
8	0	0	0	0	507	509	104	0	
9	0	0	0	0	513	509	103	0	
10	0	0	0	0	511	510	103	0	
11	0	0	0	0	518	509	107	0	
12	0	0	0	0	518	518	108	0	
13	0	0	0	0	503	509	109	0	
14	0	0	0	0	498	505	112	0	
15	0	0	0	0	501	506	113	0	
0	0	0	0	0	512	505	113	0	
1	0	0	0	0	511	502	112	0	
2	0	0	0	0	506	503	114	0	
3	0	0	0	0	510	507	116	0	
4	0	0	0	0	523	509	117	0	
5	0	0	0	0	521	507	118	0	
6	0	0	0	0	519	512	118	0	
7	0	0	0	0	511	516	117	0	
8	0	0	0	0	512	512	118	0	
9	0	0	0	0	505	506	120	0	
10	0	0	0	0	506	508	121	0	
11	0	0	0	0	511	509	121	0	
12	0	0	0	0	501	505	123	0	
13	0	0	0	0	511	506	123	0	
14	0	0	0	0	504	507	124	0	
15	0	0	0	0	506	512	125	0	
0	0	0	0	0	517	518	127	0	
1	0	0	0	0	510	512	129	0	
2	0	0	0	0	510	511	134	0	
3	0	0	0	0	515	503	134	0	
4	0	0	0	0	512	496	139	0	
5	0	0	0	0	514	494	136	0	
6	0	0	0	0	518	501	141	0	
7	0	0	0	0	516	507	142	0	
8	0	0	0	0	498	508	140	0	
9	0	0	0	0	488	507	142	0	
10	0	0	0	0	490	504	145	0	
11	0	0	0	0	503	508	150	0	
12	0	0	0	0	505	511	176	1	
13	0	0	0	0	519	510	179	3	
14	0	0	0	0	528	507	185	6	
15	0	0	0	0	537	511	192	10	
0	0	0	0	0	538	515	194	13	
1	0	0	0	0	525	524	199	14	
2	0	0	0	0	500	519	198	15	
3	0	0	0	0	506	515	204	15	
4	0	0	0	0	513	510	205	16	
5	0	0	0	0	511	510	207	15	
6	0	0	0	0	500	501	211	20	
7	0	0	0	0	502	504	214	20	
8	0	0	0	0	517	510	216	21	
9	0	0	0	0	522	499	221	21	
10	0	0	0	0	524	492	224	23	
11	0	0	0	0	514	495	225	25	
12	0	0	0	0	505	511	228	27	
13	0	0	0	0	499	515	231	29	
14	0	0	0	0	518	507	231	32	
15	0	0	0	0	521	508	242	34	
0	0	0	0	0	518	505	239	37	
1	0	0	0	0	509	504	246	45	
2	0	0	0	0	476	495	248	88	
3	0	0	0	0	484	508	251	82	
4	0	0	0	0	503	510	253	103	
5	0	0	0	0	504	518	257	101	
6	0	0	0	0	507	515	259	105	
7	0	0	0	0	523	513	261	112	
8	0	0	0	0	528	505	263	120	
9	0	0	0	0	523	507	267	124	
10	0	0	0	0	526	512	271	120	
11	0	0	0	0	506	507	274	124	
12	0	0	0	0	488	504	276	150	
13	0	0	0	0	492	505	275	155	
14	0	0	0	0	500	509	282	153	
15	0	0	0	0	516	509	283	163	
0	0	0	0	0	504	503	292	178	
1	0	0	0	0	487	506	297	190	
2	0	0	0	0	492	512	302	197	
3	0	0	0	0	503	512	303	209	
4	0	0	0	0	512	511	312	211	
5	0	0	0	0	535	505	308	222	
6	0	0	0	0	528	504	310	221	
7	0	0	0	0	527	511	319	223	
8	0	0	0	0	534	512	323	227	
9	0	0	0	0	515	517	324	225	
10	0	0	0	0	513	513	327	229	
11	0	0	0	0	503	510	327	231	
12	0	0	0	0	500	508	331	231	
13	0	0	0	0	513	507	328	240	
14	0	0	0	0	530	506	332	239	
15	0	0	0	0	520	510	338	243	
0	0	0	0	0	503	509	335	251	
1	0	0	0	0	515	502	337	254	
2	0	0	0	0	517	502	341	254	
3	0	0	0	0	513	510	342	257	
4	0	0	0	0	516	512	339	266	
5	0	0	0	0	512	495	340	270	
6	0	0	0	0	506	491	342	274	
7	0	0	0	0	506	508	348	271	
8	0	0	0	0	511	518	349	269	
9	0	0	0	0	519	511	350	269	
10	0	0	0	0	523	512	351	271	
11	0	0	0	0	534	516	354	275	
12	0	0	0	0	520	514	361	280	
13	0	0	0	0	505	509	362	278	
14	0	0	0	0	500	507	365	282	
15	0	0	0	0	492	504	366	284	
0	0	0	0	0	500	512	369	281	
1	0	0	0	0	511	511	372	288	
2	0	0	0	0	523	507	372	294	
3	0	0	0	0	518	502	376	290	
4	0	0	0	0	518	501	382	294	
5	0	0	0	0	518	501	380	298	
6	0	0	0	0	518	504	383	298	
7	0	0	0	0	509	503	383	300	
8	0	0	0	0	508	510	375	303	
9	0	0	0	0	513	506	380	307	
10	0	0	0	0	505	510	380	307	
11	0	0	0	0	493	509	381	310	
12	0	0	0	0	505	516	383	320	
13	0	0	0	0	500	516	385	318	
14	0	0	0	0	491	519	385	317	
15	0	0	0	0	477	512	385	320	
0	0	0	0	0	486	508	383	321	
1	0	0	0	0	501	504	380	322	
2	0	0	0	0	516	494	382	326	
3	0	0	0	0	526	496	382	328	
4	0	0	0	0	537	503	387	331	
5	0	0	0	0	552	508	386	330	
6	0	0	0	0	562	519	386	331	
7	0	0	0	0	533	525	386	332	
8	0	0	0	0	508	519	386	330	
9	0	0	0	0	496	511	386	329	
10	0	0	0	0	499	505	387	331	
11	0	0	0	0	506	503	377	334	
12	0	0	0	0	511	500	379	335	
13	0	0	0	0	515	504	386	332	
14	0	0	0	0	510	500	385	334	
15	0	0	0	0	504	507	385	335	
0	0	0	0	0	500	512	385	343	
1	0	0	0	0	504	514	387	348	
2	0	0	0	0	498	511	390	347	
3	0	0	0	0	499	507	387	347	
4	0	0	0	0	501	508	385	351	
5	0	0	0	0	494	501	384	354	
6	0	0	0	0	518	506	384	353	
7	0	0	0	0	520	506	382	352	
8	0	0	0	0	519	509	382	350	
9	0	0	0	0	498	516	383	353	
10	0	0	0	0	497	514	377	353	
11	0	0	0	0	489	510	379	350	
12	0	0	0	0	503	511	380	349	
13	0	0	0	0	546	512	382	352	
14	0	0	0	0	541	506	380	351	
15	0	0	0	0	537	503	383	350	
0	0	0	0	0	538	504	384	354	
1	0	0	0	0	525	497	384	356	
2	0	0	0	0	515	489	384	356	
3	0	0	0	0	516	501	386	355	
4	0	0	0	0	504	504	383	356	
5	0	0	0	0	478	505	385	356	
6	0	0	0	0	468	497	385	355	
7	0	0	0	0	480	507	387	358	
8	0	0	0	0	521	516	391	360	
9	0	0	0	0	521	522	395	361	
10	0	0	0	0	517	521	396	364	
11	0	0	0	0	511	523	394	365	
12	0	0	0	0	505	516	399	361	
13	0	0	0	0	514	512	397	362	
14	0	0	0	0	499	511	399	364	
15	0	0	0	0	483	507	403	362	
0	0	0	0	0	504	510	402	363	
1	0	0	0	0	547	515	401	365	
2	0	0	0	0	560	506	404	364	
3	0	0	0	0	549	501	405	366	
4	0	0	0	0	548	502	407	363	
5	0	0	0	0	492	503	410	364	
6	0	0	0	0	469	508	414	365	
7	0	0	0	0	479	512	415	368	
8	0	0	0	0	496	509	419	368	
9	0	0	0	0	510	508	418	367	
10	0	0	0	0	524	510	418	369	
11	0	0	0	0	540	508	413	369	
12	0	0	0	0	542	500	416	367	
13	0	0	0	0	517	495	414	367	
14	0	0	0	0	486	501	417	364	
15	0	0	0	0	481	511	419	365	
0	0	0	0	0	475	516	418	366	
1	0	0	0	0	476	512	414	367	
2	0	0	0	0	497	512	414	368	
3	0	0	0	0	543	508	413	367	
4	0	0	0	0	561	508	411	368	
5	0	0	0	0	537	508	415	369	
6	0	0	0	0	506	503	417	370	
7	0	0	0	0	513	502	415	368	
8	0	0	0	0	517	506	413	368	
9	0	0	0	0	500	511	413	368	
10	0	0	0	0	504	514	412	369	
11	0	0	0	0	500	508	416	372	
12	0	0	0	0	497	504	418	372	
13	0	0	0	0	506	505	421	368	
14	0	0	0	0	508	510	423	361	
15	0	0	0	0	513	514	423	363	
0	0	0	0	0	510	517	423	364	
1	0	0	0	0	500	506	426	365	
2	0	0	0	0	498	499	426	365	
3	0	0	0	0	512	495	429	366	
4	0	0	0	0	529	503	431	364	
5	0	0	0	0	514	514	432	363	
6	0	0	0	0	521	516	432	368	
7	0	0	0	0	516	516	433	369	
8	0	0	0	0	519	504	434	371	
9	0	0	0	0	528	496	429	369	
10	0	0	0	0	543	507	431	372	
11	0	0	0	0	519	504	431	378	
12	0	0	0	0	486	508	431	375	
13	0	0	0	0	486	506	430	379	
14	0	0	0	0	497	513	432	381	
15	0	0	0	0	494	517	433	381	
0	0	0	0	0	503	516	433	383	
1	0	0	0	0	515	507	434	384	
2	0	0	0	0	521	509	436	385	
3	0	0	0	0	506	504	440	386	
4	0	0	0	0	518	507	441	386	
5	0	0	0	0	514	502	445	385	
6	0	0	0	0	510	502	447	383	
7	0	0	0	0	510	503	449	383	
8	0	0	0	0	510	516	449	388	
9	0	0	0	0	505	520	449	392	
10	0	0	0	0	502	517	448	395	
11	0	0	0	0	501	520	449	397	
12	0	0	0	0	508	527	450	399	
13	0	0	0	0	503	524	449	400	
14	0	0	0	0	501	507	450	400	
15	0	0	0	0	509	487	451	400	
0	0	0	0	0	518	470	450	400	
1	0	0	0	0	517	482	451	401	
2	0	0	0	0	534	491	452	400	
3	0	0	0	0	525	494	453	401	
4	0	0	0	0	518	507	453	399	
5	0	0	0	0	506	516	455	398	
6	0	0	0	0	506	519	455	397	
7	0	0	0	0	509	519	456	396	
8	0	0	0	0	523	531	456	398	
9	0	0	0	0	526	523	457	396	
10	0	0	0	0	518	514	456	401	
11	0	0	0	0	502	513	457	405	
12	0	0	0	0	496	511	458	406	
13	0	0	0	0	486	505	459	408	
14	0	0	0	0	491	506	460	408	
15	0	0	0	0	505	501	460	411	
0	0	0	0	0	512	496	460	411	
1	0	0	0	0	509	503	459	409	
2	0	0	0	0	511	512	459	410	
3	0	0	0	0	512	514	459	409	
4	0	0	0	0	514	509	459	411	
5	0	0	0	0	513	505	459	411	
6	0	0	0	0	528	508	460	409	
7	0	0	0	0	532	504	461	410	
8	0	0	0	0	524	508	461	410	
9	0	0	0	0	509	508	461	412	
10	0	0	0	0	507	506	464	412	
11	0	0	0	0	510	511	467	413	
12	0	0	0	0	507	509	468	414	
13	0	0	0	0	502	507	467	413	
14	0	0	0	0	512	508	466	415	
15	0	0	0	0	510	506	465	416	
0	0	0	0	0	522	511	465	416	
1	0	0	0	0	519	508	465	418	
2	0	0	0	0	507	507	465	418	
3	0	0	0	0	502	499	465	420	
4	0	0	0	0	513	503	464	432	
5	0	0	0	0	505	505	465	433	
6	0	0	0	0	504	509	466	432	
7	0	0	0	0	509	511	467	434	
8	0	0	0	0	511	513	467	434	
9	0	0	0	0	508	518	466	435	
10	0	0	0	0	512	519	466	435	
11	0	0	0	0	513	515	467	435	
12	0	0	0	0	512	507	466	435	
13	0	0	0	0	530	501	467	435	
14	0	0	0	0	540	510	468	436	
15	0	0	0	0	524	509	467	436	
0	0	0	0	0	507	504	467	435	
1	0	0	0	0	502	506	469	436	
2	0	0	0	0	498	507	470	436	
3	0	0	0	0	514	505	471	435	
4	0	0	0	0	504	501	472	436	
5	0	0	0	0	505	505	470	435	
6	0	0	0	0	502	509	470	435	
7	0	0	0	0	511	509	470	436	
8	0	0	0	0	510	508	470	437	
9	0	0	0	0	507	503	471	435	
10	0	0	0	0	514	506	471	436	
11	0	0	0	0	511	512	472	435	
12	0	0	0	0	515	510	470	435	
13	0	0	0	0	504	509	471	435	
14	0	0	0	0	505	509	471	433	
15	0	0	0	0	523	511	471	433	
0	0	0	0	0	533	513	472	435	
1	0	0	0	0	512	511	472	437	
2	0	0	0	0	503	513	472	436	
3	0	0	0	0	506	513	472	436	
4	0	0	0	0	510	505	473	438	
5	0	0	0	0	502	499	473	436	
6	0	0	0	0	494	504	474	436	
7	0	0	0	0	509	509	474	439	
8	0	0	0	0	508	503	476	439	
9	0	0	0	0	515	499	476	439	
10	0	0	0	0	517	506	476	440	
11	0	0	0	0	508	510	476	440	
12	0	0	0	0	496	511	478	438	
13	0	0	0	0	493	511	477	438	
14	0	0	0	0	493	508	478	438	
15	0	0	0	0	492	505	478	439	
0	0	0	0	0	511	505	477	438	
1	0	0	0	0	537	505	478	439	
2	0	0	0	0	529	512	478	438	
3	0	0	0	0	526	510	479	437	
4	0	0	0	0	529	509	479	443	
5	0	0	0	0	527	511	479	444	
6	0	0	0	0	505	512	478	445	
7	0	0	0	0	492	515	479	447	
8	0	0	0	0	499	513	478	446	
9	0	0	0	0	509	507	479	447	
10	0	0	0	0	513	507	478	446	
11	0	0	0	0	519	505	480	445	
12	0	0	0	0	531	506	479	446	
13	0	0	0	0	526	509	479	446	
14	0	0	0	0	517	508	479	447	
15	0	0	0	0	506	504	480	448	
0	0	0	0	0	506	507	478	449	
1	0	0	0	0	500	509	479	451	
2	0	0	0	0	502	517	478	451	
3	0	0	0	0	507	502	480	449	
4	0	0	0	0	487	487	479	450	
5	0	0	0	0	491	502	479	450	
6	0	0	0	0	498	502	479	451	
7	0	0	0	0	517	503	479	448	
8	0	0	0	0	515	513	479	450	
9	0	0	0	0	535	520	479	451	
10	0	0	0	0	549	516	477	452	
11	0	0	0	0	551	512	475	452	
12	0	0	0	0	525	513	476	451	
13	0	0	0	0	514	515	476	452	
14	0	0	0	0	503	511	475	452	
15	0	0	0	0	487	510	475	450	
0	0	0	0	0	483	513	475	450	
1	0	0	0	0	486	511	476	447	
2	0	0	0	0	502	511	476	447	
3	0	0	0	0	521	505	476	448	
4	0	0	0	0	515	499	476	447	
5	0	0	0	0	520	494	476	448	
6	0	0	0	0	510	493	476	450	
7	0	0	0	0	506	500	476	448	
8	0	0	0	0	516	517	476	448	
9	0	0	0	0	527	514	476	448	
10	0	0	0	0	524	509	476	448	
11	0	0	0	0	507	510	475	448	
12	0	0	0	0	505	518	476	448	
13	0	0	0	0	514	527	476	448	
14	0	0	0	0	508	521	475	448	
15	0	0	0	0	509	506	475	449	
0	0	0	0	0	498	489	476	449	
1	0	0	0	0	492	476	476	448	
2	0	0	0	0	496	487	476	449	
3	0	0	0	0	508	509	476	448	
4	0	0	0	0	525	518	477	449	
5	0	0	0	0	524	515	477	450	
6	0	0	0	0	529	514	478	448	
7	0	0	0	0	524	515	478	448	
8	0	0	0	0	511	516	478	450	
9	0	0	0	0	509	518	477	449	
10	0	0	0	0	508	516	477	448	
11	0	0	0	0	499	512	477	450	
12	0	0	0	0	508	504	477	449	
13	0	0	0	0	507	496	477	449	
14	0	0	0	0	503	493	477	449	
15	0	0	0	0	496	504	476	449	
0	0	0	0	0	492	508	477	449	
1	0	0	0	0	493	511	477	450	
2	0	0	0	0	513	513	478	451	
3	0	0	0	0	526	516	477	452	
4	0	0	0	0	526	516	476	450	
5	0	0	0	0	511	513	478	448	
6	0	0	0	0	496	502	477	449	
7	0	0	0	0	471	498	478	448	
8	0	0	0	0	474	503	479	450	
9	0	0	0	0	531	505	479	449	
10	0	0	0	0	574	507	479	451	
11	0	0	0	0	609	515	479	449	
12	0	0	0	0	553	515	480	449	
13	0	0	0	0	507	511	479	450	
14	0	0	0	0	510	505	479	450	
15	0	0	0	0	503	506	480	452	
0	0	0	0	0	495	507	480	451	
1	0	0	0	0	490	507	480	451	
2	0	0	0	0	483	506	480	451	
3	0	0	0	0	490	511	480	451	
4	0	0	0	0	499	506	479	451	
5	0	0	0	0	501	512	480	451	
6	0	0	0	0	513	504	480	452	
7	0	0	0	0	516	502	480	452	
8	0	0	0	0	523	508	481	451	
9	0	0	0	0	532	509	480	451	
10	0	0	0	0	520	506	480	451	
11	0	0	0	0	504	508	480	451	
12	0	0	0	0	490	510	480	451	
13	0	0	0	0	496	511	480	452	
14	0	0	0	0	509	512	480	453	
15	0	0	0	0	510	505	479	452	
0	0	0	0	0	503	504	479	452	
1	0	0	0	0	505	505	480	451	
2	0	0	0	0	516	505	480	453	
3	0	0	0	0	519	508	481	454	
4	0	0	0	0	507	512	480	453	
5	0	0	0	0	509	511	481	453	
6	0	0	0	0	506	511	480	454	
7	0	0	0	0	509	510	480	454	
8	0	0	0	0	516	511	481	453	
9	0	0	0	0	515	510	482	453	
10	0	0	0	0	499	509	483	454	
11	0	0	0	0	500	504	483	454	
12	0	0	0	0	500	512	483	453	
13	0	0	0	0	500	509	483	454	
14	0	0	0	0	519	504	484	454	
15	0	0	0	0	537	503	483	454	
0	0	0	0	0	560	503	484	454	
1	0	0	0	0	530	505	484	454	
2	0	0	0	0	522	505	484	454	
3	0	0	0	0	512	507	485	454	
4	0	0	0	0	507	508	484	454	
5	0	0	0	0	496	505	483	454	
6	0	0	0	0	489	505	484	453	
7	0	0	0	0	490	506	484	454	
8	0	0	0	0	486	506	484	454	
9	0	0	0	0	492	510	483	454	
10	0	0	0	0	512	508	484	454	
11	0	0	0	0	544	515	484	453	
12	0	0	0	0	531	515	484	453	
13	0	0	0	0	503	509	483	452	
14	0	0	0	0	504	502	484	452	
15	0	0	0	0	501	508	484	452	
0	0	0	0	0	506	510	484	452	
1	0	0	0	0	520	502	484	453	
2	0	0	0	0	532	508	484	453	
3	0	0	0	0	532	512	484	453	
4	0	0	0	0	526	514	484	453	
5	0	0	0	0	513	519	483	452	
6	0	0	0	0	510	514	483	451	
7	0	0	0	0	502	503	483	451	
8	0	0	0	0	507	505	484	452	
9	0	0	0	0	505	501	484	451	
10	0	0	0	0	494	510	484	451	
11	0	0	0	0	491	510	485	451	
12	0	0	0	0	493	508	485	451	
13	0	0	0	0	506	507	485	451	
14	0	0	0	0	520	513	484	451	
15	0	0	0	0	528	515	484	450	
0	0	0	0	0	519	505	483	451	
1	0	0	0	0	526	504	484	451	
2	0	0	0	0	512	497	484	451	
3	0	0	0	0	500	513	484	451	
4	0	0	0	0	489	510	483	451	
5	0	0	0	0	489	499	483	451	
6	0	0	0	0	500	496	483	451	
7	0	0	0	0	508	509	484	451	
8	0	0	0	0	508	503	483	451	
9	0	0	0	0	509	510	484	449	
10	0	0	0	0	521	513	483	448	
11	0	0	0	0	572	511	484	450	
12	0	0	0	0	540	509	483	448	
13	0	0	0	0	515	500	484	449	
14	0	0	0	0	518	505	483	451	
15	0	0	0	0	515	507	483	444	
0	0	0	0	0	505	511	484	443	
1	0	0	0	0	498	521	484	444	
2	0	0	0	0	498	512	484	443	
3	0	0	0	0	497	515	484	443	
4	0	0	0	0	506	511	483	443	
5	0	0	0	0	518	508	483	444	
6	0	0	0	0	512	501	483	444	
7	0	0	0	0	516	502	483	443	
8	0	0	0	0	506	510	482	443	
9	0	0	0	0	502	512	482	442	
10	0	0	0	0	499	514	483	442	
11	0	0	0	0	500	510	484	442	
12	0	0	0	0	505	505	483	443	
13	0	0	0	0	517	513	483	443	
14	0	0	0	0	521	512	483	443	
15	0	0	0	0	520	503	483	444	
0	0	0	0	0	519	503	483	443	
1	0	0	0	0	490	504	483	443	
2	0	0	0	0	490	507	483	444	
3	0	0	0	0	499	501	483	444	
4	0	0	0	0	501	503	483	443	
5	0	0	0	0	509	504	482	442	
6	0	0	0	0	513	507	483	442	
7	0	0	0	0	523	515	483	443	
8	0	0	0	0	510	512	484	441	
9	0	0	0	0	502	510	483	441	
10	0	0	0	0	510	504	484	440	
11	0	0	0	0	514	498	483	440	
12	0	0	0	0	528	498	483	441	
13	0	0	0	0	526	508	482	440	
14	0	0	0	0	528	511	482	440	
15	0	0	0	0	522	515	482	438	
0	0	0	0	0	512	513	482	438	
1	0	0	0	0	504	515	481	440	
2	0	0	0	0	500	512	481	439	
3	0	0	0	0	501	507	481	440	
4	0	0	0	0	503	501	482	439	
5	0	0	0	0	504	504	482	439	
6	0	0	0	0	516	505	481	438	
7	0	0	0	0	537	503	482	437	
8	0	0	0	0	531	510	481	438	
9	0	0	0	0	512	508	481	438	
10	0	0	0	0	511	515	481	438	
11	0	0	0	0	498	514	481	437	
12	0	0	0	0	496	511	482	437	
13	0	0	0	0	502	515	481	438	
14	0	0	0	0	523	508	482	439	
15	0	0	0	0	525	506	482	437	
0	0	0	0	0	511	507	481	437	
1	0	0	0	0	504	507	482	438	
2	0	0	0	0	503	508	481	438	
3	0	0	0	0	501	506	481	437	
4	0	0	0	0	498	503	481	438	
5	0	0	0	0	510	505	481	438	
6	0	0	0	0	504	506	481	438	
7	0	0	0	0	511	509	480	437	
8	0	0	0	0	512	507	481	437	
9	0	0	0	0	520	508	480	436	
10	0	0	0	0	531	510	481	437	
11	0	0	0	0	516	508	481	435	
12	0	0	0	0	508	511	481	435	
13	0	0	0	0	511	515	480	436	
14	0	0	0	0	505	512	481	438	
15	0	0	0	0	504	505	481	437	
0	0	0	0	0	504	503	480	437	
1	0	0	0	0	498	499	480	437	
2	0	0	0	0	491	506	480	435	
3	0	0	0	0	490	517	480	436	
4	0	0	0	0	510	505	480	435	
5	0	0	0	0	516	487	481	435	
6	0	0	0	0	519	489	480	434	
7	0	0	0	0	521	509	480	434	
8	0	0	0	0	529	508	481	434	
9	0	0	0	0	530	513	481	435	
10	0	0	0	0	526	520	480	435	
11	0	0	0	0	519	520	481	435	
12	0	0	0	0	518	517	480	434	
13	0	0	0	0	512	513	481	434	
14	0	0	0	0	510	512	480	433	
15	0	0	0	0	509	506	480	433	
0	0	0	0	0	511	506	481	432	
1	0	0	0	0	509	513	481	432	
2	0	0	0	0	510	514	481	432	
3	0	0	0	0	506	504	481	432	
4	0	0	0	0	506	504	481	432	
5	0	0	0	0	504	500	481	432	
6	0	0	0	0	499	498	481	432	
7	0	0	0	0	506	502	481	432	
8	0	0	0	0	522	504	482	432	
9	0	0	0	0	515	513	481	432	
10	0	0	0	0	510	512	481	431	
11	0	0	0	0	514	518	481	433	
12	0	0	0	0	515	519	481	434	
13	0	0	0	0	524	514	482	432	
14	0	0	0	0	516	506	482	433	
15	0	0	0	0	512	505	482	435	
0	0	0	0	0	505	509	481	435	
1	0	0	0	0	501	505	481	434	
2	0	0	0	0	497	506	481	435	
3	0	0	0	0	497	502	481	432	
4	0	0	0	0	505	507	481	433	
5	0	0	0	0	518	509	481	434	
6	0	0	0	0	529	508	481	433	
7	0	0	0	0	517	507	481	432	
8	0	0	0	0	505	503	481	433	
9	0	0	0	0	504	507	481	432	
10	0	0	0	0	515	508	481	433	
11	0	0	0	0	498	507	480	433	
12	0	0	0	0	490	508	481	433	
13	0	0	0	0	494	507	480	431	
14	0	0	0	0	503	507	480	432	
15	0	0	0	0	512	506	480	431	
0	0	0	0	0	547	513	480	432	
1	0	0	0	0	547	513	480	432	
2	0	0	0	0	543	516	479	433	
3	0	0	0	0	511	509	480	432	
4	0	0	0	0	502	510	478	432	
5	0	0	0	0	499	507	478	431	
6	0	0	0	0	505	504	477	431	
7	0	0	0	0	515	507	478	432	
8	0	0	0	0	509	511	477	420	
9	0	0	0	0	500	507	477	419	
10	0	0	0	0	496	502	477	421	
11	0	0	0	0	498	502	477	416	
12	0	0	0	0	509	508	477	416	
13	0	0	0	0	506	510	477	415	
14	0	0	0	0	510	510	476	415	
15	0	0	0	0	536	514	476	415	
0	0	0	0	0	536	511	476	416	
1	0	0	0	0	512	508	476	416	
2	0	0	0	0	524	505	475	415	
3	0	0	0	0	512	502	475	416	
4	0	0	0	0	510	508	474	416	
5	0	0	0	0	512	505	475	416	
6	0	0	0	0	515	504	475	416	
7	0	0	0	0	514	510	475	416	
8	0	0	0	0	508	510	474	416	
9	0	0	0	0	496	509	475	416	
10	0	0	0	0	484	505	474	417	
11	0	0	0	0	487	504	474	415	
12	0	0	0	0	492	515	474	416	
13	0	0	0	0	491	510	472	415	
14	0	0	0	0	512	508	472	415	
15	0	0	0	0	553	500	472	415	
0	0	0	0	0	536	501	472	415	
1	0	0	0	0	523	505	472	416	
2	0	0	0	0	515	511	472	415	
3	0	0	0	0	504	514	472	415	
4	0	0	0	0	502	512	471	415	
5	0	0	0	0	506	514	471	415	
6	0	0	0	0	505	508	471	415	
7	0	0	0	0	500	505	471	415	
8	0	0	0	0	505	510	471	415	
9	0	0	0	0	513	510	471	414	
10	0	0	0	0	527	510	471	415	
11	0	0	0	0	520	512	470	415	
12	0	0	0	0	522	507	471	413	
13	0	0	0	0	534	498	470	414	
14	0	0	0	0	514	496	470	413	
15	0	0	0	0	505	506	470	414	
0	0	0	0	0	494	511	470	414	
1	0	0	0	0	499	511	469	413	
2	0	0	0	0	502	512	469	414	
3	0	0	0	0	514	509	470	414	
4	0	0	0	0	516	508	471	413	
5	0	0	0	0	498	509	470	414	
6	0	0	0	0	499	512	470	414	
7	0	0	0	0	499	514	470	415	
8	0	0	0	0	502	510	469	415	
9	0	0	0	0	509	506	469	414	
10	0	0	0	0	512	502	468	415	
11	0	0	0	0	514	502	469	413	
12	0	0	0	0	505	502	468	415	
13	0	0	0	0	522	503	469	414	
14	0	0	0	0	526	507	469	412	
15	0	0	0	0	528	508	468	412	
0	0	0	0	0	522	511	468	414	
1	0	0	0	0	531	513	468	412	
2	0	0	0	0	523	512	468	413	
3	0	0	0	0	508	512	468	412	
4	0	0	0	0	504	509	468	412	
5	0	0	0	0	505	509	468	411	
6	0	0	0	0	503	513	468	412	
7	0	0	0	0	507	508	468	412	
8	0	0	0	0	504	501	468	412	
9	0	0	0	0	501	509	468	412	
10	0	0	0	0	512	507	467	412	
11	0	0	0	0	517	503	467	412	
12	0	0	0	0	508	499	467	412	
13	0	0	0	0	503	507	467	412	
14	0	0	0	0	511	514	467	411	
15	0	0	0	0	504	497	466	410	
0	0	0	0	0	502	484	466	411	
1	0	0	0	0	509	519	466	411	
2	0	0	0	0	518	526	466	411	
3	0	0	0	0	527	517	466	412	
4	0	0	0	0	535	511	465	410	
5	0	0	0	0	515	507	465	410	
6	0	0	0	0	506	505	465	411	
7	0	0	0	0	501	508	465	411	
8	0	0	0	0	512	515	464	409	
9	0	0	0	0	519	517	464	410	
10	0	0	0	0	515	511	464	411	
11	0	0	0	0	505	508	463	411	
12	0	0	0	0	507	506	463	410	
13	0	0	0	0	508	505	463	410	
14	0	0	0	0	509	510	463	409	
15	0	0	0	0	515	510	463	409	
0	0	0	0	0	505	507	463	409	
1	0	0	0	0	500	506	460	410	
2	0	0	0	0	502	503	461	411	
3	0	0	0	0	498	494	460	410	
4	0	0	0	0	505	499	460	410	
5	0	0	0	0	517	507	460	409	
6	0	0	0	0	528	510	460	409	
7	0	0	0	0	543	508	460	410	
8	0	0	0	0	521	508	460	408	
9	0	0	0	0	502	507	459	408	
10	0	0	0	0	496	508	460	409	
11	0	0	0	0	497	510	458	408	
12	0	0	0	0	507	510	458	408	
13	0	0	0	0	524	514	458	409	
14	0	0	0	0	507	510	457	408	
15	0	0	0	0	518	510	458	407	
0	0	0	0	0	528	508	457	408	
1	0	0	0	0	521	508	457	407	
2	0	0	0	0	519	511	456	407	
3	0	0	0	0	508	510	456	407	
4	0	0	0	0	504	507	455	407	
5	0	0	0	0	505	501	455	406	
6	0	0	0	0	499	503	455	406	
7	0	0	0	0	504	506	454	406	
8	0	0	0	0	507	508	454	388	
9	0	0	0	0	508	509	454	387	
10	0	0	0	0	488	511	454	389	
11	0	0	0	0	484	510	453	387	
12	0	0	0	0	500	504	453	388	
13	0	0	0	0	521	504	453	388	
14	0	0	0	0	522	504	453	386	
15	0	0	0	0	517	505	453	387	
0	0	0	0	0	532	510	452	386	
1	0	0	0	0	516	509	452	385	
2	0	0	0	0	500	510	451	384	
3	0	0	0	0	498	510	452	384	
4	0	0	0	0	507	515	451	384	
5	0	0	0	0	533	512	451	384	
6	0	0	0	0	545	510	451	384	
7	0	0	0	0	555	510	449	384	
8	0	0	0	0	531	510	449	383	
9	0	0	0	0	506	509	448	384	
10	0	0	0	0	504	508	448	385	
11	0	0	0	0	501	510	447	384	
12	0	0	0	0	508	505	448	384	
13	0	0	0	0	511	501	448	383	
14	0	0	0	0	505	502	448	383	
15	0	0	0	0	502	505	447	384	
0	0	0	0	0	501	512	448	384	
1	0	0	0	0	502	514	446	384	
2	0	0	0	0	495	508	447	384	
3	0	0	0	0	498	504	447	383	
4	0	0	0	0	497	504	447	382	
5	0	0	0	0	497	498	447	383	
6	0	0	0	0	505	498	446	383	
7	0	0	0	0	525	505	446	383	
8	0	0	0	0	531	513	444	382	
9	0	0	0	0	521	517	444	380	
10	0	0	0	0	518	522	444	380	
11	0	0	0	0	505	516	444	380	
12	0	0	0	0	496	514	443	379	
13	0	0	0	0	501	515	443	377	
14	0	0	0	0	508	506	443	378	
15	0	0	0	0	519	500	441	377	
0	0	0	0	0	513	497	441	376	
1	0	0	0	0	523	501	441	376	
2	0	0	0	0	532	505	441	376	
3	0	0	0	0	517	507	441	375	
4	0	0	0	0	507	513	440	375	
5	0	0	0	0	508	511	440	376	
6	0	0	0	0	520	510	440	375	
7	0	0	0	0	523	513	440	376	
8	0	0	0	0	515	508	440	376	
9	0	0	0	0	506	504	440	376	
10	0	0	0	0	508	508	440	376	
11	0	0	0	0	502	508	440	375	
12	0	0	0	0	495	494	439	376	
13	0	0	0	0	497	503	440	376	
14	0	0	0	0	501	512	440	375	
15	0	0	0	0	511	512	440	375	
0	0	0	0	0	510	505	439	375	
1	0	0	0	0	519	511	440	375	
2	0	0	0	0	529	516	440	375	
3	0	0	0	0	512	512	440	374	
4	0	0	0	0	507	519	440	374	
5	0	0	0	0	512	503	440	373	
6	0	0	0	0	507	489	439	373	
7	0	0	0	0	513	496	439	373	
8	0	0	0	0	523	515	438	374	
9	0	0	0	0	528	510	439	373	
10	0	0	0	0	513	505	439	374	
11	0	0	0	0	494	503	439	373	
12	0	0	0	0	495	509	438	374	
13	0	0	0	0	515	511	438	373	
14	0	0	0	0	526	518	439	373	
15	0	0	0	0	512	517	438	372	
0	0	0	0	0	511	510	437	374	
1	0	0	0	0	509	507	439	390	
2	0	0	0	0	497	508	438	391	
3	0	0	0	0	494	505	440	390	
4	0	0	0	0	500	513	439	388	
5	0	0	0	0	515	517	439	390	
6	0	0	0	0	512	510	439	390	
7	0	0	0	0	508	505	439	390	
8	0	0	0	0	507	507	439	390	
9	0	0	0	0	508	504	438	390	
10	0	0	0	0	511	502	438	390	
11	0	0	0	0	528	500	439	390	
12	0	0	0	0	526	498	439	391	
13	0	0	0	0	512	504	440	390	
14	0	0	0	0	511	507	439	390	
15	0	0	0	0	514	513	439	390	
0	0	0	0	0	506	511	439	390	
1	0	0	0	0	516	510	439	391	
2	0	0	0	0	519	510	440	391	
3	0	0	0	0	512	509	440	391	
4	0	0	0	0	503	511	440	390	
5	0	0	0	0	501	517	441	390	
6	0	0	0	0	499	506	440	390	
7	0	0	0	0	495	503	442	391	
8	0	0	0	0	503	507	442	390	
9	0	0	0	0	507	511	442	390	
10	0	0	0	0	521	514	441	390	
11	0	0	0	0	543	512	440	390	
12	0	0	0	0	531	508	440	390	
13	0	0	0	0	519	510	441	390	
14	0	0	0	0	510	510	440	389	
15	0	0	0	0	504	504	440	388	
0	0	0	0	0	506	500	439	388	
1	0	0	0	0	515	505	439	388	
2	0	0	0	0	502	499	439	388	
3	0	0	0	0	491	507	440	387	
4	0	0	0	0	496	514	439	387	
5	0	0	0	0	527	512	439	388	
6	0	0	0	0	526	512	439	388	
7	0	0	0	0	488	507	439	388	
8	0	0	0	0	485	511	439	388	
9	0	0	0	0	501	514	438	388	
10	0	0	0	0	511	506	439	389	
11	0	0	0	0	529	499	439	388	
12	0	0	0	0	547	495	439	388	
13	0	0	0	0	544	505	438	388	
14	0	0	0	0	527	511	438	388	
15	0	0	0	0	513	506	439	388	
0	0	0	0	0	501	511	439	388	
1	0	0	0	0	493	515	439	388	
2	0	0	0	0	492	512	439	388	
3	0	0	0	0	501	513	438	387	
4	0	0	0	0	512	509	439	387	
5	0	0	0	0	526	513	439	388	
6	0	0	0	0	534	505	439	388	
7	0	0	0	0	520	497	439	388	
8	0	0	0	0	504	500	439	389	
9	0	0	0	0	497	511	439	388	
10	0	0	0	0	479	515	439	389	
11	0	0	0	0	490	511	438	390	
12	0	0	0	0	504	509	438	389	
13	0	0	0	0	516	512	438	390	
14	0	0	0	0	532	507	438	390	
15	0	0	0	0	535	505	439	390	
0	0	0	0	0	517	511	440	390	
1	0	0	0	0	505	511	439	390	
2	0	0	0	0	499	501	440	390	
3	0	0	0	0	497	493	440	390	
4	0	0	0	0	504	504	439	390	
5	0	0	0	0	511	509	439	390	
6	0	0	0	0	507	515	440	390	
7	0	0	0	0	513	515	440	390	
8	0	0	0	0	524	509	440	391	
9	0	0	0	0	518	507	440	391	
10	0	0	0	0	507	507	440	391	
11	0	0	0	0	515	506	440	390	
12	0	0	0	0	520	510	441	390	
13	0	0	0	0	507	506	440	391	
14	0	0	0	0	505	512	441	390	
15	0	0	0	0	512	514	440	390	
0	0	0	0	0	513	507	440	390	
1	0	0	0	0	507	512	440	391	
2	0	0	0	0	508	506	440	391	
3	0	0	0	0	513	507	441	391	
4	0	0	0	0	517	505	441	391	
5	0	0	0	0	509	505	441	390	
6	0	0	0	0	516	510	442	391	
7	0	0	0	0	524	518	441	391	
8	0	0	0	0	520	519	440	391	
9	0	0	0	0	509	509	441	391	
10	0	0	0	0	502	508	441	391	
11	0	0	0	0	501	513	441	391	
12	0	0	0	0	515	500	441	391	
13	0	0	0	0	514	487	441	391	
14	0	0	0	0	500	497	441	391	
15	0	0	0	0	498	496	441	391	
0	0	0	0	0	508	505	441	391	
1	0	0	0	0	518	514	442	391	
2	0	0	0	0	510	513	441	391	
3	0	0	0	0	520	515	441	391	
4	0	0	0	0	524	518	441	391	
5	0	0	0	0	511	509	441	391	
6	0	0	0	0	501	507	441	391	
7	0	0	0	0	509	505	441	391	
8	0	0	0	0	509	502	441	391	
9	0	0	0	0	513	503	441	391	
10	0	0	0	0	523	503	441	391	
11	0	0	0	0	520	511	441	391	
12	0	0	0	0	502	514	440	391	
13	0	0	0	0	499	510	440	391	
14	0	0	0	0	502	507	439	391	
15	0	0	0	0	512	511	439	390	
0	0	0	0	0	517	515	440	391	
1	0	0	0	0	522	509	440	391	
2	0	0	0	0	521	510	441	391	
3	0	0	0	0	516	510	441	391	
4	0	0	0	0	506	508	440	391	
5	0	0	0	0	506	504	440	391	
6	0	0	0	0	503	502	440	391	
7	0	0	0	0	504	499	440	391	
8	0	0	0	0	507	502	440	391	
9	0	0	0	0	503	508	440	391	
10	0	0	0	0	485	510	440	391	
11	0	0	0	0	496	519	440	391	
12	0	0	0	0	521	509	440	391	
13	0	0	0	0	535	497	440	391	
14	0	0	0	0	519	506	439	391	
15	0	0	0	0	528	508	440	391	
0	0	0	0	0	536	511	440	391	
1	0	0	0	0	522	519	440	391	
2	0	0	0	0	501	518	440	391	
3	0	0	0	0	488	513	440	391	
4	0	0	0	0	492	517	440	392	
5	0	0	0	0	509	507	440	392	
6	0	0	0	0	526	501	440	391	
7	0	0	0	0	528	496	441	392	
8	0	0	0	0	523	502	440	392	
9	0	0	0	0	492	513	440	391	
10	0	0	0	0	484	518	440	391	
11	0	0	0	0	495	518	440	391	
12	0	0	0	0	508	509	440	391	
13	0	0	0	0	513	500	439	391	
14	0	0	0	0	521	498	439	391	
15	0	0	0	0	527	494	440	391	
0	0	0	0	0	525	500	440	391	
1	0	0	0	0	522	511	440	391	
2	0	0	0	0	506	512	440	391	
3	0	0	0	0	512	515	440	391	
4	0	0	0	0	506	510	440	390	
5	0	0	0	0	518	504	440	391	
6	0	0	0	0	536	505	440	390	
7	0	0	0	0	524	509	440	390	
8	0	0	0	0	505	507	440	390	
9	0	0	0	0	501	511	440	390	
10	0	0	0	0	496	510	440	390	
11	0	0	0	0	499	507	440	390	
12	0	0	0	0	495	513	440	389	
13	0	0	0	0	498	515	441	390	
14	0	0	0	0	515	515	441	391	
15	0	0	0	0	517	511	441	391	
0	0	0	0	0	514	507	441	391	
1	0	0	0	0	503	503	441	391	
2	0	0	0	0	501	497	442	390	
3	0	0	0	0	507	504	442	391	
4	0	0	0	0	503	504	441	391	
5	0	0	0	0	508	509	442	391	
6	0	0	0	0	517	512	442	391	
7	0	0	0	0	523	512	441	391	
8	0	0	0	0	529	511	441	391	
9	0	0	0	0	515	512	441	391	
10	0	0	0	0	509	512	441	391	
11	0	0	0	0	514	495	441	391	
12	0	0	0	0	510	481	443	391	
13	0	0	0	0	520	500	442	391	
14	0	0	0	0	515	505	442	391	
15	0	0	0	0	511	513	441	391	
0	0	0	0	0	519	524	441	392	
1	0	0	0	0	512	518	443	391	
2	0	0	0	0	513	514	442	391	
3	0	0	0	0	506	508	441	391	
4	0	0	0	0	507	510	441	391	
5	0	0	0	0	509	514	441	391	
6	0	0	0	0	503	517	441	391	
7	0	0	0	0	505	511	441	391	
8	0	0	0	0	511	506	441	391	
9	0	0	0	0	523	506	440	391	
10	0	0	0	0	519	507	440	392	
11	0	0	0	0	510	508	441	391	
12	0	0	0	0	506	506	441	391	
13	0	0	0	0	500	506	442	391	
14	0	0	0	0	492	504	441	391	
15	0	0	0	0	492	505	441	391	
0	0	0	0	0	495	504	441	392	
1	0	0	0	0	511	508	440	392	
2	0	0	0	0	526	505	441	392	
3	0	0	0	0	531	505	441	392	
4	0	0	0	0	525	513	440	392	
5	0	0	0	0	512	506	440	392	
6	0	0	0	0	513	512	439	392	
7	0	0	0	0	515	510	440	392	
8	0	0	0	0	514	514	440	391	
9	0	0	0	0	513	521	440	391	
10	0	0	0	0	508	512	440	392	
11	0	0	0	0	519	506	440	392	
12	0	0	0	0	512	505	441	391	
13	0	0	0	0	507	506	441	392	
14	0	0	0	0	507	509	440	392	
15	0	0	0	0	494	510	440	393	
0	0	0	0	0	495	508	441	393	
1	0	0	0	0	496	511	440	394	
2	0	0	0	0	508	507	440	393	
3	0	0	0	0	523	503	441	394	
4	0	0	0	0	519	501	440	394	
5	0	0	0	0	528	503	441	393	
6	0	0	0	0	515	508	441	393	
7	0	0	0	0	521	510	440	392	
8	0	0	0	0	525	507	440	393	
9	0	0	0	0	515	506	440	393	
10	0	0	0	0	515	507	440	393	
11	0	0	0	0	507	509	440	393	
12	0	0	0	0	487	510	441	393	
13	0	0	0	0	492	504	441	393	
14	0	0	0	0	500	508	441	393	
15	0	0	0	0	513	516	441	393	
0	0	0	0	0	526	511	441	393	
1	0	0	0	0	529	505	441	393	
2	0	0	0	0	517	505	441	392	
3	0	0	0	0	515	502	441	392	
4	0	0	0	0	512	502	441	392	
5	0	0	0	0	512	512	441	392	
6	0	0	0	0	506	512	441	392	
7	0	0	0	0	504	510	441	391	
8	0	0	0	0	500	507	441	392	
9	0	0	0	0	505	509	440	391	
10	0	0	0	0	507	508	440	392	
11	0	0	0	0	495	504	440	392	
12	0	0	0	0	510	508	440	392	
13	0	0	0	0	524	512	440	392	
14	0	0	0	0	527	511	440	392	
15	0	0	0	0	524	516	440	393	
0	0	0	0	0	518	520	440	392	
1	0	0	0	0	515	515	440	393	
2	0	0	0	0	489	502	441	393	
3	0	0	0	0	485	499	441	393	
4	0	0	0	0	483	501	441	393	
5	0	0	0	0	490	508	440	393	
6	0	0	0	0	501	507	441	393	
7	0	0	0	0	528	508	442	394	
8	0	0	0	0	555	512	442	394	
9	0	0	0	0	548	517	441	393	
10	0	0	0	0	537	511	442	392	
11	0	0	0	0	519	508	442	393	
12	0	0	0	0	500	508	442	393	
13	0	0	0	0	498	502	442	393	
14	0	0	0	0	512	504	442	393	
15	0	0	0	0	515	508	442	393	
0	0	0	0	0	508	506	442	393	
1	0	0	0	0	500	503	441	393	
2	0	0	0	0	497	506	442	393	
3	0	0	0	0	496	507	443	393	
4	0	0	0	0	503	508	442	393	
5	0	0	0	0	512	508	443	393	
6	0	0	0	0	503	510	443	393	
7	0	0	0	0	500	513	442	393	
8	0	0	0	0	519	513	443	393	
9	0	0	0	0	509	518	443	393	
10	0	0	0	0	524	519	443	393	
11	0	0	0	0	525	518	442	393	
12	0	0	0	0	519	510	442	392	
13	0	0	0	0	521	509	442	392	
14	0	0	0	0	517	514	442	393	
15	0	0	0	0	516	492	442	393	
0	0	0	0	0	509	472	442	393	
1	0	0	0	0	503	485	441	393	
2	0	0	0	0	499	508	442	393	
3	0	0	0	0	502	512	443	392	
4	0	0	0	0	515	515	442	392	
5	0	0	0	0	524	518	442	392	
6	0	0	0	0	508	523	443	391	
7	0	0	0	0	511	513	444	391	
8	0	0	0	0	500	508	444	391	
9	0	0	0	0	509	505	443	391	
10	0	0	0	0	513	504	443	392	
11	0	0	0	0	498	508	444	391	
12	0	0	0	0	487	514	443	391	
13	0	0	0	0	507	521	443	391	
14	0	0	0	0	513	512	442	391	
15	0	0	0	0	519	503	442	391	
0	0	0	0	0	531	499	443	391	
1	0	0	0	0	536	489	444	391	
2	0	0	0	0	534	495	442	391	
3	0	0	0	0	503	507	441	390	
4	0	0	0	0	495	512	441	391	
5	0	0	0	0	498	514	442	391	
6	0	0	0	0	494	513	442	390	
7	0	0	0	0	504	512	443	391	
8	0	0	0	0	501	512	443	391	
9	0	0	0	0	507	511	442	391	
10	0	0	0	0	521	506	441	391	
11	0	0	0	0	535	511	442	391	
12	0	0	0	0	532	510	441	391	
13	0	0	0	0	514	505	441	390	
14	0	0	0	0	496	501	440	390	
15	0	0	0	0	504	508	440	389	
0	0	0	0	0	505	513	440	389	
1	0	0	0	0	505	505	441	389	
2	0	0	0	0	510	505	441	389	
3	0	0	0	0	508	509	441	389	
4	0	0	0	0	521	508	441	390	
5	0	0	0	0	534	511	441	389	
6	0	0	0	0	519	509	441	389	
7	0	0	0	0	504	508	441	389	
8	0	0	0	0	499	508	440	388	
9	0	0	0	0	508	508	441	388	
10	0	0	0	0	504	511	441	389	
11	0	0	0	0	512	513	440	387	
12	0	0	0	0	524	509	441	387	
13	0	0	0	0	513	503	441	387	
14	0	0	0	0	496	497	440	387	
15	0	0	0	0	487	502	441	387	
0	0	0	0	0	496	508	441	387	
1	0	0	0	0	513	517	441	386	
2	0	0	0	0	534	512	440	386	
3	0	0	0	0	530	510	440	385	
4	0	0	0	0	512	504	440	385	
5	0	0	0	0	502	505	440	387	
6	0	0	0	0	505	510	440	385	
7	0	0	0	0	506	514	440	386	
8	0	0	0	0	502	510	440	386	
9	0	0	0	0	500	508	440	386	
10	0	0	0	0	513	508	440	387	
11	0	0	0	0	517	504	441	386	
12	0	0	0	0	524	504	440	387	
13	0	0	0	0	535	505	440	387	
14	0	0	0	0	510	508	440	386	
15	0	0	0	0	507	514	440	386	
0	0	0	0	0	505	519	440	387	
1	0	0	0	0	521	516	440	387	
2	0	0	0	0	537	510	440	387	
3	0	0	0	0	525	517	440	387	
4	0	0	0	0	504	504	440	387	
5	0	0	0	0	494	481	440	387	
6	0	0	0	0	499	479	440	387	
7	0	0	0	0	500	509	440	387	
8	0	0	0	0	502	512	440	386	
9	0	0	0	0	505	507	440	387	
10	0	0	0	0	513	510	440	386	
11	0	0	0	0	511	516	440	386	
12	0	0	0	0	499	527	440	386	
13	0	0	0	0	500	518	441	386	
14	0	0	0	0	512	514	440	386	
15	0	0	0	0	519	510	440	386	
0	0	0	0	0	515	508	440	386	
1	0	0	0	0	525	500	440	386	
2	0	0	0	0	527	493	441	386	
3	0	0	0	0	502	494	440	386	
4	0	0	0	0	496	505	441	385	
5	0	0	0	0	509	508	441	385	
6	0	0	0	0	525	509	440	386	
7	0	0	0	0	521	514	440	386	
8	0	0	0	0	513	513	441	386	
9	0	0	0	0	512	505	441	386	
10	0	0	0	0	521	504	441	386	
11	0	0	0	0	524	509	443	386	
12	0	0	0	0	507	512	442	387	
13	0	0	0	0	504	519	441	387	
14	0	0	0	0	504	511	441	387	
15	0	0	0	0	487	506	442	386	
0	0	0	0	0	501	516	442	387	
1	0	0	0	0	499	513	442	386	
2	0	0	0	0	509	509	442	387	
3	0	0	0	0	524	502	442	386	
4	0	0	0	0	531	505	441	387	
5	0	0	0	0	522	505	441	387	
6	0	0	0	0	518	504	442	387	
7	0	0	0	0	511	507	442	387	
8	0	0	0	0	500	507	441	386	
9	0	0	0	0	486	508	443	387	
10	0	0	0	0	493	502	442	387	
11	0	0	0	0	498	505	442	387	
12	0	0	0	0	500	509	441	387	
13	0	0	0	0	525	512	442	386	
14	0	0	0	0	532	511	442	386	
15	0	0	0	0	521	514	442	387	
0	0	0	0	0	508	509	442	387	
1	0	0	0	0	514	508	441	386	
2	0	0	0	0	522	514	441	386	
3	0	0	0	0	532	508	441	386	
4	0	0	0	0	525	502	441	386	
5	0	0	0	0	513	489	441	386	
6	0	0	0	0	504	493	440	387	
7	0	0	0	0	505	507	441	387	
8	0	0	0	0	505	519	440	387	
9	0	0	0	0	509	521	440	387	
10	0	0	0	0	495	515	440	387	
11	0	0	0	0	489	515	440	386	
12	0	0	0	0	505	510	440	385	
13	0	0	0	0	512	506	440	385	
14	0	0	0	0	515	502	440	385	
15	0	0	0	0	508	508	440	385	
0	0	0	0	0	509	511	440	384	
1	0	0	0	0	519	509	440	384	
2	0	0	0	0	516	500	440	384	
3	0	0	0	0	521	503	440	384	
4	0	0	0	0	533	509	440	384	
5	0	0	0	0	519	502	438	384	
6	0	0	0	0	501	507	438	384	
7	0	0	0	0	504	510	437	384	
8	0	0	0	0	511	517	438	384	
9	0	0	0	0	508	519	439	384	
10	0	0	0	0	509	516	438	384	
11	0	0	0	0	512	501	439	384	
12	0	0	0	0	515	492	438	384	
13	0	0	0	0	516	500	438	383	
14	0	0	0	0	514	507	439	383	
15	0	0	0	0	507	502	439	383	
0	0	0	0	0	502	498	439	384	
1	0	0	0	0	510	510	438	384	
2	0	0	0	0	497	508	439	384	
3	0	0	0	0	501	509	438	384	
4	0	0	0	0	495	503	438	383	
5	0	0	0	0	489	508	439	384	
6	0	0	0	0	483	505	439	383	
7	0	0	0	0	511	514	439	384	
8	0	0	0	0	565	519	438	384	
9	0	0	0	0	553	523	438	383	
10	0	0	0	0	532	522	438	383	
11	0	0	0	0	519	509	439	383	
12	0	0	0	0	511	510	439	383	
13	0	0	0	0	518	506	440	382	
14	0	0	0	0	509	506	440	382	
15	0	0	0	0	506	504	439	382	
0	0	0	0	0	507	502	439	381	
1	0	0	0	0	509	501	438	382	
2	0	0	0	0	504	506	440	382	
3	0	0	0	0	501	512	440	382	
4	0	0	0	0	501	508	440	382	
5	0	0	0	0	500	508	440	383	
6	0	0	0	0	502	506	440	382	
7	0	0	0	0	511	509	439	383	
8	0	0	0	0	516	507	440	382	
9	0	0	0	0	513	509	441	383	
10	0	0	0	0	506	510	440	383	
11	0	0	0	0	508	506	441	382	
12	0	0	0	0	508	504	440	383	
13	0	0	0	0	516	506	440	383	
14	0	0	0	0	515	516	440	383	
15	0	0	0	0	511	522	440	384	
0	0	0	0	0	504	511	439	383	
1	0	0	0	0	509	511	440	383	
2	0	0	0	0	520	503	439	383	
3	0	0	0	0	503	496	439	383	
4	0	0	0	0	507	487	439	383	
5	0	0	0	0	512	495	439	384	
6	0	0	0	0	509	505	439	384	
7	0	0	0	0	493	512	439	384	
8	0	0	0	0	491	511	440	384	
9	0	0	0	0	495	511	438	384	
10	0	0	0	0	514	518	438	384	
11	0	0	0	0	532	515	439	383	
12	0	0	0	0	559	511	439	383	
13	0	0	0	0	555	512	439	383	
14	0	0	0	0	521	509	439	383	
15	0	0	0	0	509	509	440	383	
0	0	0	0	0	502	510	439	384	
1	0	0	0	0	502	508	439	383	
2	0	0	0	0	501	512	439	383	
3	0	0	0	0	502	510	439	382	
4	0	0	0	0	506	503	440	383	
5	0	0	0	0	505	501	440	383	
6	0	0	0	0	504	506	439	383	
7	0	0	0	0	504	509	439	383	
8	0	0	0	0	510	513	439	383	
9	0	0	0	0	512	509	439	383	
10	0	0	0	0	512	512	439	383	
11	0	0	0	0	529	511	439	383	
12	0	0	0	0	528	503	438	383	
13	0	0	0	0	514	497	439	382	
14	0	0	0	0	505	494	439	382	
15	0	0	0	0	496	499	439	382	
0	0	0	0	0	499	513	439	382	
1	0	0	0	0	503	515	438	382	
2	0	0	0	0	502	515	438	382	
3	0	0	0	0	508	512	438	382	
4	0	0	0	0	513	509	438	384	
5	0	0	0	0	512	508	438	381	
6	0	0	0	0	511	509	439	381	
7	0	0	0	0	516	514	438	381	
8	0	0	0	0	519	512	438	381	
9	0	0	0	0	522	510	438	380	
10	0	0	0	0	515	514	438	380	
11	0	0	0	0	509	509	437	380	
12	0	0	0	0	508	508	437	380	
13	0	0	0	0	510	499	437	379	
14	0	0	0	0	508	499	436	378	
15	0	0	0	0	510	497	436	376	
0	0	0	0	0	509	499	436	375	
1	0	0	0	0	501	504	435	374	
2	0	0	0	0	511	512	436	373	
3	0	0	0	0	508	511	436	371	
4	0	0	0	0	509	514	436	373	
5	0	0	0	0	515	514	437	372	
6	0	0	0	0	516	514	436	368	
7	0	0	0	0	513	511	437	369	
8	0	0	0	0	512	511	436	370	
9	0	0	0	0	513	510	435	368	
10	0	0	0	0	508	508	436	370	
11	0	0	0	0	505	508	435	369	
12	0	0	0	0	512	503	435	369	
13	0	0	0	0	512	507	434	369	
14	0	0	0	0	502	506	434	368	
15	0	0	0	0	501	508	434	366	
0	0	0	0	0	505	510	434	367	
1	0	0	0	0	519	507	435	370	
2	0	0	0	0	547	512	433	371	
3	0	0	0	0	538	504	434	370	
4	0	0	0	0	506	493	432	371	
5	0	0	0	0	490	498	432	374	
6	0	0	0	0	494	518	431	373	
7	0	0	0	0	497	512	431	376	
8	0	0	0	0	496	507	432	375	
9	0	0	0	0	499	508	432	375	
10	0	0	0	0	508	508	432	375	
11	0	0	0	0	516	504	432	375	
12	0	0	0	0	527	507	433	375	
13	0	0	0	0	525	512	432	375	
14	0	0	0	0	515	512	433	375	
15	0	0	0	0	519	513	432	375	
0	0	0	0	0	526	512	431	375	
1	0	0	0	0	532	512	432	374	
2	0	0	0	0	521	508	431	375	
3	0	0	0	0	502	510	432	374	
4	0	0	0	0	499	506	431	373	
5	0	0	0	0	501	503	430	374	
6	0	0	0	0	505	503	429	373	
7	0	0	0	0	504	506	429	373	
8	0	0	0	0	502	508	428	374	
9	0	0	0	0	508	508	429	373	
10	0	0	0	0	512	511	429	374	
11	0	0	0	0	510	507	429	373	
12	0	0	0	0	512	510	429	373	
13	0	0	0	0	512	512	429	374	
14	0	0	0	0	510	509	429	374	
15	0	0	0	0	511	510	427	373	
0	0	0	0	0	514	508	427	374	
1	0	0	0	0	514	508	427	374	
2	0	0	0	0	512	508	427	374	
3	0	0	0	0	514	505	426	374	
4	0	0	0	0	511	506	426	373	
5	0	0	0	0	508	508	424	371	
6	0	0	0	0	509	509	424	370	
7	0	0	0	0	508	508	424	369	
8	0	0	0	0	515	508	423	371	
9	0	0	0	0	507	508	422	369	
10	0	0	0	0	506	509	423	367	
11	0	0	0	0	517	510	423	366	
12	0	0	0	0	510	504	423	365	
13	0	0	0	0	508	505	422	364	
14	0	0	0	0	506	506	423	364	
15	0	0	0	0	519	511	421	364	
0	0	0	0	0	515	513	422	364	
1	0	0	0	0	508	513	420	363	
2	0	0	0	0	507	509	420	364	
3	0	0	0	0	512	506	422	364	
4	0	0	0	0	516	500	419	364	
5	0	0	0	0	510	497	413	363	
6	0	0	0	0	512	495	410	361	
7	0	0	0	0	510	507	410	361	
8	0	0	0	0	512	518	410	359	
9	0	0	0	0	506	521	409	359	
10	0	0	0	0	510	523	410	360	
11	0	0	0	0	518	516	409	359	
12	0	0	0	0	513	511	410	356	
13	0	0	0	0	510	502	408	358	
14	0	0	0	0	513	492	408	355	
15	0	0	0	0	509	491	408	355	
0	0	0	0	0	504	505	408	357	
1	0	0	0	0	504	502	407	356	
2	0	0	0	0	517	500	407	356	
3	0	0	0	0	515	512	408	356	
4	0	0	0	0	515	513	408	345	
5	0	0	0	0	515	517	408	345	
6	0	0	0	0	522	514	406	347	
7	0	0	0	0	527	513	407	346	
8	0	0	0	0	539	518	407	344	
9	0	0	0	0	496	510	406	345	
10	0	0	0	0	492	499	406	346	
11	0	0	0	0	501	501	406	343	
12	0	0	0	0	504	512	406	343	
13	0	0	0	0	506	507	406	343	
14	0	0	0	0	507	500	404	344	
15	0	0	0	0	503	505	405	344	
0	0	0	0	0	505	512	405	344	
1	0	0	0	0	508	514	406	344	
2	0	0	0	0	507	511	404	344	
3	0	0	0	0	510	511	404	343	
4	0	0	0	0	514	515	404	344	
5	0	0	0	0	516	513	404	345	
6	0	0	0	0	512	507	404	344	
7	0	0	0	0	511	505	403	344	
8	0	0	0	0	518	506	403	345	
9	0	0	0	0	518	509	402	344	
10	0	0	0	0	510	509	402	345	
11	0	0	0	0	509	508	402	344	
12	0	0	0	0	505	503	402	344	
13	0	0	0	0	506	507	401	344	
14	0	0	0	0	508	509	401	344	
15	0	0	0	0	508	506	401	344	
0	0	0	0	0	511	508	401	344	
1	0	0	0	0	518	509	401	343	
2	0	0	0	0	518	503	400	344	
3	0	0	0	0	518	504	400	344	
4	0	0	0	0	519	508	400	343	
5	0	0	0	0	518	511	400	343	
6	0	0	0	0	508	510	401	343	
7	0	0	0	0	508	508	400	342	
8	0	0	0	0	507	514	401	342	
9	0	0	0	0	509	511	400	342	
10	0	0	0	0	500	506	398	342	
11	0	0	0	0	509	507	398	342	
12	0	0	0	0	521	506	399	342	
13	0	0	0	0	508	501	398	341	
14	0	0	0	0	519	504	397	342	
15	0	0	0	0	509	508	397	342	
0	0	0	0	0	498	508	394	342	
1	0	0	0	0	495	512	393	341	
2	0	0	0	0	499	510	394	341	
3	0	0	0	0	503	507	393	340	
4	0	0	0	0	502	509	391	341	
5	0	0	0	0	512	509	391	341	
6	0	0	0	0	525	508	392	342	
7	0	0	0	0	516	507	393	342	
8	0	0	0	0	507	507	392	342	
9	0	0	0	0	524	510	392	341	
10	0	0	0	0	552	511	391	342	
11	0	0	0	0	547	510	391	341	
12	0	0	0	0	535	510	391	340	
13	0	0	0	0	527	509	391	340	
14	0	0	0	0	506	511	391	340	
15	0	0	0	0	497	511	391	340	
0	0	0	0	0	500	507	390	340	
1	0	0	0	0	498	502	390	340	
2	0	0	0	0	495	503	390	340	
3	0	0	0	0	490	508	391	341	
4	0	0	0	0	495	510	389	341	
5	0	0	0	0	503	511	389	341	
6	0	0	0	0	503	502	390	340	
7	0	0	0	0	508	501	389	340	
8	0	0	0	0	502	501	389	340	
9	0	0	0	0	516	504	389	340	
10	0	0	0	0	524	511	390	341	
11	0	0	0	0	527	513	391	341	
12	0	0	0	0	520	512	391	339	
13	0	0	0	0	511	510	389	340	
14	0	0	0	0	501	507	389	339	
15	0	0	0	0	501	515	389	339	
0	0	0	0	0	505	513	387	339	
1	0	0	0	0	508	512	387	340	
2	0	0	0	0	506	508	387	340	
3	0	0	0	0	524	508	386	339	
4	0	0	0	0	535	499	386	338	
5	0	0	0	0	519	495	386	339	
6	0	0	0	0	512	508	386	339	
7	0	0	0	0	509	507	386	338	
8	0	0	0	0	510	507	387	339	
9	0	0	0	0	511	508	387	339	
10	0	0	0	0	512	512	388	339	
11	0	0	0	0	514	512	387	339	
12	0	0	0	0	512	511	387	338	
13	0	0	0	0	506	514	387	338	
14	0	0	0	0	508	515	387	338	
15	0	0	0	0	510	513	386	338	
0	0	0	0	0	508	511	386	338	
1	0	0	0	0	510	506	386	337	
2	0	0	0	0	509	497	387	338	
3	0	0	0	0	508	495	386	337	
4	0	0	0	0	508	500	385	337	
5	0	0	0	0	509	511	386	336	
6	0	0	0	0	508	515	386	336	
7	0	0	0	0	506	511	386	337	
8	0	0	0	0	506	509	386	337	
9	0	0	0	0	507	512	384	336	
10	0	0	0	0	506	510	384	336	
11	0	0	0	0	514	507	385	335	
12	0	0	0	0	517	507	385	334	
13	0	0	0	0	516	507	385	334	
14	0	0	0	0	511	508	384	335	
15	0	0	0	0	507	506	385	334	
0	0	0	0	0	513	508	383	335	
1	0	0	0	0	523	508	383	334	
2	0	0	0	0	525	504	383	334	
3	0	0	0	0	514	506	383	334	
4	0	0	0	0	509	512	384	335	
5	0	0	0	0	521	521	381	334	
6	0	0	0	0	514	516	382	332	
7	0	0	0	0	504	512	381	332	
8	0	0	0	0	505	513	379	332	
9	0	0	0	0	507	504	380	331	
10	0	0	0	0	519	492	379	329	
11	0	0	0	0	515	485	380	328	
12	0	0	0	0	510	496	378	324	
13	0	0	0	0	509	514	379	323	
14	0	0	0	0	516	520	378	322	
15	0	0	0	0	510	518	376	322	
0	0	0	0	0	504	513	376	322	
1	0	0	0	0	510	504	375	321	
2	0	0	0	0	515	496	374	320	
3	0	0	0	0	510	497	373	320	
4	0	0	0	0	508	509	374	316	
5	0	0	0	0	513	514	372	317	
6	0	0	0	0	513	515	375	315	
7	0	0	0	0	510	512	371	314	
8	0	0	0	0	509	508	368	313	
9	0	0	0	0	510	510	369	312	
10	0	0	0	0	510	513	368	310	
11	0	0	0	0	511	510	365	310	
12	0	0	0	0	508	507	363	309	
13	0	0	0	0	511	507	361	308	
14	0	0	0	0	506	502	362	306	
15	0	0	0	0	503	503	362	305	
0	0	0	0	0	502	508	359	304	
1	0	0	0	0	505	508	358	304	
2	0	0	0	0	507	508	358	303	
3	0	0	0	0	512	509	355	302	
4	0	0	0	0	513	509	356	301	
5	0	0	0	0	511	508	350	300	
6	0	0	0	0	519	510	351	299	
7	0	0	0	0	522	508	350	300	
8	0	0	0	0	519	506	348	298	
9	0	0	0	0	510	507	350	296	
10	0	0	0	0	511	509	349	296	
11	0	0	0	0	522	509	347	292	
12	0	0	0	0	521	508	347	291	
13	0	0	0	0	510	508	345	288	
14	0	0	0	0	498	508	344	286	
15	0	0	0	0	496	509	343	279	
0	0	0	0	0	504	508	341	276	
1	0	0	0	0	512	509	340	274	
2	0	0	0	0	505	509	343	272	
3	0	0	0	0	507	506	342	272	
4	0	0	0	0	514	507	340	269	
5	0	0	0	0	506	508	341	268	
6	0	0	0	0	502	509	340	265	
7	0	0	0	0	508	511	340	263	
8	0	0	0	0	508	510	342	261	
9	0	0	0	0	508	507	341	261	
10	0	0	0	0	512	509	339	258	
11	0	0	0	0	513	510	338	255	
12	0	0	0	0	538	512	339	253	
13	0	0	0	0	544	509	337	252	
14	0	0	0	0	557	507	337	250	
15	0	0	0	0	552	509	336	249	
0	0	0	0	0	524	502	336	247	
1	0	0	0	0	503	496	335	244	
2	0	0	0	0	494	502	334	243	
3	0	0	0	0	494	515	330	242	
4	0	0	0	0	475	516	329	236	
5	0	0	0	0	467	511	329	236	
6	0	0	0	0	471	505	329	234	
7	0	0	0	0	489	504	329	231	
8	0	0	0	0	517	509	327	230	
9	0	0	0	0	512	508	324	229	
10	0	0	0	0	505	508	323	226	
11	0	0	0	0	518	508	321	211	
12	0	0	0	0	523	512	315	210	
13	0	0	0	0	518	510	317	206	
14	0	0	0	0	512	509	319	202	
15	0	0	0	0	506	511	314	195	
0	0	0	0	0	518	509	312	194	
1	0	0	0	0	521	507	310	190	
2	0	0	0	0	507	506	309	192	
3	0	0	0	0	504	515	308	191	
4	0	0	0	0	492	508	308	185	
5	0	0	0	0	492	505	309	195	
6	0	0	0	0	502	504	307	199	
7	0	0	0	0	515	507	301	196	
8	0	0	0	0	521	505	295	198	
9	0	0	0	0	545	509	296	198	
10	0	0	0	0	553	507	297	200	
11	0	0	0	0	545	508	301	196	
12	0	0	0	0	528	509	300	197	
13	0	0	0	0	516	510	300	184	
14	0	0	0	0	516	510	299	184	
15	0	0	0	0	504	514	297	132	
0	0	0	0	0	493	511	295	129	
1	0	0	0	0	483	508	294	139	
2	0	0	0	0	499	507	294	129	
3	0	0	0	0	503	507	290	126	
4	0	0	0	0	506	505	291	130	
5	0	0	0	0	513	506	292	124	
6	0	0	0	0	525	507	289	124	
7	0	0	0	0	528	505	286	121	
8	0	0	0	0	523	507	283	124	
9	0	0	0	0	507	508	280	124	
10	0	0	0	0	499	510	279	113	
11	0	0	0	0	514	507	276	111	
12	0	0	0	0	513	511	272	98	
13	0	0	0	0	497	508	271	97	
14	0	0	0	0	485	506	273	110	
15	0	0	0	0	519	510	272	97	
0	0	0	0	0	529	507	268	109	
1	0	0	0	0	512	504	268	114	
2	0	0	0	0	516	509	264	103	
3	0	0	0	0	495	509	255	99	
4	0	0	0	0	485	508	255	91	
5	0	0	0	0	483	507	245	95	
6	0	0	0	0	493	506	246	97	
7	0	0	0	0	512	509	246	96	
8	0	0	0	0	511	510	244	101	
9	0	0	0	0	511	509	234	103	
10	0	0	0	0	502	510	231	103	
11	0	0	0	0	511	510	222	98	
12	0	0	0	0	525	508	214	92	
13	0	0	0	0	530	507	192	94	
14	0	0	0	0	538	505	188	91	
15	0	0	0	0	527	508	180	95	
0	0	0	0	0	513	505	177	95	
1	0	0	0	0	507	505	171	72	
2	0	0	0	0	503	504	167	68	
3	0	0	0	0	507	507	161	64	
4	0	0	0	0	511	509	154	59	
5	0	0	0	0	515	508	155	52	
6	0	0	0	0	518	510	155	47	
7	0	0	0	0	518	510	151	49	
8	0	0	0	0	515	508	144	57	
9	0	0	0	0	513	508	137	53	
10	0	0	0	0	515	507	134	55	
11	0	0	0	0	516	509	133	52	
12	0	0	0	0	516	510	136	52	
13	0	0	0	0	517	510	134	43	
14	0	0	0	0	521	513	127	19	
15	0	0	0	0	524	515	126	18	
0	0	0	0	0	510	507	122	17	
1	0	0	0	0	492	507	120	14	
2	0	0	0	0	491	508	124	14	
3	0	0	0	0	499	506	121	13	
4	0	0	0	0	503	507	117	12	
5	0	0	0	0	512	506	120	11	
6	0	0	0	0	512	506	118	10	
7	0	0	0	0	508	507	117	9	
8	0	0	0	0	511	505	112	9	
9	0	0	0	0	510	507	113	8	
10	0	0	0	0	509	507	112	7	
11	0	0	0	0	511	507	112	6	
12	0	0	0	0	511	506	109	5	
13	0	0	0	0	510	505	108	2	
14	0	0	0	0	510	505	103	0	
15	0	0	0	0	511	508	99	0	
0	0	0	0	0	512	508	98	0	
1	0	0	0	0	515	508	92	0	
2	0	0	0	0	514	510	93	0	
3	0	0	0	0	512	509	90	0	
4	0	0	0	0	508	510	85	0	
5	0	0	0	0	509	508	76	0	
6	0	0	0	0	500	508	74	0	
7	0	0	0	0	503	508	73	0	
8	0	0	0	0	511	507	70	0	
9	0	0	0	0	508	509	70	0	
10	0	0	0	0	513	509	56	0	
11	0	0	0	0	520	509	60	0	
12	0	0	0	0	521	508	55	0	
13	0	0	0	0	522	510	47	0	
14	0	0	0	0	520	509	50	0	
15	0	0	0	0	520	507	44	0	
0	0	0	0	0	513	508	44	0	
1	0	0	0	0	510	510	44	0	
2	0	0	0	0	504	511	40	0	
3	0	0	0	0	511	507	39	0	
4	0	0	0	0	512	507	38	0	
5	0	0	0	0	514	507	37	0	
6	0	0	0	0	515	507	37	0	
7	0	0	0	0	511	507	37	0	
8	0	0	0	0	508	506	38	0	
9	0	0	0	0	509	508	37	0	
10	0	0	0	0	510	504	38	0	
11	0	0	0	0	509	507	35	0	
12	0	0	0	0	507	507	34	0	
13	0	0	0	0	508	510	33	0	
14	0	0	0	0	508	509	31	0	
15	0	0	0	0	511	511	31	0	
0	0	0	0	0	511	508	31	0	
1	0	0	0	0	511	508	29	0	
2	0	0	0	0	512	507	28	0	
3	0	0	0	0	514	508	24	0	
4	0	0	0	0	512	508	22	0	
5	0	0	0	0	512	508	20	0	
6	0	0	0	0	513	509	19	0	
7	0	0	0	0	514	509	14	0	
8	0	0	0	0	513	510	11	0	
9	0	0	0	0	512	508	11	0	
10	0	0	0	0	512	510	9	0	
11	0	0	0	0	510	507	3	0	
12	0	0	0	0	511	507	3	0	
13	0	0	0	0	510	509	0	0	
14	0	0	0	0	511	509	0	0	
15	0	0	0	0	511	510	0	0	
0	0	0	0	0	509	507	0	0	
1	0	0	0	0	511	508	0	0	
2	0	0	0	0	509	507	0	0	
3	0	0	0	0	508	507	0	0	
4	0	0	0	0	510	507	0	0	
5	0	0	0	0	508	508	0	0	
6	0	0	0	0	510	509	0	0	
7	0	0	0	0	513	508	0	0	
8	0	0	0	0	511	508	0	0	
9	0	0	0	0	512	508	0	0	
10	0	0	0	0	513	508	0	0	
11	0	0	0	0	510	507	0	0	
12	0	0	0	0	513	507	0	0	
13	0	0	0	0	513	507	0	0	
14	0	0	0	0	510	508	0	0	
15	0	0	0	0	511	507	0	0	
0	0	0	0	0	512	508	0	0	
1	0	0	0	0	511	508	0	0	
2	0	0	0	0	509	507	0	0	
3	0	0	0	0	509	508	0	0	
4	0	0	0	0	508	508	0	0	
5	0	0	0	0	510	508	0	0	
6	0	0	0	0	510	508	0	0	
7	0	0	0	0	511	508	0	0	
8	0	0	0	0	509	508	0	0	
9	0	0	0	0	510	508	0	0	
10	0	0	0	0	509	510	0	0	
11	0	0	0	0	512	507	0	0	
12	0	0	0	0	512	509	0	0	
13	0	0	0	0	512	509	0	0	
14	0	0	0	0	513	508	0	0	
15	0	0	0	0	512	508	0	0	
0	0	0	0	0	514	508	0	0	
1	0	0	0	0	512	508	0	0	
2	0	0	0	0	510	507	0	0	
3	0	0	0	0	512	507	0	0	
4	0	0	0	0	513	508	0	0	
5	0	0	0	0	511	508	0	0	
6	0	0	0	0	510	508	0	0	
7	0	0	0	0	509	508	0	0	
8	0	0	0	0	508	506	0	0	
9	0	0	0	0	511	506	0	0	
10	0	0	0	0	511	507	0	0	
11	0	0	0	0	511	507	0	0	
12	0	0	0	0	510	509	0	0	
13	0	0	0	0	509	509	0	0	
14	0	0	0	0	510	510	0	0	
15	0	0	0	0	510	510	0	0	
0	0	0	0	0	511	510	0	0	
1	0	0	0	0	511	511	0	0	
2	0	0	0	0	513	508	0	0	
3	0	0	0	0	514	508	0	0	
4	0	0	0	0	513	508	0	0	
5	0	0	0	0	513	510	0	0	
6	0	0	0	0	513	508	0	0	
7	0	0	0	0	513	508	0	0	
8	0	0	0	0	510	506	0	0	
9	0	0	0	0	511	507	0	0	
10	0	0	0	0	510	507	0	0	
11	0	0	0	0	507	509	0	0	
12	0	0	0	0	509	506	0	0	
13	0	0	0	0	511	506	0	0	
14	0	0	0	0	510	508	0	0	
15	0	0	0	0	510	507	0	0	
0	0	0	0	0	511	508	0	0	
1	0	0	0	0	509	507	0	0	
2	0	0	0	0	509	508	0	0	
3	0	0	0	0	510	507	0	0	
4	0	0	0	0	512	508	0	0	
5	0	0	0	0	513	508	0	0	
6	0	0	0	0	513	508	0	0	
7	0	0	0	0	512	508	0	0	
8	0	0	0	0	514	509	0	0	
9	0	0	0	0	512	508	0	0	
10	0	0	0	0	511	508	0	0	
11	0	0	0	0	512	508	0	0	
12	0	0	0	0	510	508	0	0	
13	0	0	0	0	512	507	0	0	
14	0	0	0	0	512	511	0	0	
15	0	0	0	0	511	508	0	0	
0	0	0	0	0	511	507	0	0	
1	0	0	0	0	510	506	0	0	
2	0	0	0	0	509	508	0	0	
3	0	0	0	0	510	507	0	0	
4	0	0	0	0	510	509	0	0	
5	0	0	0	0	510	510	0	0	
6	0	0	0	0	509	507	0	0	
7	0	0	0	0	512	508	0	0	
8	0	0	0	0	515	508	0	0	
9	0	0	0	0	511	509	0	0	
10	0	0	0	0	512	507	0	0	
11	0	0	0	0	512	509	0	0	
12	0	0	0	0	512	507	0	0	
13	0	0	0	0	511	507	0	0	
14	0	0	0	0	512	508	0	0	
15	0	0	0	0	511	507	0	0	
0	0	0	0	0	513	505	0	0	
1	0	0	0	0	512	507	0	0	
2	0	0	0	0	508	507	0	0	
3	0	0	0	0	510	508	0	0	
4	0	0	0	0	506	509	0	0	
5	0	0	0	0	510	507	0	0	
6	0	0	0	0	510	508	0	0	
7	0	0	0	0	510	509	0	0	
8	0	0	0	0	511	510	0	0	
9	0	0	0	0	511	508	0	0	
10	0	0	0	0	511	509	0	0	
11	0	0	0	0	512	508	0	0	
12	0	0	0	0	511	508	0	0	
13	0	0	0	0	512	508	0	0	
14	0	0	0	0	511	509	0	0	
15	0	0	0	0	512	508	0	0	
0	0	0	0	0	512	508	0	0	
1	0	0	0	0	513	508	0	0	
2	0	0	0	0	511	508	0	0	
3	0	0	0	0	511	509	0	0	
4	0	0	0	0	513	507	0	0	
5	0	0	0	0	511	508	0	0	
6	0	0	0	0	510	508	0	0	
7	0	0	0	0	512	509	0	0	
8	0	0	0	0	509	507	0	0	
9	0	0	0	0	507	508	0	0	
10	0	0	0	0	508	510	0	0	
11	0	0	0	0	508	509	0	0	
12	0	0	0	0	510	510	0	0	
13	0	0	0	0	509	508	0	0	
14	0	0	0	0	510	506	0	0	
15	0	0	0	0	512	508	0	0	
0	0	0	0	0	511	505	0	0	
1	0	0	0	0	514	509	0	0	
2	0	0	0	0	514	509	0	0	
3	0	0	0	0	513	508	0	0	
4	0	0	0	0	511	509	0	0	
5	0	0	0	0	514	508	0	0	
6	0	0	0	0	512	509	0	0	
7	0	0	0	0	512	506	0	0	
8	0	0	0	0	513	508	0	0	
9	0	0	0	0	511	509	0	0	
10	0	0	0	0	509	510	0	0	
11	0	0	0	0	506	507	0	0	
12	0	0	0	0	509	508	0	0	
13	0	0	0	0	508	507	0	0	
14	0	0	0	0	510	507	0	0	
15	0	0	0	0	508	509	0	0	
0	0	0	0	0	510	508	0	0	
1	0	0	0	0	510	509	0	0	
2	0	0	0	0	511	508	0	0	
3	0	0	0	0	512	507	0	0	
4	0	0	0	0	509	508	0	0	
5	0	0	0	0	512	509	0	0	
6	0	0	0	0	514	508	0	0	
7	0	0	0	0	515	508	0	0	
8	0	0	0	0	513	509	0	0	
9	0	0	0	0	512	508	0	0	
10	0	0	0	0	513	507	0	0	
11	0	0	0	0	512	506	0	0	
12	0	0	0	0	511	510	0	0	
13	0	0	0	0	513	508	0	0	
14	0	0	0	0	511	509	0	0	
15	0	0	0	0	510	508	0	0	
0	0	0	0	0	507	509	0	0	
1	0	0	0	0	510	508	0	0	
2	0	0	0	0	508	506	0	0	
3	0	0	0	0	510	507	0	0	
4	0	0	0	0	509	509	0	0	
5	0	0	0	0	511	507	0	0	
6	0	0	0	0	511	507	0	0	
7	0	0	0	0	513	507	0	0	
8	0	0	0	0	511	509	0	0	
9	0	0	0	0	512	508	0	0	
10	0	0	0	0	512	510	0	0	
11	0	0	0	0	512	508	0	0	
12	0	0	0	0	512	508	0	0	
13	0	0	0	0	512	507	0	0	
14	0	0	0	0	511	508	0	0	
15	0	0	0	0	512	506	0	0	
0	0	0	0	0	512	508	0	0	
1	0	0	0	0	512	507	0	0	
2	0	0	0	0	509	509	0	0	
3	0	0	0	0	511	508	0	0	
4	0	0	0	0	511	508	0	0	
5	0	0	0	0	511	508	0	0	
6	0	0	0	0	509	508	0	0	
7	0	0	0	0	509	508	0	0	
8	0	0	0	0	509	508	0	0	
9	0	0	0	0	510	509	0	0	
10	0	0	0	0	512	509	0	0	
11	0	0	0	0	511	508	0	0	
12	0	0	0	0	512	508	0	0	
13	0	0	0	0	511	507	0	0	
14	0	0	0	0	513	507	0	0	
15	0	0	0	0	512	508	0	0	
0	0	0	0	0	514	508	0	0	
1	0	0	0	0	514	508	0	0	
2	0	0	0	0	514	506	0	0	
3	0	0	0	0	513	505	0	0	
4	0	0	0	0	512	508	0	0	
5	0	0	0	0	511	509	0	0	
6	0	0	0	0	509	508	0	0	
7	0	0	0	0	508	509	0	0	
8	0	0	0	0	510	509	0	0	
9	0	0	0	0	510	509	0	0	
10	0	0	0	0	511	507	0	0	
11	0	0	0	0	510	507	0	0	
12	0	0	0	0	509	507	0	0	
13	0	0	0	0	509	510	0	0	
14	0	0	0	0	510	508	0	0	
15	0	0	0	0	509	508	0	0	
0	0	0	0	0	511	508	0	0	
1	0	0	0	0	512	507	0	0	
2	0	0	0	0	511	509	0	0	
3	0	0	0	0	513	509	0	0	
4	0	0	0	0	511	508	0	0	
5	0	0	0	0	513	507	0	0	
6	0	0	0	0	514	510	0	0	
7	0	0	0	0	511	509	0	0	
8	0	0	0	0	512	508	0	0	
9	0	0	0	0	511	507	0	0	
10	0	0	0	0	510	506	0	0	
11	0	0	0	0	512	505	0	0	
12	0	0	0	0	511	509	0	0	
13	0	0	0	0	510	507	0	0	
14	0	0	0	0	511	508	0	0	
15	0	0	0	0	508	507	0	0	
0	0	0	0	0	512	509	0	0	
1	0	0	0	0	510	510	0	0	
2	0	0	0	0	509	508	0	0	
3	0	0	0	0	512	508	0	0	
4	0	0	0	0	512	508	0	0	
5	0	0	0	0	512	508	0	0	
6	0	0	0	0	511	508	0	0	
7	0	0	0	0	512	508	0	0	
8	0	0	0	0	513	507	0	0	
9	0	0	0	0	515	508	0	0	
10	0	0	0	0	512	510	0	0	
11	0	0	0	0	512	508	0	0	
12	0	0	0	0	512	508	0	0	
13	0	0	0	0	512	510	0	0	
14	0	0	0	0	511	510	0	0	
15	0	0	0	0	510	508	0	0	
0	0	0	0	0	509	508	0	0	
1	0	0	0	0	507	508	0	0	
2	0	0	0	0	509	508	0	0	
3	0	0	0	0	511	506	0	0	
4	0	0	0	0	512	508	0	0	
5	0	0	0	0	508	508	0	0	
6	0	0	0	0	511	508	0	0	
7	0	0	0	0	511	507	0	0	
8	0	0	0	0	509	508	0	0	
9	0	0	0	0	513	509	0	0	
10	0	0	0	0	513	508	0	0	
11	0	0	0	0	512	507	0	0	
12	0	0	0	0	514	509	0	0	
13	0	0	0	0	514	506	0	0	
14	0	0	0	0	514	508	0	0	
15	0	0	0	0	511	508	0	0	
0	0	0	0	0	511	508	0	0	
1	0	0	0	0	512	507	0	0	
2	0	0	0	0	509	508	0	0	
3	0	0	0	0	510	508	0	0	
4	0	0	0	0	511	508	0	0	
5	0	0	0	0	512	508	0	0	
6	0	0	0	0	510	508	0	0	
7	0	0	0	0	511	507	0	0	
8	0	0	0	0	510	510	0	0	
9	0	0	0	0	509	508	0	0	
10	0	0	0	0	509	508	0	0	
11	0	0	0	0	512	508	0	0	
12	0	0	0	0	511	511	0	0	
13	0	0	0	0	508	508	0	0	
14	0	0	0	0	512	509	0	0	
15	0	0	0	0	511	508	0	0	
0	0	0	0	0	515	507	0	0	
1	0	0	0	0	512	508	0	0	
2	0	0	0	0	513	508	0	0	
3	0	0	0	0	512	506	0	0	
4	0	0	0	0	511	508	0	0	
5	0	0	0	0	512	508	0	0	
6	0	0	0	0	511	507	0	0	
7	0	0	0	0	509	508	0	0	
8	0	0	0	0	509	510	0	0	
9	0	0	0	0	508	509	0	0	
10	0	0	0	0	510	508	0	0	
11	0	0	0	0	510	508	0	0	
12	0	0	0	0	509	508	0	0	
13	0	0	0	0	511	509	0	0	
14	0	0	0	0	511	508	0	0	
15	0	0	0	0	511	510	0	0	
0	0	0	0	0	512	507	0	0	
1	0	0	0	0	511	509	0	0	
2	0	0	0	0	514	508	0	0	
3	0	0	0	0	514	508	0	0	
4	0	0	0	0	511	506	0	0	
5	0	0	0	0	512	508	0	0	
6	0	0	0	0	515	508	0	0	
7	0	0	0	0	512	506	0	0	
8	0	0	0	0	513	506	0	0	
9	0	0	0	0	510	507	0	0	
10	0	0	0	0	510	508	0	0	
11	0	0	0	0	511	508	0	0	
12	0	0	0	0	511	508	0	0	
13	0	0	0	0	510	509	0	0	
14	0	0	0	0	508	507	0	0	
15	0	0	0	0	508	508	0	0	
0	0	0	0	0	508	510	0	0	
1	0	0	0	0	508	509	0	0	
2	0	0	0	0	507	509	0	0	
3	0	0	0	0	510	508	0	0	
4	0	0	0	0	512	509	0	0	
5	0	0	0	0	514	507	0	0	
6	0	0	0	0	511	507	0	0	
7	0	0	0	0	511	507	0	0	
8	0	0	0	0	515	508	0	0	
9	0	0	0	0	513	510	0	0	
10	0	0	0	0	513	508	0	0	
11	0	0	0	0	512	508	0	0	
12	0	0	0	0	511	507	0	0	
13	0	0	0	0	511	507	0	0	
14	0	0	0	0	512	509	0	0	
15	0	0	0	0	511	507	0	0	
0	0	0	0	0	513	508	0	0	
1	0	0	0	0	509	507	0	0	
2	0	0	0	0	510	508	0	0	
3	0	0	0	0	509	508	0	0	
4	0	0	0	0	510	508	0	0	
5	0	0	0	0	508	508	0	0	
6	0	0	0	0	511	509	0	0	
7	0	0	0	0	511	508	0	0	
8	0	0	0	0	511	508	0	0	
9	0	0	0	0	511	509	0	0	
10	0	0	0	0	513	509	0	0	
11	0	0	0	0	512	508	0	0	
12	0	0	0	0	512	509	0	0	
13	0	0	0	0	511	509	0	0	
14	0	0	0	0	512	508	0	0	
15	0	0	0	0	512	509	0	0	
0	0	0	0	0	512	507	0	0	
1	0	0	0	0	512	508	0	0	
2	0	0	0	0	512	507	0	0	
3	0	0	0	0	513	507	0	0	
4	0	0	0	0	510	507	0	0	
5	0	0	0	0	510	509	0	0	
6	0	0	0	0	508	509	0	0	
7	0	0	0	0	509	510	0	0	
8	0	0	0	0	509	509	0	0	
9	0	0	0	0	509	507	0	0	
10	0	0	0	0	512	509	0	0	
11	0	0	0	0	511	509	0	0	
12	0	0	0	0	511	508	0	0	
13	0	0	0	0	513	508	0	0	
14	0	0	0	0	512	508	0	0	
15	0	0	0	0	510	508	0	0	
0	0	0	0	0	513	509	0	0	
1	0	0	0	0	512	509	0	0	
2	0	0	0	0	511	508	0	0	
3	0	0	0	0	511	507	0	0	
4	0	0	0	0	511	506	0	0	
5	0	0	0	0	510	508	0	0	
6	0	0	0	0	512	506	0	0	
7	0	0	0	0	510	508	0	0	
8	0	0	0	0	509	508	0	0	
9	0	0	0	0	508	508	0	0	
10	0	0	0	0	510	509	0	0	
11	0	0	0	0	509	508	0	0	
12	0	0	0	0	511	508	0	0	
13	0	0	0	0	510	510	0	0	
14	0	0	0	0	513	508	0	0	
15	0	0	0	0	512	508	0	0	
0	0	0	0	0	512	510	0	0	
1	0	0	0	0	512	508	0	0	
2	0	0	0	0	512	508	0	0	
3	0	0	0	0	510	509	0	0	
4	0	0	0	0	513	511	0	0	
5	0	0	0	0	513	507	0	0	
6	0	0	0	0	513	509	0	0	
7	0	0	0	0	511	507	0	0	
8	0	0	0	0	511	506	0	0	
9	0	0	0	0	510	508	0	0	
10	0	0	0	0	508	507	0	0	
11	0	0	0	0	511	508	0	0	
12	0	0	0	0	510	509	0	0	
13	0	0	0	0	510	507	0	0	
14	0	0	0	0	510	508	0	0	
15	0	0	0	0	511	509	0	0	
0	0	0	0	0	511	507	0	0	
1	0	0	0	0	511	507	0	0	
2	0	0	0	0	511	508	0	0	
3	0	0	0	0	511	508	0	0	
4	0	0	0	0	511	508	0	0	
5	0	0	0	0	513	508	0	0	
6	0	0	0	0	512	509	0	0	
7	0	0	0	0	513	508	0	0	
8	0	0	0	0	513	508	0	0	
9	0	0	0	0	512	508	0	0	
10	0	0	0	0	512	508	0	0	
11	0	0	0	0	513	508	0	0	
12	0	0	0	0	510	506	0	0	
13	0	0	0	0	512	508	0	0	
14	0	0	0	0	511	507	0	0	
15	0	0	0	0	510	507	0	0	
0	0	0	0	0	509	508	0	0	
1	0	0	0	0	510	505	0	0	
2	0	0	0	0	510	509	0	0	
3	0	0	0	0	511	509	0	0	
4	0	0	0	0	510	508	0	0	
5	0	0	0	0	512	508	0	0	
6	0	0	0	0	511	508	0	0	
7	0	0	0	0	510	508	0	0	
8	0	0	0	0	511	509	0	0	
9	0	0	0	0	512	510	0	0	
10	0	0	0	0	512	510	0	0	
11	0	0	0	0	511	507	0	0	
12	0	0	0	0	511	508	0	0	
13	0	0	0	0	512	508	0	0	
14	0	0	0	0	513	510	0	0	
15	0	0	0	0	511	507	0	0	
0	0	0	0	0	512	507	0	0	
1	0	0	0	0	511	508	0	0	
2	0	0	0	0	511	506	0	0	
3	0	0	0	0	511	507	0	0	
4	0	0	0	0	507	508	0	0	
5	0	0	0	0	510	508	0	0	
6	0	0	0	0	510	508	0	0	
7	0	0	0	0	509	508	0	0	
8	0	0	0	0	510	507	0	0	
9	0	0	0	0	511	508	0	0	
10	0	0	0	0	511	507	0	0	
11	0	0	0	0	512	508	0	0	
12	0	0	0	0	512	508	0	0	
13	0	0	0	0	512	508	0	0	
14	0	0	0	0	512	509	0	0	
15	0	0	0	0	511	510	0	0	
0	0	0	0	0	513	508	0	0	
1	0	0	0	0	513	508	0	0	
2	0	0	0	0	512	508	0	0	
3	0	0	0	0	514	507	0	0	
4	0	0	0	0	511	508	0	0	
5	0	0	0	0	511	507	0	0	
6	0	0	0	0	511	508	0	0	
7	0	0	0	0	509	507	0	0	
8	0	0	0	0	509	508	0	0	
9	0	0	0	0	510	507	0	0	
10	0	0	0	0	508	509	0	0	
11	0	0	0	0	511	508	0	0	
12	0	0	0	0	509	507	0	0	
13	0	0	0	0	510	507	0	0	
14	0	0	0	0	511	508	0	0	
15	0	0	0	0	512	507	0	0	
0	0	0	0	0	513	511	0	0	
1	0	0	0	0	511	511	0	0	
2	0	0	0	0	512	508	0	0	
3	0	0	0	0	513	509	0	0	
4	0	0	0	0	513	507	0	0	
5	0	0	0	0	513	508	0	0	
6	0	0	0	0	513	508	0	0	
7	0	0	0	0	512	508	0	0	
8	0	0	0	0	511	506	0	0	
9	0	0	0	0	509	508	0	0	
10	0	0	0	0	512	509	0	0	
11	0	0	0	0	511	508	0	0	
12	0	0	0	0	512	508	0	0	
13	0	0	0	0	510	507	0	0	
14	0	0	0	0	508	508	0	0	
15	0	0	0	0	510	508	0	0	
0	0	0	0	0	511	508	0	0	
1	0	0	0	0	510	507	0	0	
2	0	0	0	0	509	507	0	0	
3	0	0	0	0	510	509	0	0	
4	0	0	0	0	512	509	0	0	
5	0	0	0	0	514	510	0	0	
6	0	0	0	0	514	508	0	0	
7	0	0	0	0	513	507	0	0	
8	0	0	0	0	512	508	0	0	
9	0	0	0	0	512	509	0	0	
10	0	0	0	0	511	509	0	0	
11	0	0	0	0	511	510	0	0	
12	0	0	0	0	511	508	0	0	
13	0	0	0	0	510	508	0	0	
14	0	0	0	0	511	506	0	0	
15	0	0	0	0	511	508	0	0	
0	0	0	0	0	510	510	0	0	
1	0	0	0	0	508	507	0	0	
2	0	0	0	0	510	508	0	0	
3	0	0	0	0	511	508	0	0	
4	0	0	0	0	511	508	0	0	
5	0	0	0	0	511	507	0	0	
6	0	0	0	0	509	505	0	0	
7	0	0	0	0	512	508	0	0	
8	0	0	0	0	511	508	0	0	
9	0	0	0	0	512	510	0	0	
10	0	0	0	0	512	510	0	0	
11	0	0	0	0	514	507	0	0	
12	0	0	0	0	512	508	0	0	
13	0	0	0	0	513	508	0	0	
14	0	0	0	0	511	508	0	0	
15	0	0	0	0	513	508	0	0	
0	0	0	0	0	510	506	0	0	
1	0	0	0	0	511	508	0	0	
2	0	0	0	0	511	508	0	0	
3	0	0	0	0	510	508	0	0	
4	0	0	0	0	511	508	0	0	
5	0	0	0	0	509	508	0	0	
6	0	0	0	0	510	508	0	0	
7	0	0	0	0	510	506	0	0	
8	0	0	0	0	508	508	0	0	
9	0	0	0	0	508	508	0	0	
10	0	0	0	0	511	509	0	0	
11	0	0	0	0	508	508	0	0	
12	0	0	0	0	513	508	0	0	
13	0	0	0	0	511	510	0	0	
14	0	0	0	0	510	508	0	0	
15	0	0	0	0	513	508	0	0	
0	0	0	0	0	511	508	0	0	
1	0	0	0	0	512	509	0	0	
2	0	0	0	0	513	510	0	0	
3	0	0	0	0	512	508	0	0	
4	0	0	0	0	511	509	0	0	
5	0	0	0	0	511	508	0	0	
6	0	0	0	0	511	507	0	0	
7	0	0	0	0	510	507	0	0	
8	0	0	0	0	511	506	0	0	
9	0	0	0	0	509	508	0	0	
10	0	0	0	0	510	508	0	0	
11	0	0	0	0	508	508	0	0	
12	0	0	0	0	510	508	0	0	
13	0	0	0	0	510	509	0	0	
14	0	0	0	0	511	508	0	0	
15	0	0	0	0	512	508	0	0	
0	0	0	0	0	511	509	0	0	
1	0	0	0	0	511	508	0	0	
2	0	0	0	0	511	508	0	0	
3	0	0	0	0	512	508	0	0	
4	0	0	0	0	513	510	0	0	
5	0	0	0	0	513	509	0	0	
6	0	0	0	0	511	509	0	0	
7	0	0	0	0	510	507	0	0	
8	0	0	0	0	510	507	0	0	
9	0	0	0	0	511	507	0	0	
10	0	0	0	0	510	506	0	0	
11	0	0	0	0	511	508	0	0	
12	0	0	0	0	511	508	0	0	
13	0	0	0	0	509	508	0	0	
14	0	0	0	0	510	508	0	0	
15	0	0	0	0	510	507	0	0	
0	0	0	0	0	507	509	0	0	
1	0	0	0	0	512	510	0	0	
2	0	0	0	0	511	508	0	0	
3	0	0	0	0	511	506	0	0	
4	0	0	0	0	511	509	0	0	
5	0	0	0	0	512	509	0	0	
6	0	0	0	0	513	509	0	0	
7	0	0	0	0	513	507	0	0	
8	0	0	0	0	512	508	0	0	
9	0	0	0	0	512	508	0	0	
10	0	0	0	0	513	508	0	0	
11	0	0	0	0	510	507	0	0	
12	0	0	0	0	512	509	0	0	
13	0	0	0	0	510	507	0	0	
14	0	0	0	0	511	506	0	0	
15	0	0	0	0	512	507	0	0	
0	0	0	0	0	510	507	0	0	
1	0	0	0	0	509	507	0	0	
2	0	0	0	0	511	508	0	0	
3	0	0	0	0	509	507	0	0	
4	0	0	0	0	508	507	0	0	
5	0	0	0	0	508	509	0	0	
6	0	0	0	0	510	508	0	0	
7	0	0	0	0	512	509	0	0	
8	0	0	0	0	512	508	0	0	
9	0	0	0	0	511	508	0	0	
10	0	0	0	0	511	509	0	0	
11	0	0	0	0	511	508	0	0	
12	0	0	0	0	513	507	0	0	
13	0	0	0	0	513	508	0	0	
14	0	0	0	0	514	510	0	0	
15	0	0	0	0	512	508	0	0	
0	0	0	0	0	512	508	0	0	
1	0	0	0	0	510	508	0	0	
2	0	0	0	0	511	508	0	0	
3	0	0	0	0	510	508	0	0	
4	0	0	0	0	511	508	0	0	
5	0	0	0	0	510	508	0	0	
6	0	0	0	0	510	508	0	0	
7	0	0	0	0	508	507	0	0	
8	0	0	0	0	508	507	0	0	
9	0	0	0	0	508	510	0	0	
10	0	0	0	0	511	506	0	0	
11	0	0	0	0	512	510	0	0	
12	0	0	0	0	511	509	0	0	
13	0	0	0	0	514	509	0	0	
14	0	0	0	0	513	506	0	0	
15	0	0	0	0	512	507	0	0	
0	0	0	0	0	510	507	0	0	
1	0	0	0	0	513	509	0	0	
2	0	0	0	0	510	507	0	0	
3	0	0	0	0	512	505	0	0	
4	0	0	0	0	513	509	0	0	
5	0	0	0	0	511	507	0	0	
6	0	0	0	0	512	507	0	0	
7	0	0	0	0	511	508	0	0	
8	0	0	0	0	508	508	0	0	
9	0	0	0	0	510	508	0	0	
10	0	0	0	0	509	508	0	0	
11	0	0	0	0	509	508	0	0	
12	0	0	0	0	511	508	0	0	
13	0	0	0	0	512	508	0	0	
14	0	0	0	0	512	507	0	0	
15	0	0	0	0	510	508	0	0	
0	0	0	0	0	512	510	0	0	
1	0	0	0	0	511	507	0	0	
2	0	0	0	0	513	510	0	0	
3	0	0	0	0	513	507	0	0	
4	0	0	0	0	513	508	0	0	
5	0	0	0	0	512	508	0	0	
6	0	0	0	0	512	507	0	0	
7	0	0	0	0	511	509	0	0	
8	0	0	0	0	511	511	0	0	
9	0	0	0	0	511	509	0	0	
10	0	0	0	0	511	510	0	0	
11	0	0	0	0	510	508	0	0	
12	0	0	0	0	510	507	0	0	
13	0	0	0	0	511	507	0	0	
14	0	0	0	0	508	506	0	0	
15	0	0	0	0	511	509	0	0	
0	0	0	0	0	510	507	0	0	
1	0	0	0	0	511	506	0	0	
2	0	0	0	0	512	509	0	0	
3	0	0	0	0	511	508	0	0	
4	0	0	0	0	509	510	0	0	
5	0	0	0	0	512	507	0	0	
6	0	0	0	0	512	507	0	0	
7	0	0	0	0	512	509	0	0	
8	0	0	0	0	512	508	0	0	
9	0	0	0	0	513	508	0	0	
10	0	0	0	0	511	507	0	0	
11	0	0	0	0	511	508	0	0	
12	0	0	0	0	512	508	0	0	
13	0	0	0	0	514	508	0	0	
14	0	0	0	0	511	508	0	0	
15	0	0	0	0	511	506	0	0	
0	0	0	0	0	511	509	0	0	
1	0	0	0	0	507	508	0	0	
2	0	0	0	0	510	508	0	0	
3	0	0	0	0	511	509	0	0	
4	0	0	0	0	510	508	0	0	
5	0	0	0	0	510	508	0	0	
6	0	0	0	0	511	507	0	0	
7	0	0	0	0	512	506	0	0	
8	0	0	0	0	513	509	0	0	
9	0	0	0	0	513	508	0	0	
10	0	0	0	0	512	509	0	0	
11	0	0	0	0	513	507	0	0	
12	0	0	0	0	511	508	0	0	
13	0	0	0	0	513	510	0	0	
14	0	0	0	0	514	508	0	0	
15	0	0	0	0	511	505	0	0	
0	0	0	0	0	510	507	0	0	
1	0	0	0	0	510	508	0	0	
2	0	0	0	0	510	508	0	0	
3	0	0	0	0	513	508	0	0	
4	0	0	0	0	511	508	0	0	
5	0	0	0	0	508	507	0	0	
6	0	0	0	0	509	508	0	0	
7	0	0	0	0	509	508	0	0	
8	0	0	0	0	511	508	0	0	
9	0	0	0	0	509	510	0	0	
10	0	0	0	0	508	507	0	0	
11	0	0	0	0	508	508	0	0	
12	0	0	0	0	510	509	0	0	
13	0	0	0	0	512	508	0	0	
14	0	0	0	0	512	508	0	0	
15	0	0	0	0	512	507	0	0	
0	0	0	0	0	513	508	0	0	
1	0	0	0	0	513	507	0	0	
2	0	0	0	0	512	509	0	0	
3	0	0	0	0	512	510	0	0	
4	0	0	0	0	511	508	0	0	
5	0	0	0	0	511	508	0	0	
6	0	0	0	0	511	509	0	0	
7	0	0	0	0	509	509	0	0	
8	0	0	0	0	510	507	0	0	
9	0	0	0	0	509	506	0	0	
10	0	0	0	0	510	508	0	0	
11	0	0	0	0	510	508	0	0	
12	0	0	0	0	508	507	0	0	
13	0	0	0	0	511	509	0	0	
14	0	0	0	0	510	508	0	0	
15	0	0	0	0	510	508	0	0	
0	0	0	0	0	511	508	0	0	
1	0	0	0	0	510	508	0	0	
2	0	0	0	0	512	510	0	0	
3	0	0	0	0	513	508	0	0	
4	0	0	0	0	513	508	0	0	
5	0	0	0	0	512	507	0	0	
6	0	0	0	0	513	508	0	0	
7	0	0	0	0	512	508	0	0	
8	0	0	0	0	513	507	0	0	
9	0	0	0	0	512	508	0	0	
10	0	0	0	0	510	507	0	0	
11	0	0	0	0	511	508	0	0	
12	0	0	0	0	510	508	0	0	
13	0	0	0	0	510	507	0	0	
14	0	0	0	0	510	508	0	0	
15	0	0	0	0	508	505	0	0	
0	0	0	0	0	509	508	0	0	
1	0	0	0	0	511	508	0	0	
2	0	0	0	0	512	508	0	0	
3	0	0	0	0	512	508	0	0	
4	0	0	0	0	510	508	0	0	
5	0	0	0	0	512	508	0	0	
6	0	0	0	0	513	508	0	0	
7	0	0	0	0	510	508	0	0	
8	0	0	0	0	512	508	0	0	
9	0	0	0	0	512	508	0	0	
10	0	0	0	0	514	509	0	0	
11	0	0	0	0	513	508	0	0	
12	0	0	0	0	511	508	0	0	
13	0	0	0	0	510	507	0	0	
14	0	0	0	0	509	508	0	0	
15	0	0	0	0	510	507	0	0	
0	0	0	0	0	510	507	0	0	
1	0	0	0	0	508	508	0	0	
2	0	0	0	0	511	506	0	0	
3	0	0	0	0	510	507	0	0	
4	0	0	0	0	512	510	0	0	
5	0	0	0	0	508	509	0	0	
6	0	0	0	0	511	507	0	0	
7	0	0	0	0	510	508	0	0	
8	0	0	0	0	512	507	0	0	
9	0	0	0	0	512	509	0	0	
10	0	0	0	0	511	509	0	0	
11	0	0	0	0	511	508	0	0	
12	0	0	0	0	513	508	0	0	
13	0	0	0	0	513	509	0	0	
14	0	0	0	0	511	507	0	0	
15	0	0	0	0	513	506	0	0	
0	0	0	0	0	512	507	0	0	
1	0	0	0	0	511	507	0	0	
2	0	0	0	0	511	508	0	0	
3	0	0	0	0	509	508	0	0	
4	0	0	0	0	510	511	0	0	
5	0	0	0	0	511	510	0	0	
6	0	0	0	0	510	507	0	0	
7	0	0	0	0	511	506	0	0	
8	0	0	0	0	509	508	0	0	
9	0	0	0	0	509	510	0	0	
10	0	0	0	0	511	509	0	0	
11	0	0	0	0	511	507	0	0	
12	0	0	0	0	511	508	0	0	
13	0	0	0	0	511	509	0	0	
14	0	0	0	0	511	508	0	0	
15	0	0	0	0	515	506	0	0	
0	0	0	0	0	513	508	0	0	
1	0	0	0	0	512	507	0	0	
2	0	0	0	0	513	509	0	0	
3	0	0	0	0	511	508	0	0	
4	0	0	0	0	512	507	0	0	
5	0	0	0	0	511	506	0	0	
6	0	0	0	0	511	507	0	0	
7	0	0	0	0	510	507	0	0	
8	0	0	0	0	510	507	0	0	
9	0	0	0	0	508	508	0	0	
10	0	0	0	0	510	508	0	0	
11	0	0	0	0	510	510	0	0	
12	0	0	0	0	509	508	0	0	
13	0	0	0	0	511	508	0	0	
14	0	0	0	0	508	507	0	0	
15	0	0	0	0	510	506	0	0	
0	0	0	0	0	511	508	0	0	
1	0	0	0	0	512	509	0	0	
2	0	0	0	0	510	509	0	0	
3	0	0	0	0	513	510	0	0	
4	0	0	0	0	514	510	0	0	
5	0	0	0	0	513	508	0	0	
6	0	0	0	0	513	508	0	0	
7	0	0	0	0	513	507	0	0	
8	0	0	0	0	511	509	0	0	
9	0	0	0	0	511	507	0	0	
10	0	0	0	0	511	506	0	0	
11	0	0	0	0	512	507	0	0	
12	0	0	0	0	510	509	0	0	
13	0	0	0	0	511	508	0	0	
14	0	0	0	0	510	508	0	0	
15	0	0	0	0	509	509	0	0	
0	0	0	0	0	508	508	0	0	
1	0	0	0	0	509	509	0	0	
2	0	0	0	0	509	508	0	0	
3	0	0	0	0	511	509	0	0	
4	0	0	0	0	511	509	0	0	
5	0	0	0	0	513	507	0	0	
6	0	0	0	0	511	510	0	0	
7	0	0	0	0	511	509	0	0	
8	0	0	0	0	513	508	0	0	
9	0	0	0	0	515	507	0	0	
10	0	0	0	0	514	508	0	0	
11	0	0	0	0	513	507	0	0	
12	0	0	0	0	512	510	0	0	
13	0	0	0	0	510	507	0	0	
14	0	0	0	0	512	507	0	0	
15	0	0	0	0	513	508	0	0	
0	0	0	0	0	508	507	0	0	
1	0	0	0	0	509	507	0	0	
2	0	0	0	0	511	508	0	0	
3	0	0	0	0	510	508	0	0	
4	0	0	0	0	509	508	0	0	
5	0	0	0	0	511	508	0	0	
6	0	0	0	0	509	509	0	0	
7	0	0	0	0	512	510	0	0	
8	0	0	0	0	509	507	0	0	
9	0	0	0	0	511	508	0	0	
10	0	0	0	0	508	509	0	0	
11	0	0	0	0	513	509	0	0	
12	0	0	0	0	513	508	0	0	
13	0	0	0	0	513	508	0	0	
14	0	0	0	0	512	508	0	0	
15	0	0	0	0	510	507	0	0	
0	0	0	0	0	511	507	0	0	
1	0	0	0	0	512	507	0	0	
2	0	0	0	0	511	507	0	0	
3	0	0	0	0	510	507	0	0	
4	0	0	0	0	510	508	0	0	
5	0	0	0	0	508	508	0	0	
6	0	0	0	0	509	507	0	0	
7	0	0	0	0	511	507	0	0	
8	0	0	0	0	509	509	0	0	
9	0	0	0	0	511	508	0	0	
10	0	0	0	0	509	507	0	0	
11	0	0	0	0	511	509	0	0	
12	0	0	0	0	511	508	0	0	
13	0	0	0	0	512	507	0	0	
14	0	0	0	0	514	509	0	0	
15	0	0	0	0	512	508	0	0	
0	0	0	0	0	512	508	0	0	
1	0	0	0	0	512	508	0	0	
2	0	0	0	0	513	508	0	0	
3	0	0	0	0	515	508	0	0	
4	0	0	0	0	512	507	0	0	
5	0	0	0	0	513	508	0	0	
6	0	0	0	0	512	507	0	0	
7	0	0	0	0	511	507	0	0	
8	0	0	0	0	510	508	0	0	
9	0	0	0	0	510	508	0	0	
10	0	0	0	0	511	509	0	0	
11	0	0	0	0	509	509	0	0	
12	0	0	0	0	509	508	0	0	
13	0	0	0	0	510	509	0	0	
14	0	0	0	0	511	508	0	0	
15	0	0	0	0	511	510	0	0	
0	0	0	0	0	512	508	0	0	
1	0	0	0	0	511	508	0	0	
2	0	0	0	0	511	508	0	0	
3	0	0	0	0	513	508	0	0	
4	0	0	0	0	511	508	0	0	
5	0	0	0	0	513	506	0	0	
6	0	0	0	0	511	508	0	0	
7	0	0	0	0	511	508	0	0	
8	0	0	0	0	512	507	0	0	
9	0	0	0	0	510	509	0	0	
10	0	0	0	0	508	508	0	0	
11	0	0	0	0	509	508	0	0	
12	0	0	0	0	509	508	0	0	
13	0	0	0	0	511	510	0	0	
14	0	0	0	0	510	509	0	0	
15	0	0	0	0	510	509	0	0	
0	0	0	0	0	510	508	0	0	
1	0	0	0	0	511	508	0	0	
2	0	0	0	0	510	507	0	0	
3	0	0	0	0	512	508	0	0	
4	0	0	0	0	512	508	0	0	
5	0	0	0	0	511	507	0	0	
6	0	0	0	0	511	508	0	0	
7	0	0	0	0	514	508	0	0	
8	0	0	0	0	513	508	0	0	
9	0	0	0	0	515	509	0	0	
10	0	0	0	0	512	508	0	0	
11	0	0	0	0	513	508	0	0	
12	0	0	0	0	512	508	0	0	
13	0	0	0	0	511	507	0	0	
14	0	0	0	0	510	509	0	0	
15	0	0	0	0	511	508	0	0	
0	0	0	0	0	510	509	0	0	
1	0	0	0	0	511	507	0	0	
2	0	0	0	0	511	507	0	0	
3	0	0	0	0	510	508	0	0	
4	0	0	0	0	509	508	0	0	
5	0	0	0	0	512	507	0	0	
6	0	0	0	0	508	507	0	0	
7	0	0	0	0	510	508	0	0	
8	0	0	0	0	511	509	0	0	
9	0	0	0	0	511	508	0	0	
10	0	0	0	0	515	508	0	0	
11	0	0	0	0	514	508	0	0	
12	0	0	0	0	512	508	0	0	
13	0	0	0	0	511	508	0	0	
14	0	0	0	0	510	510	0	0	
15	0	0	0	0	512	508	0	0	
0	0	0	0	0	511	509	0	0	
1	0	0	0	0	511	509	0	0	
2	0	0	0	0	511	508	0	0	
3	0	0	0	0	510	507	0	0	
4	0	0	0	0	512	507	0	0	
5	0	0	0	0	509	506	0	0	
6	0	0	0	0	510	508	0	0	
7	0	0	0	0	511	508	0	0	
8	0	0	0	0	511	507	0	0	
9	0	0	0	0	511	510	0	0	
10	0	0	0	0	510	508	0	0	
11	0	0	0	0	511	508	0	0	
12	0	0	0	0	511	509	0	0	
13	0	0	0	0	511	506	0	0	
14	0	0	0	0	511	508	0	0	
15	0	0	0	0	512	510	0	0	
