# OpenSignals Text File Format. Version 1
# {"20:18:06:13:21:78": {"position": 0, "device": "bitalino_rev", "device name": "20:18:06:13:21:78", "device connection": "BTH20:18:06:13:21:78", "sampling rate": 1000, "resolution": [4, 1, 1, 1, 1, 10, 10, 10, 10], "firmware version": 1281, "comments": "", "keywords": "", "mode": 0, "sync interval": 2, "date": "2023-6-2", "time": "13:6:42.937", "channels": [1, 2, 3, 4], "sensor": ["EMGBITREV", "EMGBITREV", "RAW", "RAW"], "label": ["A1", "A2", "A3", "A4"], "column": ["nSeq", "I1", "I2", "O1", "O2", "A1", "A2", "A3", "A4"], "special": [{}, {}, {}, {}], "digital IO": [0, 0, 1, 1]}}
# EndOfHeader
0	0	0	0	0	515	508	0	0	
1	0	0	0	0	515	509	0	0	
2	0	0	0	0	512	507	0	0	
3	0	0	0	0	514	508	0	0	
4	0	0	0	0	512	508	0	0	
5	0	0	0	0	510	509	0	0	
6	0	0	0	0	510	507	0	0	
7	0	0	0	0	506	505	0	0	
8	0	0	0	0	507	507	0	0	
9	0	0	0	0	508	508	0	0	
10	0	0	0	0	507	507	0	0	
11	0	0	0	0	508	508	0	0	
12	0	0	0	0	509	507	0	0	
13	0	0	0	0	510	506	0	0	
14	0	0	0	0	511	510	0	0	
15	0	0	0	0	511	509	0	0	
0	0	0	0	0	514	508	0	0	
1	0	0	0	0	513	510	0	0	
2	0	0	0	0	513	510	0	0	
3	0	0	0	0	512	510	0	0	
4	0	0	0	0	514	510	0	0	
5	0	0	0	0	514	508	0	0	
6	0	0	0	0	515	510	0	0	
7	0	0	0	0	515	509	0	0	
8	0	0	0	0	514	510	0	0	
9	0	0	0	0	512	508	0	0	
10	0	0	0	0	513	507	0	0	
11	0	0	0	0	509	508	0	0	
12	0	0	0	0	511	506	0	0	
13	0	0	0	0	509	506	0	0	
14	0	0	0	0	510	506	0	0	
15	0	0	0	0	509	507	0	0	
0	0	0	0	0	508	504	0	0	
1	0	0	0	0	510	507	0	0	
2	0	0	0	0	511	508	0	0	
3	0	0	0	0	510	506	0	0	
4	0	0	0	0	510	505	0	0	
5	0	0	0	0	514	509	0	0	
6	0	0	0	0	516	506	0	0	
7	0	0	0	0	513	508	0	0	
8	0	0	0	0	512	507	0	0	
9	0	0	0	0	513	507	0	0	
10	0	0	0	0	511	507	0	0	
11	0	0	0	0	512	508	0	0	
12	0	0	0	0	512	507	0	0	
13	0	0	0	0	512	505	0	0	
14	0	0	0	0	511	507	0	0	
15	0	0	0	0	509	504	0	0	
0	0	0	0	0	509	505	0	0	
1	0	0	0	0	511	507	0	0	
2	0	0	0	0	509	508	0	0	
3	0	0	0	0	512	508	0	0	
4	0	0	0	0	511	506	0	0	
5	0	0	0	0	508	508	0	0	
6	0	0	0	0	512	508	0	0	
7	0	0	0	0	512	511	0	0	
8	0	0	0	0	511	511	0	0	
9	0	0	0	0	513	508	0	0	
10	0	0	0	0	512	510	0	0	
11	0	0	0	0	515	510	0	0	
12	0	0	0	0	515	508	0	0	
13	0	0	0	0	514	509	0	0	
14	0	0	0	0	512	509	0	0	
15	0	0	0	0	511	509	0	0	
0	0	0	0	0	509	510	0	0	
1	0	0	0	0	512	509	0	0	
2	0	0	0	0	508	509	0	0	
3	0	0	0	0	510	507	0	0	
4	0	0	0	0	507	509	0	0	
5	0	0	0	0	507	509	0	0	
6	0	0	0	0	507	508	0	0	
7	0	0	0	0	508	508	0	0	
8	0	0	0	0	508	509	0	0	
9	0	0	0	0	510	509	0	0	
10	0	0	0	0	508	506	0	0	
11	0	0	0	0	511	511	0	0	
12	0	0	0	0	513	509	0	0	
13	0	0	0	0	512	510	0	0	
14	0	0	0	0	511	509	0	0	
15	0	0	0	0	515	508	0	0	
0	0	0	0	0	515	507	0	0	
1	0	0	0	0	515	507	0	0	
2	0	0	0	0	514	508	0	0	
3	0	0	0	0	513	510	0	0	
4	0	0	0	0	516	508	0	0	
5	0	0	0	0	510	508	0	0	
6	0	0	0	0	510	508	0	0	
7	0	0	0	0	510	507	0	0	
8	0	0	0	0	508	506	0	0	
9	0	0	0	0	508	506	0	0	
10	0	0	0	0	509	506	0	0	
11	0	0	0	0	510	506	0	0	
12	0	0	0	0	509	507	0	0	
13	0	0	0	0	509	508	0	0	
14	0	0	0	0	511	510	0	0	
15	0	0	0	0	512	507	0	0	
0	0	0	0	0	512	507	0	0	
1	0	0	0	0	512	509	0	0	
2	0	0	0	0	511	510	0	0	
3	0	0	0	0	512	511	0	0	
4	0	0	0	0	510	510	0	0	
5	0	0	0	0	512	510	0	0	
6	0	0	0	0	511	508	0	0	
7	0	0	0	0	512	508	0	0	
8	0	0	0	0	511	509	0	0	
9	0	0	0	0	509	508	0	0	
10	0	0	0	0	508	510	0	0	
11	0	0	0	0	509	506	0	0	
12	0	0	0	0	508	507	0	0	
13	0	0	0	0	508	507	0	0	
14	0	0	0	0	508	507	0	0	
15	0	0	0	0	508	508	0	0	
0	0	0	0	0	508	508	0	0	
1	0	0	0	0	511	508	0	0	
2	0	0	0	0	511	509	0	0	
3	0	0	0	0	512	509	0	0	
4	0	0	0	0	511	510	0	0	
5	0	0	0	0	514	509	0	0	
6	0	0	0	0	513	509	0	0	
7	0	0	0	0	516	508	0	0	
8	0	0	0	0	517	508	0	0	
9	0	0	0	0	514	508	0	0	
10	0	0	0	0	512	507	0	0	
11	0	0	0	0	512	508	0	0	
12	0	0	0	0	511	508	0	0	
13	0	0	0	0	511	506	0	0	
14	0	0	0	0	511	507	0	0	
15	0	0	0	0	511	505	0	0	
0	0	0	0	0	508	506	0	0	
1	0	0	0	0	508	508	0	0	
2	0	0	0	0	506	507	0	0	
3	0	0	0	0	510	510	0	0	
4	0	0	0	0	511	509	0	0	
5	0	0	0	0	511	510	0	0	
6	0	0	0	0	512	509	0	0	
7	0	0	0	0	511	507	0	0	
8	0	0	0	0	511	508	0	0	
9	0	0	0	0	512	509	0	0	
10	0	0	0	0	513	508	0	0	
11	0	0	0	0	515	511	0	0	
12	0	0	0	0	512	509	0	0	
13	0	0	0	0	511	508	0	0	
14	0	0	0	0	511	508	0	0	
15	0	0	0	0	513	505	0	0	
0	0	0	0	0	512	507	0	0	
1	0	0	0	0	508	504	0	0	
2	0	0	0	0	510	507	0	0	
3	0	0	0	0	509	509	0	0	
4	0	0	0	0	508	508	0	0	
5	0	0	0	0	508	509	0	0	
6	0	0	0	0	511	508	0	0	
7	0	0	0	0	511	509	0	0	
8	0	0	0	0	511	509	0	0	
9	0	0	0	0	510	508	0	0	
10	0	0	0	0	510	507	0	0	
11	0	0	0	0	515	508	0	0	
12	0	0	0	0	513	507	0	0	
13	0	0	0	0	515	507	0	0	
14	0	0	0	0	513	508	0	0	
15	0	0	0	0	517	508	0	0	
0	0	0	0	0	515	506	0	0	
1	0	0	0	0	515	508	0	0	
2	0	0	0	0	511	508	0	0	
3	0	0	0	0	511	505	0	0	
4	0	0	0	0	508	510	0	0	
5	0	0	0	0	509	508	0	0	
6	0	0	0	0	509	508	0	0	
7	0	0	0	0	508	508	0	0	
8	0	0	0	0	508	511	0	0	
9	0	0	0	0	507	507	0	0	
10	0	0	0	0	510	506	0	0	
11	0	0	0	0	510	507	0	0	
12	0	0	0	0	510	507	0	0	
13	0	0	0	0	510	509	0	0	
14	0	0	0	0	511	507	0	0	
15	0	0	0	0	510	509	0	0	
0	0	0	0	0	513	508	0	0	
1	0	0	0	0	515	508	0	0	
2	0	0	0	0	512	507	0	0	
3	0	0	0	0	516	509	0	0	
4	0	0	0	0	514	510	0	0	
5	0	0	0	0	513	509	0	0	
6	0	0	0	0	511	510	0	0	
7	0	0	0	0	510	510	0	0	
8	0	0	0	0	509	507	0	0	
9	0	0	0	0	507	508	0	0	
10	0	0	0	0	508	508	0	0	
11	0	0	0	0	507	509	0	0	
12	0	0	0	0	508	506	0	0	
13	0	0	0	0	509	509	0	0	
14	0	0	0	0	506	509	0	0	
15	0	0	0	0	509	510	0	0	
0	0	0	0	0	507	506	0	0	
1	0	0	0	0	509	507	0	0	
2	0	0	0	0	510	508	0	0	
3	0	0	0	0	511	511	0	0	
4	0	0	0	0	515	510	0	0	
5	0	0	0	0	518	510	0	0	
6	0	0	0	0	516	508	0	0	
7	0	0	0	0	513	509	0	0	
8	0	0	0	0	515	508	0	0	
9	0	0	0	0	513	510	0	0	
10	0	0	0	0	515	508	0	0	
11	0	0	0	0	514	508	0	0	
12	0	0	0	0	511	507	0	0	
13	0	0	0	0	510	507	0	0	
14	0	0	0	0	511	507	0	0	
15	0	0	0	0	510	506	0	0	
0	0	0	0	0	509	508	0	0	
1	0	0	0	0	508	507	0	0	
2	0	0	0	0	510	505	0	0	
3	0	0	0	0	509	508	0	0	
4	0	0	0	0	508	506	0	0	
5	0	0	0	0	511	507	0	0	
6	0	0	0	0	512	508	0	0	
7	0	0	0	0	512	508	0	0	
8	0	0	0	0	514	507	0	0	
9	0	0	0	0	514	509	0	0	
10	0	0	0	0	511	509	0	0	
11	0	0	0	0	511	509	0	0	
12	0	0	0	0	514	510	0	0	
13	0	0	0	0	513	508	0	0	
14	0	0	0	0	510	509	0	0	
15	0	0	0	0	511	508	0	0	
0	0	0	0	0	510	508	0	0	
1	0	0	0	0	510	508	0	0	
2	0	0	0	0	510	505	0	0	
3	0	0	0	0	509	504	0	0	
4	0	0	0	0	508	508	0	0	
5	0	0	0	0	509	506	0	0	
6	0	0	0	0	507	508	0	0	
7	0	0	0	0	510	508	0	0	
8	0	0	0	0	506	508	0	0	
9	0	0	0	0	509	506	0	0	
10	0	0	0	0	511	510	0	0	
11	0	0	0	0	511	510	0	0	
12	0	0	0	0	512	510	0	0	
13	0	0	0	0	514	509	0	0	
14	0	0	0	0	516	508	0	0	
15	0	0	0	0	517	508	0	0	
0	0	0	0	0	515	510	0	0	
1	0	0	0	0	512	508	0	0	
2	0	0	0	0	514	508	0	0	
3	0	0	0	0	511	507	0	0	
4	0	0	0	0	511	509	0	0	
5	0	0	0	0	510	509	0	0	
6	0	0	0	0	508	506	0	0	
7	0	0	0	0	509	506	0	0	
8	0	0	0	0	511	507	0	0	
9	0	0	0	0	509	509	0	0	
10	0	0	0	0	508	507	0	0	
11	0	0	0	0	511	507	0	0	
12	0	0	0	0	513	508	0	0	
13	0	0	0	0	509	508	0	0	
14	0	0	0	0	511	508	0	0	
15	0	0	0	0	512	510	0	0	
0	0	0	0	0	512	511	0	0	
1	0	0	0	0	513	508	0	0	
2	0	0	0	0	513	508	0	0	
3	0	0	0	0	514	507	0	0	
4	0	0	0	0	517	509	0	0	
5	0	0	0	0	515	511	0	0	
6	0	0	0	0	512	507	0	0	
7	0	0	0	0	512	508	0	0	
8	0	0	0	0	511	508	0	0	
9	0	0	0	0	511	508	0	0	
10	0	0	0	0	510	509	0	0	
11	0	0	0	0	511	509	0	0	
12	0	0	0	0	509	508	0	0	
13	0	0	0	0	507	508	0	0	
14	0	0	0	0	508	508	0	0	
15	0	0	0	0	508	509	0	0	
0	0	0	0	0	508	508	0	0	
1	0	0	0	0	508	508	0	0	
2	0	0	0	0	509	507	0	0	
3	0	0	0	0	509	506	0	0	
4	0	0	0	0	511	509	0	0	
5	0	0	0	0	514	508	0	0	
6	0	0	0	0	513	512	0	0	
7	0	0	0	0	513	510	0	0	
8	0	0	0	0	512	509	0	0	
9	0	0	0	0	514	508	0	0	
10	0	0	0	0	513	508	0	0	
11	0	0	0	0	511	509	0	0	
12	0	0	0	0	511	507	0	0	
13	0	0	0	0	512	507	0	0	
14	0	0	0	0	510	506	0	0	
15	0	0	0	0	510	508	0	0	
0	0	0	0	0	510	503	0	0	
1	0	0	0	0	508	504	0	0	
2	0	0	0	0	507	506	0	0	
3	0	0	0	0	509	510	0	0	
4	0	0	0	0	510	508	0	0	
5	0	0	0	0	512	506	0	0	
6	0	0	0	0	515	509	0	0	
7	0	0	0	0	511	505	0	0	
8	0	0	0	0	510	508	0	0	
9	0	0	0	0	512	508	0	0	
10	0	0	0	0	515	510	0	0	
11	0	0	0	0	512	509	0	0	
12	0	0	0	0	511	511	0	0	
13	0	0	0	0	512	511	0	0	
14	0	0	0	0	514	509	0	0	
15	0	0	0	0	512	510	0	0	
0	0	0	0	0	512	509	0	0	
1	0	0	0	0	512	507	0	0	
2	0	0	0	0	508	508	0	0	
3	0	0	0	0	507	506	0	0	
4	0	0	0	0	510	507	0	0	
5	0	0	0	0	509	506	0	0	
6	0	0	0	0	508	505	0	0	
7	0	0	0	0	510	508	0	0	
8	0	0	0	0	509	506	0	0	
9	0	0	0	0	511	507	0	0	
10	0	0	0	0	510	508	0	0	
11	0	0	0	0	512	510	0	0	
12	0	0	0	0	511	509	0	0	
13	0	0	0	0	512	508	0	0	
14	0	0	0	0	512	508	0	0	
15	0	0	0	0	514	508	0	0	
0	0	0	0	0	514	510	0	0	
1	0	0	0	0	512	507	0	0	
2	0	0	0	0	513	509	0	0	
3	0	0	0	0	511	509	0	0	
4	0	0	0	0	509	508	0	0	
5	0	0	0	0	511	507	0	0	
6	0	0	0	0	511	509	0	0	
7	0	0	0	0	509	506	0	0	
8	0	0	0	0	510	507	0	0	
9	0	0	0	0	509	508	0	0	
10	0	0	0	0	509	507	0	0	
11	0	0	0	0	508	508	0	0	
12	0	0	0	0	508	509	0	0	
13	0	0	0	0	508	508	0	0	
14	0	0	0	0	510	510	0	0	
15	0	0	0	0	511	509	0	0	
0	0	0	0	0	512	509	0	0	
1	0	0	0	0	514	512	0	0	
2	0	0	0	0	514	509	0	0	
3	0	0	0	0	515	508	0	0	
4	0	0	0	0	511	510	0	0	
5	0	0	0	0	511	510	0	0	
6	0	0	0	0	513	508	0	0	
7	0	0	0	0	515	508	0	0	
8	0	0	0	0	514	507	0	0	
9	0	0	0	0	510	507	0	0	
10	0	0	0	0	510	508	0	0	
11	0	0	0	0	508	508	0	0	
12	0	0	0	0	510	507	0	0	
13	0	0	0	0	508	506	0	0	
14	0	0	0	0	507	508	0	0	
15	0	0	0	0	508	506	0	0	
0	0	0	0	0	508	508	0	0	
1	0	0	0	0	510	507	0	0	
2	0	0	0	0	512	507	0	0	
3	0	0	0	0	510	508	0	0	
4	0	0	0	0	510	508	0	0	
5	0	0	0	0	515	509	0	0	
6	0	0	0	0	512	511	0	0	
7	0	0	0	0	511	510	0	0	
8	0	0	0	0	510	509	0	0	
9	0	0	0	0	511	510	0	0	
10	0	0	0	0	511	507	0	0	
11	0	0	0	0	511	507	0	0	
12	0	0	0	0	512	509	0	0	
13	0	0	0	0	513	508	0	0	
14	0	0	0	0	509	507	0	0	
15	0	0	0	0	507	508	0	0	
0	0	0	0	0	506	506	0	0	
1	0	0	0	0	509	505	0	0	
2	0	0	0	0	509	506	0	0	
3	0	0	0	0	509	507	0	0	
4	0	0	0	0	509	506	0	0	
5	0	0	0	0	507	507	0	0	
6	0	0	0	0	508	508	0	0	
7	0	0	0	0	512	507	0	0	
8	0	0	0	0	512	508	0	0	
9	0	0	0	0	512	506	0	0	
10	0	0	0	0	512	508	0	0	
11	0	0	0	0	514	509	0	0	
12	0	0	0	0	514	510	0	0	
13	0	0	0	0	513	509	0	0	
14	0	0	0	0	513	509	0	0	
15	0	0	0	0	512	510	0	0	
0	0	0	0	0	512	508	0	0	
1	0	0	0	0	513	510	0	0	
2	0	0	0	0	513	506	0	0	
3	0	0	0	0	511	508	0	0	
4	0	0	0	0	508	509	0	0	
5	0	0	0	0	509	508	0	0	
6	0	0	0	0	510	507	0	0	
7	0	0	0	0	509	512	0	0	
8	0	0	0	0	511	508	0	0	
9	0	0	0	0	510	509	0	0	
10	0	0	0	0	509	508	0	0	
11	0	0	0	0	508	510	0	0	
12	0	0	0	0	508	510	0	0	
13	0	0	0	0	513	509	0	0	
14	0	0	0	0	512	507	0	0	
15	0	0	0	0	514	508	0	0	
0	0	0	0	0	514	507	0	0	
1	0	0	0	0	513	506	0	0	
2	0	0	0	0	513	510	0	0	
3	0	0	0	0	514	507	0	0	
4	0	0	0	0	512	508	0	0	
5	0	0	0	0	511	508	0	0	
6	0	0	0	0	510	508	0	0	
7	0	0	0	0	509	508	0	0	
8	0	0	0	0	507	507	0	0	
9	0	0	0	0	509	506	0	0	
10	0	0	0	0	508	507	0	0	
11	0	0	0	0	512	506	0	0	
12	0	0	0	0	511	506	0	0	
13	0	0	0	0	511	508	0	0	
14	0	0	0	0	513	510	0	0	
15	0	0	0	0	514	508	0	0	
0	0	0	0	0	512	507	0	0	
1	0	0	0	0	513	508	0	0	
2	0	0	0	0	512	506	0	0	
3	0	0	0	0	512	507	0	0	
4	0	0	0	0	515	508	0	0	
5	0	0	0	0	511	510	0	0	
6	0	0	0	0	515	508	0	0	
7	0	0	0	0	513	509	0	0	
8	0	0	0	0	512	509	0	0	
9	0	0	0	0	513	506	0	0	
10	0	0	0	0	512	505	0	0	
11	0	0	0	0	510	509	0	0	
12	0	0	0	0	510	507	0	0	
13	0	0	0	0	510	508	0	0	
14	0	0	0	0	510	507	0	0	
15	0	0	0	0	508	507	0	0	
0	0	0	0	0	511	508	0	0	
1	0	0	0	0	511	507	0	0	
2	0	0	0	0	511	507	0	0	
3	0	0	0	0	511	508	0	0	
4	0	0	0	0	510	507	0	0	
5	0	0	0	0	514	507	0	0	
6	0	0	0	0	513	507	0	0	
7	0	0	0	0	513	510	0	0	
8	0	0	0	0	516	510	0	0	
9	0	0	0	0	513	507	0	0	
10	0	0	0	0	515	507	0	0	
11	0	0	0	0	512	510	0	0	
12	0	0	0	0	510	510	0	0	
13	0	0	0	0	511	507	0	0	
14	0	0	0	0	511	507	0	0	
15	0	0	0	0	509	507	0	0	
0	0	0	0	0	510	508	0	0	
1	0	0	0	0	509	507	0	0	
2	0	0	0	0	509	510	0	0	
3	0	0	0	0	509	507	0	0	
4	0	0	0	0	510	510	0	0	
5	0	0	0	0	512	506	0	0	
6	0	0	0	0	512	508	0	0	
7	0	0	0	0	512	508	0	0	
8	0	0	0	0	513	509	0	0	
9	0	0	0	0	511	508	0	0	
10	0	0	0	0	510	512	0	0	
11	0	0	0	0	512	510	0	0	
12	0	0	0	0	513	510	0	0	
13	0	0	0	0	513	510	0	0	
14	0	0	0	0	514	510	0	0	
15	0	0	0	0	513	508	0	0	
0	0	0	0	0	511	507	0	0	
1	0	0	0	0	511	507	0	0	
2	0	0	0	0	512	508	0	0	
3	0	0	0	0	510	507	0	0	
4	0	0	0	0	510	505	0	0	
5	0	0	0	0	511	509	0	0	
6	0	0	0	0	511	505	0	0	
7	0	0	0	0	510	507	0	0	
8	0	0	0	0	511	508	0	0	
9	0	0	0	0	510	508	0	0	
10	0	0	0	0	511	507	0	0	
11	0	0	0	0	511	511	0	0	
12	0	0	0	0	515	511	0	0	
13	0	0	0	0	514	509	0	0	
14	0	0	0	0	515	511	0	0	
15	0	0	0	0	514	509	0	0	
0	0	0	0	0	512	510	0	0	
1	0	0	0	0	512	510	0	0	
2	0	0	0	0	513	507	0	0	
3	0	0	0	0	515	509	0	0	
4	0	0	0	0	513	506	0	0	
5	0	0	0	0	512	507	0	0	
6	0	0	0	0	509	506	0	0	
7	0	0	0	0	508	506	0	0	
8	0	0	0	0	508	506	0	0	
9	0	0	0	0	509	505	0	0	
10	0	0	0	0	508	505	0	0	
11	0	0	0	0	509	504	0	0	
12	0	0	0	0	509	508	0	0	
13	0	0	0	0	507	508	0	0	
14	0	0	0	0	509	508	0	0	
15	0	0	0	0	510	505	0	0	
0	0	0	0	0	510	510	0	0	
1	0	0	0	0	513	511	0	0	
2	0	0	0	0	513	508	0	0	
3	0	0	0	0	513	510	0	0	
4	0	0	0	0	512	510	0	0	
5	0	0	0	0	514	511	0	0	
6	0	0	0	0	514	509	0	0	
7	0	0	0	0	513	508	0	0	
8	0	0	0	0	511	509	0	0	
9	0	0	0	0	511	508	0	0	
10	0	0	0	0	511	508	0	0	
11	0	0	0	0	508	507	0	0	
12	0	0	0	0	505	505	0	0	
13	0	0	0	0	506	505	0	0	
14	0	0	0	0	507	506	0	0	
15	0	0	0	0	507	502	0	0	
0	0	0	0	0	508	505	0	0	
1	0	0	0	0	507	508	0	0	
2	0	0	0	0	510	509	0	0	
3	0	0	0	0	510	507	0	0	
4	0	0	0	0	512	507	0	0	
5	0	0	0	0	513	508	0	0	
6	0	0	0	0	511	510	0	0	
7	0	0	0	0	512	509	0	0	
8	0	0	0	0	512	509	0	0	
9	0	0	0	0	514	509	0	0	
10	0	0	0	0	514	509	0	0	
11	0	0	0	0	514	507	0	0	
12	0	0	0	0	513	508	0	0	
13	0	0	0	0	511	509	0	0	
14	0	0	0	0	509	511	0	0	
15	0	0	0	0	510	508	0	0	
0	0	0	0	0	508	508	0	0	
1	0	0	0	0	508	509	0	0	
2	0	0	0	0	507	512	0	0	
3	0	0	0	0	508	509	0	0	
4	0	0	0	0	508	510	0	0	
5	0	0	0	0	508	510	0	0	
6	0	0	0	0	510	510	0	0	
7	0	0	0	0	511	510	0	0	
8	0	0	0	0	512	509	0	0	
9	0	0	0	0	513	507	0	0	
10	0	0	0	0	513	509	0	0	
11	0	0	0	0	514	511	0	0	
12	0	0	0	0	511	509	0	0	
13	0	0	0	0	515	507	0	0	
14	0	0	0	0	513	506	0	0	
15	0	0	0	0	513	504	0	0	
0	0	0	0	0	511	504	0	0	
1	0	0	0	0	508	504	0	0	
2	0	0	0	0	510	508	0	0	
3	0	0	0	0	509	505	0	0	
4	0	0	0	0	508	506	0	0	
5	0	0	0	0	506	506	0	0	
6	0	0	0	0	508	504	0	0	
7	0	0	0	0	508	507	0	0	
8	0	0	0	0	507	507	0	0	
9	0	0	0	0	509	507	0	0	
10	0	0	0	0	506	506	0	0	
11	0	0	0	0	509	505	0	0	
12	0	0	0	0	511	506	0	0	
13	0	0	0	0	509	508	0	0	
14	0	0	0	0	510	510	0	0	
15	0	0	0	0	509	507	0	0	
0	0	0	0	0	513	508	0	0	
1	0	0	0	0	513	508	0	0	
2	0	0	0	0	511	508	0	0	
3	0	0	0	0	511	510	0	0	
4	0	0	0	0	512	509	0	0	
5	0	0	0	0	511	508	0	0	
6	0	0	0	0	513	506	0	0	
7	0	0	0	0	512	509	0	0	
8	0	0	0	0	511	507	0	0	
9	0	0	0	0	509	508	0	0	
10	0	0	0	0	511	508	0	0	
11	0	0	0	0	510	509	0	0	
12	0	0	0	0	509	508	0	0	
13	0	0	0	0	512	509	0	0	
14	0	0	0	0	512	509	0	0	
15	0	0	0	0	518	508	0	0	
0	0	0	0	0	516	508	0	0	
1	0	0	0	0	516	510	0	0	
2	0	0	0	0	513	511	0	0	
3	0	0	0	0	514	510	0	0	
4	0	0	0	0	514	510	0	0	
5	0	0	0	0	514	511	0	0	
6	0	0	0	0	510	511	0	0	
7	0	0	0	0	511	511	0	0	
8	0	0	0	0	512	510	0	0	
9	0	0	0	0	512	509	0	0	
10	0	0	0	0	511	510	0	0	
11	0	0	0	0	508	507	0	0	
12	0	0	0	0	508	504	0	0	
13	0	0	0	0	509	506	0	0	
14	0	0	0	0	508	506	0	0	
15	0	0	0	0	508	506	0	0	
0	0	0	0	0	508	507	0	0	
1	0	0	0	0	511	506	0	0	
2	0	0	0	0	511	508	0	0	
3	0	0	0	0	510	510	0	0	
4	0	0	0	0	512	511	0	0	
5	0	0	0	0	513	509	0	0	
6	0	0	0	0	511	508	0	0	
7	0	0	0	0	514	511	0	0	
8	0	0	0	0	512	510	0	0	
9	0	0	0	0	513	509	0	0	
10	0	0	0	0	512	511	0	0	
11	0	0	0	0	512	510	0	0	
12	0	0	0	0	512	507	0	0	
13	0	0	0	0	513	508	0	0	
14	0	0	0	0	511	507	0	0	
15	0	0	0	0	509	505	0	0	
0	0	0	0	0	507	506	0	0	
1	0	0	0	0	508	507	0	0	
2	0	0	0	0	506	508	0	0	
3	0	0	0	0	508	507	0	0	
4	0	0	0	0	507	508	0	0	
5	0	0	0	0	505	508	0	0	
6	0	0	0	0	507	508	0	0	
7	0	0	0	0	511	508	0	0	
8	0	0	0	0	509	511	0	0	
9	0	0	0	0	512	509	0	0	
10	0	0	0	0	512	510	0	0	
11	0	0	0	0	511	509	0	0	
12	0	0	0	0	512	508	0	0	
13	0	0	0	0	512	508	0	0	
14	0	0	0	0	512	508	0	0	
15	0	0	0	0	512	507	0	0	
0	0	0	0	0	512	508	0	0	
1	0	0	0	0	511	510	0	0	
2	0	0	0	0	510	504	0	0	
3	0	0	0	0	508	507	0	0	
4	0	0	0	0	508	508	0	0	
5	0	0	0	0	511	507	0	0	
6	0	0	0	0	509	508	0	0	
7	0	0	0	0	509	510	0	0	
8	0	0	0	0	510	508	0	0	
9	0	0	0	0	512	508	0	0	
10	0	0	0	0	512	509	0	0	
11	0	0	0	0	513	505	0	0	
12	0	0	0	0	514	507	0	0	
13	0	0	0	0	513	508	0	0	
14	0	0	0	0	516	508	0	0	
15	0	0	0	0	513	509	0	0	
0	0	0	0	0	516	508	0	0	
1	0	0	0	0	514	509	0	0	
2	0	0	0	0	514	509	0	0	
3	0	0	0	0	513	511	0	0	
4	0	0	0	0	511	510	0	0	
5	0	0	0	0	510	510	0	0	
6	0	0	0	0	508	507	0	0	
7	0	0	0	0	506	507	0	0	
8	0	0	0	0	508	505	0	0	
9	0	0	0	0	510	506	0	0	
10	0	0	0	0	509	507	0	0	
11	0	0	0	0	509	508	0	0	
12	0	0	0	0	510	508	0	0	
13	0	0	0	0	509	508	0	0	
14	0	0	0	0	511	507	0	0	
15	0	0	0	0	512	507	0	0	
0	0	0	0	0	513	508	0	0	
1	0	0	0	0	512	506	0	0	
2	0	0	0	0	511	509	0	0	
3	0	0	0	0	513	507	0	0	
4	0	0	0	0	512	508	0	0	
5	0	0	0	0	515	509	0	0	
6	0	0	0	0	512	509	0	0	
7	0	0	0	0	512	509	0	0	
8	0	0	0	0	511	508	0	0	
9	0	0	0	0	508	508	0	0	
10	0	0	0	0	509	510	0	0	
11	0	0	0	0	509	507	0	0	
12	0	0	0	0	507	509	0	0	
13	0	0	0	0	506	508	0	0	
14	0	0	0	0	508	507	0	0	
15	0	0	0	0	507	504	0	0	
0	0	0	0	0	505	507	0	0	
1	0	0	0	0	508	510	0	0	
2	0	0	0	0	510	511	0	0	
3	0	0	0	0	509	508	0	0	
4	0	0	0	0	511	509	0	0	
5	0	0	0	0	514	508	0	0	
6	0	0	0	0	516	509	0	0	
7	0	0	0	0	513	509	0	0	
8	0	0	0	0	515	508	0	0	
9	0	0	0	0	514	510	0	0	
10	0	0	0	0	513	507	0	0	
11	0	0	0	0	513	506	0	0	
12	0	0	0	0	512	507	0	0	
13	0	0	0	0	511	506	0	0	
14	0	0	0	0	510	505	0	0	
15	0	0	0	0	508	504	0	0	
0	0	0	0	0	509	506	0	0	
1	0	0	0	0	509	507	0	0	
2	0	0	0	0	508	505	0	0	
3	0	0	0	0	509	506	0	0	
4	0	0	0	0	507	508	0	0	
5	0	0	0	0	509	507	0	0	
6	0	0	0	0	509	508	0	0	
7	0	0	0	0	509	508	0	0	
8	0	0	0	0	511	508	0	0	
9	0	0	0	0	515	509	0	0	
10	0	0	0	0	515	509	0	0	
11	0	0	0	0	514	509	0	0	
12	0	0	0	0	514	508	0	0	
13	0	0	0	0	511	509	0	0	
14	0	0	0	0	511	511	0	0	
15	0	0	0	0	513	509	0	0	
0	0	0	0	0	515	507	0	0	
1	0	0	0	0	514	507	0	0	
2	0	0	0	0	511	506	0	0	
3	0	0	0	0	510	508	0	0	
4	0	0	0	0	510	506	0	0	
5	0	0	0	0	508	507	0	0	
6	0	0	0	0	508	508	0	0	
7	0	0	0	0	510	510	0	0	
8	0	0	0	0	510	508	0	0	
9	0	0	0	0	508	508	0	0	
10	0	0	0	0	509	508	0	0	
11	0	0	0	0	512	509	0	0	
12	0	0	0	0	514	509	0	0	
13	0	0	0	0	516	507	0	0	
14	0	0	0	0	516	507	0	0	
15	0	0	0	0	516	507	0	0	
0	0	0	0	0	514	506	0	0	
1	0	0	0	0	514	507	0	0	
2	0	0	0	0	514	510	0	0	
3	0	0	0	0	514	508	0	0	
4	0	0	0	0	512	506	0	0	
5	0	0	0	0	509	507	0	0	
6	0	0	0	0	510	508	0	0	
7	0	0	0	0	508	504	0	0	
8	0	0	0	0	507	504	0	0	
9	0	0	0	0	508	507	0	0	
10	0	0	0	0	508	505	0	0	
11	0	0	0	0	509	507	0	0	
12	0	0	0	0	507	508	0	0	
13	0	0	0	0	508	505	0	0	
14	0	0	0	0	509	508	0	0	
15	0	0	0	0	507	508	0	0	
0	0	0	0	0	511	510	0	0	
1	0	0	0	0	513	510	0	0	
2	0	0	0	0	511	508	0	0	
3	0	0	0	0	510	509	0	0	
4	0	0	0	0	511	508	0	0	
5	0	0	0	0	512	510	0	0	
6	0	0	0	0	512	509	0	0	
7	0	0	0	0	510	511	0	0	
8	0	0	0	0	510	509	0	0	
9	0	0	0	0	511	508	0	0	
10	0	0	0	0	510	508	0	0	
11	0	0	0	0	508	508	0	0	
12	0	0	0	0	508	508	0	0	
13	0	0	0	0	508	508	0	0	
14	0	0	0	0	511	506	0	0	
15	0	0	0	0	511	505	0	0	
0	0	0	0	0	511	506	0	0	
1	0	0	0	0	510	507	0	0	
2	0	0	0	0	511	508	0	0	
3	0	0	0	0	513	507	0	0	
4	0	0	0	0	515	509	0	0	
5	0	0	0	0	514	511	0	0	
6	0	0	0	0	517	510	0	0	
7	0	0	0	0	514	510	0	0	
8	0	0	0	0	512	507	0	0	
9	0	0	0	0	512	511	0	0	
10	0	0	0	0	512	508	0	0	
11	0	0	0	0	512	510	0	0	
12	0	0	0	0	510	508	0	0	
13	0	0	0	0	511	506	0	0	
14	0	0	0	0	511	508	0	0	
15	0	0	0	0	508	508	0	0	
0	0	0	0	0	512	508	0	0	
1	0	0	0	0	508	507	0	0	
2	0	0	0	0	509	509	0	0	
3	0	0	0	0	510	507	0	0	
4	0	0	0	0	513	510	0	0	
5	0	0	0	0	511	511	0	0	
6	0	0	0	0	510	510	0	0	
7	0	0	0	0	508	510	0	0	
8	0	0	0	0	512	507	0	0	
9	0	0	0	0	512	510	0	0	
10	0	0	0	0	514	508	0	0	
11	0	0	0	0	512	506	0	0	
12	0	0	0	0	513	505	0	0	
13	0	0	0	0	513	507	0	0	
14	0	0	0	0	511	508	0	0	
15	0	0	0	0	513	505	0	0	
0	0	0	0	0	511	506	0	0	
1	0	0	0	0	511	507	0	0	
2	0	0	0	0	512	509	0	0	
3	0	0	0	0	512	506	0	0	
4	0	0	0	0	510	507	0	0	
5	0	0	0	0	511	508	0	0	
6	0	0	0	0	510	506	0	0	
7	0	0	0	0	511	508	0	0	
8	0	0	0	0	510	509	0	0	
9	0	0	0	0	512	508	0	0	
10	0	0	0	0	511	508	0	0	
11	0	0	0	0	511	509	0	0	
12	0	0	0	0	513	509	0	0	
13	0	0	0	0	511	511	0	0	
14	0	0	0	0	512	511	0	0	
15	0	0	0	0	511	512	0	0	
0	0	0	0	0	513	511	0	0	
1	0	0	0	0	514	508	0	0	
2	0	0	0	0	512	510	0	0	
3	0	0	0	0	514	508	0	0	
4	0	0	0	0	512	508	0	0	
5	0	0	0	0	511	509	0	0	
6	0	0	0	0	509	508	0	0	
7	0	0	0	0	508	509	0	0	
8	0	0	0	0	507	508	0	0	
9	0	0	0	0	507	504	0	0	
10	0	0	0	0	507	505	0	0	
11	0	0	0	0	512	504	0	0	
12	0	0	0	0	511	507	0	0	
13	0	0	0	0	510	506	0	0	
14	0	0	0	0	509	507	0	0	
15	0	0	0	0	511	508	0	0	
0	0	0	0	0	511	509	0	0	
1	0	0	0	0	511	509	0	0	
2	0	0	0	0	515	510	0	0	
3	0	0	0	0	515	510	0	0	
4	0	0	0	0	514	508	0	0	
5	0	0	0	0	512	507	0	0	
6	0	0	0	0	511	508	0	0	
7	0	0	0	0	512	509	0	0	
8	0	0	0	0	511	506	0	0	
9	0	0	0	0	509	508	0	0	
10	0	0	0	0	508	505	0	0	
11	0	0	0	0	507	507	0	0	
12	0	0	0	0	507	509	0	0	
13	0	0	0	0	507	507	0	0	
14	0	0	0	0	507	505	0	0	
15	0	0	0	0	508	508	0	0	
0	0	0	0	0	509	509	0	0	
1	0	0	0	0	507	508	0	0	
2	0	0	0	0	509	511	0	0	
3	0	0	0	0	511	509	0	0	
4	0	0	0	0	514	510	0	0	
5	0	0	0	0	515	511	0	0	
6	0	0	0	0	515	510	0	0	
7	0	0	0	0	513	510	0	0	
8	0	0	0	0	512	507	0	0	
9	0	0	0	0	514	509	0	0	
10	0	0	0	0	516	508	0	0	
11	0	0	0	0	513	508	0	0	
12	0	0	0	0	512	507	0	0	
13	0	0	0	0	511	508	0	0	
14	0	0	0	0	510	506	0	0	
15	0	0	0	0	509	506	0	0	
0	0	0	0	0	509	507	0	0	
1	0	0	0	0	508	508	0	0	
2	0	0	0	0	510	507	0	0	
3	0	0	0	0	508	505	0	0	
4	0	0	0	0	509	508	0	0	
5	0	0	0	0	507	507	0	0	
6	0	0	0	0	508	507	0	0	
7	0	0	0	0	511	506	0	0	
8	0	0	0	0	512	507	0	0	
9	0	0	0	0	513	506	0	0	
10	0	0	0	0	511	508	0	0	
11	0	0	0	0	513	509	0	0	
12	0	0	0	0	514	512	0	0	
13	0	0	0	0	512	511	0	0	
14	0	0	0	0	512	511	0	0	
15	0	0	0	0	512	510	0	0	
0	0	0	0	0	513	510	0	0	
1	0	0	0	0	511	508	0	0	
2	0	0	0	0	512	507	0	0	
3	0	0	0	0	507	507	0	0	
4	0	0	0	0	510	507	0	0	
5	0	0	0	0	508	508	0	0	
6	0	0	0	0	507	508	0	0	
7	0	0	0	0	509	510	0	0	
8	0	0	0	0	510	507	0	0	
9	0	0	0	0	511	504	0	0	
10	0	0	0	0	510	508	0	0	
11	0	0	0	0	510	508	0	0	
12	0	0	0	0	512	509	0	0	
13	0	0	0	0	512	510	0	0	
14	0	0	0	0	511	509	0	0	
15	0	0	0	0	515	510	0	0	
0	0	0	0	0	515	510	0	0	
1	0	0	0	0	514	509	0	0	
2	0	0	0	0	513	511	0	0	
3	0	0	0	0	516	508	0	0	
4	0	0	0	0	515	509	0	0	
5	0	0	0	0	512	508	0	0	
6	0	0	0	0	512	508	0	0	
7	0	0	0	0	513	508	0	0	
8	0	0	0	0	511	508	0	0	
9	0	0	0	0	510	505	0	0	
10	0	0	0	0	509	505	0	0	
11	0	0	0	0	508	506	0	0	
12	0	0	0	0	510	507	0	0	
13	0	0	0	0	507	506	0	0	
14	0	0	0	0	507	508	0	0	
15	0	0	0	0	510	508	0	0	
0	0	0	0	0	513	507	0	0	
1	0	0	0	0	513	508	0	0	
2	0	0	0	0	512	509	0	0	
3	0	0	0	0	513	508	0	0	
4	0	0	0	0	512	511	0	0	
5	0	0	0	0	512	511	0	0	
6	0	0	0	0	513	510	0	0	
7	0	0	0	0	514	511	0	0	
8	0	0	0	0	514	509	0	0	
9	0	0	0	0	512	508	0	0	
10	0	0	0	0	510	508	0	0	
11	0	0	0	0	509	508	0	0	
12	0	0	0	0	508	507	0	0	
13	0	0	0	0	506	504	0	0	
14	0	0	0	0	506	505	0	0	
15	0	0	0	0	508	508	0	0	
0	0	0	0	0	507	505	0	0	
1	0	0	0	0	510	508	0	0	
2	0	0	0	0	509	506	0	0	
3	0	0	0	0	511	510	0	0	
4	0	0	0	0	511	509	0	0	
5	0	0	0	0	512	508	0	0	
6	0	0	0	0	513	510	0	0	
7	0	0	0	0	511	511	0	0	
8	0	0	0	0	512	511	0	0	
9	0	0	0	0	513	507	0	0	
10	0	0	0	0	512	508	0	0	
11	0	0	0	0	512	507	0	0	
12	0	0	0	0	512	508	0	0	
13	0	0	0	0	512	509	0	0	
14	0	0	0	0	510	508	0	0	
15	0	0	0	0	511	508	0	0	
0	0	0	0	0	510	504	0	0	
1	0	0	0	0	512	505	0	0	
2	0	0	0	0	508	506	0	0	
3	0	0	0	0	508	508	0	0	
4	0	0	0	0	510	506	0	0	
5	0	0	0	0	511	508	0	0	
6	0	0	0	0	508	509	0	0	
7	0	0	0	0	510	508	0	0	
8	0	0	0	0	512	508	0	0	
9	0	0	0	0	512	508	0	0	
10	0	0	0	0	513	509	0	0	
11	0	0	0	0	515	510	0	0	
12	0	0	0	0	511	508	0	0	
13	0	0	0	0	512	508	0	0	
14	0	0	0	0	511	507	0	0	
15	0	0	0	0	512	511	0	0	
0	0	0	0	0	511	508	0	0	
1	0	0	0	0	510	507	0	0	
2	0	0	0	0	507	508	0	0	
3	0	0	0	0	507	507	0	0	
4	0	0	0	0	509	507	0	0	
5	0	0	0	0	508	507	0	0	
6	0	0	0	0	508	507	0	0	
7	0	0	0	0	508	508	0	0	
8	0	0	0	0	510	507	0	0	
9	0	0	0	0	511	508	0	0	
10	0	0	0	0	512	505	0	0	
11	0	0	0	0	513	507	0	0	
12	0	0	0	0	513	510	0	0	
13	0	0	0	0	513	510	0	0	
14	0	0	0	0	509	509	0	0	
15	0	0	0	0	508	508	0	0	
0	0	0	0	0	511	508	0	0	
1	0	0	0	0	512	508	0	0	
2	0	0	0	0	511	506	0	0	
3	0	0	0	0	512	507	0	0	
4	0	0	0	0	512	510	0	0	
5	0	0	0	0	512	505	0	0	
6	0	0	0	0	509	507	0	0	
7	0	0	0	0	510	507	0	0	
8	0	0	0	0	511	507	0	0	
9	0	0	0	0	510	506	0	0	
10	0	0	0	0	510	505	0	0	
11	0	0	0	0	511	508	0	0	
12	0	0	0	0	510	506	0	0	
13	0	0	0	0	509	508	0	0	
14	0	0	0	0	510	507	0	0	
15	0	0	0	0	508	509	0	0	
0	0	0	0	0	512	508	0	0	
1	0	0	0	0	512	510	0	0	
2	0	0	0	0	513	508	0	0	
3	0	0	0	0	512	511	0	0	
4	0	0	0	0	512	510	0	0	
5	0	0	0	0	512	509	0	0	
6	0	0	0	0	511	508	0	0	
7	0	0	0	0	511	508	0	0	
8	0	0	0	0	510	506	0	0	
9	0	0	0	0	511	505	0	0	
10	0	0	0	0	510	506	0	0	
11	0	0	0	0	510	508	0	0	
12	0	0	0	0	510	505	0	0	
13	0	0	0	0	508	506	0	0	
14	0	0	0	0	509	507	0	0	
15	0	0	0	0	508	508	0	0	
0	0	0	0	0	507	509	0	0	
1	0	0	0	0	509	509	0	0	
2	0	0	0	0	511	509	0	0	
3	0	0	0	0	511	508	0	0	
4	0	0	0	0	512	508	0	0	
5	0	0	0	0	515	511	0	0	
6	0	0	0	0	515	508	0	0	
7	0	0	0	0	518	508	0	0	
8	0	0	0	0	517	509	0	0	
9	0	0	0	0	515	510	0	0	
10	0	0	0	0	513	508	0	0	
11	0	0	0	0	514	508	0	0	
12	0	0	0	0	515	508	0	0	
13	0	0	0	0	512	508	0	0	
14	0	0	0	0	510	508	0	0	
15	0	0	0	0	509	508	0	0	
0	0	0	0	0	509	509	0	0	
1	0	0	0	0	510	508	0	0	
2	0	0	0	0	509	507	0	0	
3	0	0	0	0	506	508	0	0	
4	0	0	0	0	508	508	0	0	
5	0	0	0	0	509	507	0	0	
6	0	0	0	0	509	508	0	0	
7	0	0	0	0	509	509	0	0	
8	0	0	0	0	512	511	0	0	
9	0	0	0	0	512	512	0	0	
10	0	0	0	0	512	512	0	0	
11	0	0	0	0	511	509	0	0	
12	0	0	0	0	513	510	0	0	
13	0	0	0	0	514	509	0	0	
14	0	0	0	0	513	508	0	0	
15	0	0	0	0	513	509	0	0	
0	0	0	0	0	513	507	0	0	
1	0	0	0	0	509	503	0	0	
2	0	0	0	0	509	506	0	0	
3	0	0	0	0	508	505	0	0	
4	0	0	0	0	509	508	0	0	
5	0	0	0	0	511	507	0	0	
6	0	0	0	0	509	506	0	0	
7	0	0	0	0	508	505	0	0	
8	0	0	0	0	508	508	0	0	
9	0	0	0	0	507	509	0	0	
10	0	0	0	0	511	509	0	0	
11	0	0	0	0	511	510	0	0	
12	0	0	0	0	512	508	0	0	
13	0	0	0	0	512	508	0	0	
14	0	0	0	0	510	508	0	0	
15	0	0	0	0	512	508	0	0	
0	0	0	0	0	514	511	0	0	
1	0	0	0	0	513	509	0	0	
2	0	0	0	0	512	508	0	0	
3	0	0	0	0	511	510	0	0	
4	0	0	0	0	511	507	0	0	
5	0	0	0	0	511	508	0	0	
6	0	0	0	0	510	508	0	0	
7	0	0	0	0	508	508	0	0	
8	0	0	0	0	508	506	0	0	
9	0	0	0	0	508	509	0	0	
10	0	0	0	0	508	508	0	0	
11	0	0	0	0	510	507	0	0	
12	0	0	0	0	510	506	0	0	
13	0	0	0	0	511	507	0	0	
14	0	0	0	0	511	506	0	0	
15	0	0	0	0	511	507	0	0	
0	0	0	0	0	512	508	0	0	
1	0	0	0	0	513	508	0	0	
2	0	0	0	0	511	511	0	0	
3	0	0	0	0	513	511	0	0	
4	0	0	0	0	511	510	0	0	
5	0	0	0	0	513	511	0	0	
6	0	0	0	0	511	509	0	0	
7	0	0	0	0	514	511	0	0	
8	0	0	0	0	514	511	0	0	
9	0	0	0	0	512	508	0	0	
10	0	0	0	0	515	508	0	0	
11	0	0	0	0	511	504	0	0	
12	0	0	0	0	510	508	0	0	
13	0	0	0	0	512	507	0	0	
14	0	0	0	0	509	506	0	0	
15	0	0	0	0	507	506	0	0	
0	0	0	0	0	507	509	0	0	
1	0	0	0	0	509	508	0	0	
2	0	0	0	0	511	508	0	0	
3	0	0	0	0	512	508	0	0	
4	0	0	0	0	511	509	0	0	
5	0	0	0	0	512	510	0	0	
6	0	0	0	0	512	508	0	0	
7	0	0	0	0	512	508	0	0	
8	0	0	0	0	513	508	0	0	
9	0	0	0	0	514	510	0	0	
10	0	0	0	0	515	511	0	0	
11	0	0	0	0	511	508	0	0	
12	0	0	0	0	512	508	0	0	
13	0	0	0	0	512	506	0	0	
14	0	0	0	0	511	505	0	0	
15	0	0	0	0	512	502	0	0	
0	0	0	0	0	513	505	0	0	
1	0	0	0	0	511	508	0	0	
2	0	0	0	0	512	504	0	0	
3	0	0	0	0	511	505	0	0	
4	0	0	0	0	509	508	0	0	
5	0	0	0	0	508	505	0	0	
6	0	0	0	0	510	507	0	0	
7	0	0	0	0	509	508	0	0	
8	0	0	0	0	512	509	0	0	
9	0	0	0	0	513	509	0	0	
10	0	0	0	0	515	508	0	0	
11	0	0	0	0	512	510	0	0	
12	0	0	0	0	512	510	0	0	
13	0	0	0	0	512	510	0	0	
14	0	0	0	0	513	510	0	0	
15	0	0	0	0	511	508	0	0	
0	0	0	0	0	511	509	0	0	
1	0	0	0	0	510	507	0	0	
2	0	0	0	0	509	508	0	0	
3	0	0	0	0	509	508	0	0	
4	0	0	0	0	509	507	0	0	
5	0	0	0	0	509	504	0	0	
6	0	0	0	0	510	507	0	0	
7	0	0	0	0	510	505	0	0	
8	0	0	0	0	509	507	0	0	
9	0	0	0	0	509	508	0	0	
10	0	0	0	0	511	508	0	0	
11	0	0	0	0	510	509	0	0	
12	0	0	0	0	510	510	0	0	
13	0	0	0	0	513	508	0	0	
14	0	0	0	0	515	508	0	0	
15	0	0	0	0	513	508	0	0	
0	0	0	0	0	514	510	0	0	
1	0	0	0	0	513	509	0	0	
2	0	0	0	0	512	508	0	0	
3	0	0	0	0	511	508	0	0	
4	0	0	0	0	512	511	0	0	
5	0	0	0	0	508	508	0	0	
6	0	0	0	0	509	507	0	0	
7	0	0	0	0	510	507	0	0	
8	0	0	0	0	506	505	0	0	
9	0	0	0	0	508	509	0	0	
10	0	0	0	0	509	506	0	0	
11	0	0	0	0	509	507	0	0	
12	0	0	0	0	511	508	0	0	
13	0	0	0	0	513	508	0	0	
14	0	0	0	0	515	506	0	0	
15	0	0	0	0	515	508	0	0	
0	0	0	0	0	514	510	0	0	
1	0	0	0	0	515	510	0	0	
2	0	0	0	0	514	510	0	0	
3	0	0	0	0	513	510	0	0	
4	0	0	0	0	515	508	0	0	
5	0	0	0	0	514	512	0	0	
6	0	0	0	0	512	510	0	0	
7	0	0	0	0	512	510	0	0	
8	0	0	0	0	512	509	0	0	
9	0	0	0	0	510	508	0	0	
10	0	0	0	0	510	507	0	0	
11	0	0	0	0	508	506	0	0	
12	0	0	0	0	507	506	0	0	
13	0	0	0	0	507	504	0	0	
14	0	0	0	0	507	505	0	0	
15	0	0	0	0	508	508	0	0	
0	0	0	0	0	511	507	0	0	
1	0	0	0	0	511	507	0	0	
2	0	0	0	0	511	509	0	0	
3	0	0	0	0	513	509	0	0	
4	0	0	0	0	514	508	0	0	
5	0	0	0	0	515	508	0	0	
6	0	0	0	0	513	508	0	0	
7	0	0	0	0	511	510	0	0	
8	0	0	0	0	511	511	0	0	
9	0	0	0	0	512	510	0	0	
10	0	0	0	0	512	512	0	0	
11	0	0	0	0	512	512	0	0	
12	0	0	0	0	512	509	0	0	
13	0	0	0	0	510	509	0	0	
14	0	0	0	0	510	507	0	0	
15	0	0	0	0	506	507	0	0	
0	0	0	0	0	507	508	0	0	
1	0	0	0	0	505	504	0	0	
2	0	0	0	0	508	506	0	0	
3	0	0	0	0	508	506	0	0	
4	0	0	0	0	510	506	0	0	
5	0	0	0	0	512	505	0	0	
6	0	0	0	0	510	505	0	0	
7	0	0	0	0	510	507	0	0	
8	0	0	0	0	514	508	0	0	
9	0	0	0	0	512	506	0	0	
10	0	0	0	0	514	508	0	0	
11	0	0	0	0	513	508	0	0	
12	0	0	0	0	515	509	0	0	
13	0	0	0	0	512	511	0	0	
14	0	0	0	0	513	510	0	0	
15	0	0	0	0	512	510	0	0	
0	0	0	0	0	513	511	0	0	
1	0	0	0	0	509	508	0	0	
2	0	0	0	0	510	507	0	0	
3	0	0	0	0	510	506	0	0	
4	0	0	0	0	511	509	0	0	
5	0	0	0	0	509	507	0	0	
6	0	0	0	0	510	508	0	0	
7	0	0	0	0	508	508	0	0	
8	0	0	0	0	510	508	0	0	
9	0	0	0	0	510	508	0	0	
10	0	0	0	0	509	508	0	0	
11	0	0	0	0	511	506	0	0	
12	0	0	0	0	513	508	0	0	
13	0	0	0	0	512	508	0	0	
14	0	0	0	0	513	510	0	0	
15	0	0	0	0	513	511	0	0	
0	0	0	0	0	513	509	0	0	
1	0	0	0	0	515	510	0	0	
2	0	0	0	0	513	509	0	0	
3	0	0	0	0	512	507	0	0	
4	0	0	0	0	513	510	0	0	
5	0	0	0	0	510	508	0	0	
6	0	0	0	0	510	508	0	0	
7	0	0	0	0	509	507	0	0	
8	0	0	0	0	511	507	0	0	
9	0	0	0	0	509	508	0	0	
10	0	0	0	0	507	509	0	0	
11	0	0	0	0	506	508	0	0	
12	0	0	0	0	508	505	0	0	
13	0	0	0	0	508	507	0	0	
14	0	0	0	0	509	508	0	0	
15	0	0	0	0	510	509	0	0	
0	0	0	0	0	513	506	0	0	
1	0	0	0	0	511	508	0	0	
2	0	0	0	0	512	507	0	0	
3	0	0	0	0	512	508	0	0	
4	0	0	0	0	513	510	0	0	
5	0	0	0	0	514	509	0	0	
6	0	0	0	0	512	509	0	0	
7	0	0	0	0	511	508	0	0	
8	0	0	0	0	512	507	0	0	
9	0	0	0	0	511	508	0	0	
10	0	0	0	0	511	506	0	0	
11	0	0	0	0	511	507	0	0	
12	0	0	0	0	509	508	0	0	
13	0	0	0	0	510	508	0	0	
14	0	0	0	0	511	507	0	0	
15	0	0	0	0	511	506	0	0	
0	0	0	0	0	509	504	0	0	
1	0	0	0	0	507	506	0	0	
2	0	0	0	0	507	507	0	0	
3	0	0	0	0	509	508	0	0	
4	0	0	0	0	510	504	0	0	
5	0	0	0	0	509	507	0	0	
6	0	0	0	0	510	509	0	0	
7	0	0	0	0	513	509	0	0	
8	0	0	0	0	513	510	0	0	
9	0	0	0	0	513	510	0	0	
10	0	0	0	0	512	509	0	0	
11	0	0	0	0	512	508	0	0	
12	0	0	0	0	510	509	0	0	
13	0	0	0	0	511	509	0	0	
14	0	0	0	0	510	506	0	0	
15	0	0	0	0	509	506	0	0	
0	0	0	0	0	510	508	0	0	
1	0	0	0	0	507	507	0	0	
2	0	0	0	0	507	507	0	0	
3	0	0	0	0	510	506	0	0	
4	0	0	0	0	509	508	0	0	
5	0	0	0	0	510	507	0	0	
6	0	0	0	0	511	507	0	0	
7	0	0	0	0	511	509	0	0	
8	0	0	0	0	511	508	0	0	
9	0	0	0	0	513	509	0	0	
10	0	0	0	0	516	510	0	0	
11	0	0	0	0	516	513	0	0	
12	0	0	0	0	514	512	0	0	
13	0	0	0	0	515	511	0	0	
14	0	0	0	0	514	510	0	0	
15	0	0	0	0	514	510	0	0	
0	0	0	0	0	510	508	0	0	
1	0	0	0	0	510	508	0	0	
2	0	0	0	0	510	507	0	0	
3	0	0	0	0	511	507	0	0	
4	0	0	0	0	510	505	0	0	
5	0	0	0	0	510	507	0	0	
6	0	0	0	0	509	506	0	0	
7	0	0	0	0	508	508	0	0	
8	0	0	0	0	510	506	0	0	
9	0	0	0	0	510	507	0	0	
10	0	0	0	0	512	507	0	0	
11	0	0	0	0	511	506	0	0	
12	0	0	0	0	511	508	0	0	
13	0	0	0	0	511	509	0	0	
14	0	0	0	0	513	510	0	0	
15	0	0	0	0	515	510	0	0	
0	0	0	0	0	513	510	0	0	
1	0	0	0	0	514	511	0	0	
2	0	0	0	0	513	510	0	0	
3	0	0	0	0	514	510	0	0	
4	0	0	0	0	511	508	0	0	
5	0	0	0	0	511	508	0	0	
6	0	0	0	0	509	506	0	0	
7	0	0	0	0	510	505	0	0	
8	0	0	0	0	507	505	0	0	
9	0	0	0	0	508	504	0	0	
10	0	0	0	0	509	508	0	0	
11	0	0	0	0	508	508	0	0	
12	0	0	0	0	508	506	0	0	
13	0	0	0	0	509	508	0	0	
14	0	0	0	0	511	508	0	0	
15	0	0	0	0	508	509	0	0	
0	0	0	0	0	511	508	0	0	
1	0	0	0	0	511	508	0	0	
2	0	0	0	0	512	510	0	0	
3	0	0	0	0	513	510	0	0	
4	0	0	0	0	511	508	0	0	
5	0	0	0	0	512	508	0	0	
6	0	0	0	0	510	507	0	0	
7	0	0	0	0	510	507	0	0	
8	0	0	0	0	511	507	0	0	
9	0	0	0	0	511	507	0	0	
10	0	0	0	0	511	508	0	0	
11	0	0	0	0	510	506	0	0	
12	0	0	0	0	507	507	0	0	
13	0	0	0	0	509	507	0	0	
14	0	0	0	0	509	505	0	0	
15	0	0	0	0	510	504	0	0	
0	0	0	0	0	510	507	0	0	
1	0	0	0	0	510	510	0	0	
2	0	0	0	0	511	509	0	0	
3	0	0	0	0	510	508	0	0	
4	0	0	0	0	511	507	0	0	
5	0	0	0	0	512	508	0	0	
6	0	0	0	0	513	508	0	0	
7	0	0	0	0	513	509	0	0	
8	0	0	0	0	515	510	0	0	
9	0	0	0	0	512	508	0	0	
10	0	0	0	0	513	509	0	0	
11	0	0	0	0	512	508	0	0	
12	0	0	0	0	511	510	0	0	
13	0	0	0	0	509	510	0	0	
14	0	0	0	0	507	508	0	0	
15	0	0	0	0	510	508	0	0	
0	0	0	0	0	507	508	0	0	
1	0	0	0	0	508	508	0	0	
2	0	0	0	0	509	507	0	0	
3	0	0	0	0	511	508	0	0	
4	0	0	0	0	510	506	0	0	
5	0	0	0	0	512	507	0	0	
6	0	0	0	0	512	508	0	0	
7	0	0	0	0	513	508	0	0	
8	0	0	0	0	513	510	0	0	
9	0	0	0	0	513	510	0	0	
10	0	0	0	0	516	508	0	0	
11	0	0	0	0	512	510	0	0	
12	0	0	0	0	515	509	0	0	
13	0	0	0	0	513	509	0	0	
14	0	0	0	0	513	506	0	0	
15	0	0	0	0	512	507	0	0	
0	0	0	0	0	512	507	0	0	
1	0	0	0	0	511	507	0	0	
2	0	0	0	0	508	509	0	0	
3	0	0	0	0	510	508	0	0	
4	0	0	0	0	508	507	0	0	
5	0	0	0	0	509	505	0	0	
6	0	0	0	0	507	506	0	0	
7	0	0	0	0	507	507	0	0	
8	0	0	0	0	510	505	0	0	
9	0	0	0	0	510	506	0	0	
10	0	0	0	0	508	508	0	0	
11	0	0	0	0	511	510	0	0	
12	0	0	0	0	511	508	0	0	
13	0	0	0	0	513	509	0	0	
14	0	0	0	0	512	510	0	0	
15	0	0	0	0	515	510	0	0	
0	0	0	0	0	514	511	0	0	
1	0	0	0	0	514	509	0	0	
2	0	0	0	0	514	510	0	0	
3	0	0	0	0	513	512	0	0	
4	0	0	0	0	513	509	0	0	
5	0	0	0	0	509	505	0	0	
6	0	0	0	0	510	509	0	0	
7	0	0	0	0	507	507	0	0	
8	0	0	0	0	510	506	0	0	
9	0	0	0	0	508	508	0	0	
10	0	0	0	0	506	508	0	0	
11	0	0	0	0	505	509	0	0	
12	0	0	0	0	507	509	0	0	
13	0	0	0	0	508	507	0	0	
14	0	0	0	0	511	509	0	0	
15	0	0	0	0	511	506	0	0	
0	0	0	0	0	513	509	0	0	
1	0	0	0	0	515	509	0	0	
2	0	0	0	0	516	511	0	0	
3	0	0	0	0	515	511	0	0	
4	0	0	0	0	514	510	0	0	
5	0	0	0	0	512	510	0	0	
6	0	0	0	0	509	510	0	0	
7	0	0	0	0	511	511	0	0	
8	0	0	0	0	511	508	0	0	
9	0	0	0	0	508	506	0	0	
10	0	0	0	0	510	505	0	0	
11	0	0	0	0	508	505	0	0	
12	0	0	0	0	508	505	0	0	
13	0	0	0	0	509	506	0	0	
14	0	0	0	0	508	507	0	0	
15	0	0	0	0	509	506	0	0	
0	0	0	0	0	511	507	0	0	
1	0	0	0	0	508	508	0	0	
2	0	0	0	0	510	507	0	0	
3	0	0	0	0	511	506	0	0	
4	0	0	0	0	513	506	0	0	
5	0	0	0	0	511	510	0	0	
6	0	0	0	0	516	507	0	0	
7	0	0	0	0	514	508	0	0	
8	0	0	0	0	512	509	0	0	
9	0	0	0	0	515	510	0	0	
10	0	0	0	0	512	509	0	0	
11	0	0	0	0	514	509	0	0	
12	0	0	0	0	515	509	0	0	
13	0	0	0	0	515	509	0	0	
14	0	0	0	0	512	509	0	0	
15	0	0	0	0	511	507	0	0	
0	0	0	0	0	508	509	0	0	
1	0	0	0	0	509	508	0	0	
2	0	0	0	0	511	508	0	0	
3	0	0	0	0	512	506	0	0	
4	0	0	0	0	510	507	0	0	
5	0	0	0	0	511	506	0	0	
6	0	0	0	0	511	510	0	0	
7	0	0	0	0	511	508	0	0	
8	0	0	0	0	511	506	0	0	
9	0	0	0	0	510	507	0	0	
10	0	0	0	0	511	507	0	0	
11	0	0	0	0	514	507	0	0	
12	0	0	0	0	513	508	0	0	
13	0	0	0	0	514	509	0	0	
14	0	0	0	0	513	509	0	0	
15	0	0	0	0	513	508	0	0	
0	0	0	0	0	515	508	0	0	
1	0	0	0	0	513	506	0	0	
2	0	0	0	0	512	507	0	0	
3	0	0	0	0	511	507	0	0	
4	0	0	0	0	510	509	0	0	
5	0	0	0	0	512	510	0	0	
6	0	0	0	0	511	507	0	0	
7	0	0	0	0	512	509	0	0	
8	0	0	0	0	511	509	0	0	
9	0	0	0	0	511	508	0	0	
10	0	0	0	0	510	510	0	0	
11	0	0	0	0	513	508	0	0	
12	0	0	0	0	512	508	0	0	
13	0	0	0	0	515	509	0	0	
14	0	0	0	0	514	510	0	0	
15	0	0	0	0	513	510	0	0	
0	0	0	0	0	514	511	0	0	
1	0	0	0	0	513	508	0	0	
2	0	0	0	0	512	510	0	0	
3	0	0	0	0	515	509	0	0	
4	0	0	0	0	511	508	0	0	
5	0	0	0	0	512	505	0	0	
6	0	0	0	0	512	508	0	0	
7	0	0	0	0	506	507	0	0	
8	0	0	0	0	507	507	0	0	
9	0	0	0	0	508	506	0	0	
10	0	0	0	0	508	505	0	0	
11	0	0	0	0	509	504	0	0	
12	0	0	0	0	508	505	0	0	
13	0	0	0	0	508	505	0	0	
14	0	0	0	0	509	504	0	0	
15	0	0	0	0	511	507	0	0	
0	0	0	0	0	510	511	0	0	
1	0	0	0	0	511	509	0	0	
2	0	0	0	0	513	509	0	0	
3	0	0	0	0	515	510	0	0	
4	0	0	0	0	514	510	0	0	
5	0	0	0	0	514	508	0	0	
6	0	0	0	0	515	509	0	0	
7	0	0	0	0	513	508	0	0	
8	0	0	0	0	515	508	0	0	
9	0	0	0	0	510	507	0	0	
10	0	0	0	0	508	508	0	0	
11	0	0	0	0	506	507	0	0	
12	0	0	0	0	507	505	0	0	
13	0	0	0	0	508	508	0	0	
14	0	0	0	0	508	506	0	0	
15	0	0	0	0	510	507	0	0	
0	0	0	0	0	510	507	0	0	
1	0	0	0	0	509	507	0	0	
2	0	0	0	0	510	506	0	0	
3	0	0	0	0	511	508	0	0	
4	0	0	0	0	509	507	0	0	
5	0	0	0	0	511	511	0	0	
6	0	0	0	0	511	510	0	0	
7	0	0	0	0	512	508	0	0	
8	0	0	0	0	512	506	0	0	
9	0	0	0	0	514	506	0	0	
10	0	0	0	0	512	508	0	0	
11	0	0	0	0	513	507	0	0	
12	0	0	0	0	511	508	0	0	
13	0	0	0	0	509	508	0	0	
14	0	0	0	0	508	509	0	0	
15	0	0	0	0	508	508	0	0	
0	0	0	0	0	509	507	0	0	
1	0	0	0	0	508	509	0	0	
2	0	0	0	0	510	507	0	0	
3	0	0	0	0	507	505	0	0	
4	0	0	0	0	509	508	0	0	
5	0	0	0	0	509	507	0	0	
6	0	0	0	0	510	509	0	0	
7	0	0	0	0	512	507	0	0	
8	0	0	0	0	511	510	0	0	
9	0	0	0	0	513	511	0	0	
10	0	0	0	0	512	509	0	0	
11	0	0	0	0	512	508	0	0	
12	0	0	0	0	513	511	0	0	
13	0	0	0	0	515	509	0	0	
14	0	0	0	0	514	511	0	0	
15	0	0	0	0	513	509	0	0	
0	0	0	0	0	514	509	0	0	
1	0	0	0	0	512	509	0	0	
2	0	0	0	0	510	506	0	0	
3	0	0	0	0	510	504	0	0	
4	0	0	0	0	507	506	0	0	
5	0	0	0	0	508	508	0	0	
6	0	0	0	0	509	507	0	0	
7	0	0	0	0	507	506	0	0	
8	0	0	0	0	507	508	0	0	
9	0	0	0	0	508	507	0	0	
10	0	0	0	0	508	508	0	0	
11	0	0	0	0	508	508	0	0	
12	0	0	0	0	509	508	0	0	
13	0	0	0	0	511	507	0	0	
14	0	0	0	0	513	509	0	0	
15	0	0	0	0	516	509	0	0	
0	0	0	0	0	516	509	0	0	
1	0	0	0	0	515	507	0	0	
2	0	0	0	0	513	507	0	0	
3	0	0	0	0	514	507	0	0	
4	0	0	0	0	512	509	0	0	
5	0	0	0	0	514	506	0	0	
6	0	0	0	0	511	509	0	0	
7	0	0	0	0	508	508	0	0	
8	0	0	0	0	509	507	0	0	
9	0	0	0	0	508	505	0	0	
10	0	0	0	0	509	506	0	0	
11	0	0	0	0	509	508	0	0	
12	0	0	0	0	510	508	0	0	
13	0	0	0	0	510	506	0	0	
14	0	0	0	0	511	508	0	0	
15	0	0	0	0	510	507	0	0	
0	0	0	0	0	512	510	0	0	
1	0	0	0	0	514	507	0	0	
2	0	0	0	0	513	508	0	0	
3	0	0	0	0	514	510	0	0	
4	0	0	0	0	514	507	0	0	
5	0	0	0	0	515	509	0	0	
6	0	0	0	0	513	509	0	0	
7	0	0	0	0	512	510	0	0	
8	0	0	0	0	512	508	0	0	
9	0	0	0	0	511	506	0	0	
10	0	0	0	0	513	509	0	0	
11	0	0	0	0	511	509	0	0	
12	0	0	0	0	506	507	0	0	
13	0	0	0	0	508	506	0	0	
14	0	0	0	0	508	508	0	0	
15	0	0	0	0	509	507	0	0	
0	0	0	0	0	509	507	0	0	
1	0	0	0	0	509	508	0	0	
2	0	0	0	0	508	507	0	0	
3	0	0	0	0	508	506	0	0	
4	0	0	0	0	508	509	0	0	
5	0	0	0	0	511	510	0	0	
6	0	0	0	0	510	510	0	0	
7	0	0	0	0	510	508	0	0	
8	0	0	0	0	512	512	0	0	
9	0	0	0	0	513	509	0	0	
10	0	0	0	0	513	509	0	0	
11	0	0	0	0	514	511	0	0	
12	0	0	0	0	514	508	0	0	
13	0	0	0	0	512	508	0	0	
14	0	0	0	0	513	508	0	0	
15	0	0	0	0	510	506	0	0	
0	0	0	0	0	508	509	0	0	
1	0	0	0	0	509	506	0	0	
2	0	0	0	0	508	507	0	0	
3	0	0	0	0	510	507	0	0	
4	0	0	0	0	509	507	0	0	
5	0	0	0	0	510	507	0	0	
6	0	0	0	0	510	509	0	0	
7	0	0	0	0	512	508	0	0	
8	0	0	0	0	511	508	0	0	
9	0	0	0	0	512	507	0	0	
10	0	0	0	0	512	511	0	0	
11	0	0	0	0	513	509	0	0	
12	0	0	0	0	513	509	0	0	
13	0	0	0	0	512	509	0	0	
14	0	0	0	0	512	508	0	0	
15	0	0	0	0	513	509	0	0	
0	0	0	0	0	514	509	0	0	
1	0	0	0	0	514	507	0	0	
2	0	0	0	0	510	507	0	0	
3	0	0	0	0	510	507	0	0	
4	0	0	0	0	507	506	0	0	
5	0	0	0	0	507	508	0	0	
6	0	0	0	0	511	508	0	0	
7	0	0	0	0	510	508	0	0	
8	0	0	0	0	508	507	0	0	
9	0	0	0	0	508	508	0	0	
10	0	0	0	0	511	508	0	0	
11	0	0	0	0	510	509	0	0	
12	0	0	0	0	511	508	0	0	
13	0	0	0	0	511	508	0	0	
14	0	0	0	0	514	511	0	0	
15	0	0	0	0	513	509	0	0	
0	0	0	0	0	513	511	0	0	
1	0	0	0	0	512	508	0	0	
2	0	0	0	0	512	509	0	0	
3	0	0	0	0	510	511	0	0	
4	0	0	0	0	513	510	0	0	
5	0	0	0	0	509	508	0	0	
6	0	0	0	0	509	506	0	0	
7	0	0	0	0	509	506	0	0	
8	0	0	0	0	510	508	0	0	
9	0	0	0	0	508	509	0	0	
10	0	0	0	0	509	505	0	0	
11	0	0	0	0	509	505	0	0	
12	0	0	0	0	509	506	0	0	
13	0	0	0	0	511	508	0	0	
14	0	0	0	0	512	508	0	0	
15	0	0	0	0	510	508	0	0	
0	0	0	0	0	512	508	0	0	
1	0	0	0	0	513	509	0	0	
2	0	0	0	0	514	510	0	0	
3	0	0	0	0	513	507	0	0	
4	0	0	0	0	515	510	0	0	
5	0	0	0	0	511	510	0	0	
6	0	0	0	0	515	508	0	0	
7	0	0	0	0	512	508	0	0	
8	0	0	0	0	512	507	0	0	
9	0	0	0	0	513	508	0	0	
10	0	0	0	0	512	508	0	0	
11	0	0	0	0	513	507	0	0	
12	0	0	0	0	511	507	0	0	
13	0	0	0	0	510	507	0	0	
14	0	0	0	0	509	507	0	0	
15	0	0	0	0	511	509	0	0	
0	0	0	0	0	508	507	0	0	
1	0	0	0	0	508	510	0	0	
2	0	0	0	0	510	511	0	0	
3	0	0	0	0	510	510	0	0	
4	0	0	0	0	515	510	0	0	
5	0	0	0	0	511	509	0	0	
6	0	0	0	0	512	512	0	0	
7	0	0	0	0	513	511	0	0	
8	0	0	0	0	513	511	0	0	
9	0	0	0	0	513	511	0	0	
10	0	0	0	0	512	508	0	0	
11	0	0	0	0	512	504	0	0	
12	0	0	0	0	514	506	0	0	
13	0	0	0	0	511	507	0	0	
14	0	0	0	0	511	506	0	0	
15	0	0	0	0	510	505	0	0	
0	0	0	0	0	508	507	0	0	
1	0	0	0	0	509	507	0	0	
2	0	0	0	0	507	507	0	0	
3	0	0	0	0	508	508	0	0	
4	0	0	0	0	507	508	0	0	
5	0	0	0	0	508	506	0	0	
6	0	0	0	0	508	508	0	0	
7	0	0	0	0	509	507	0	0	
8	0	0	0	0	512	509	0	0	
9	0	0	0	0	514	508	0	0	
10	0	0	0	0	516	509	0	0	
11	0	0	0	0	512	509	0	0	
12	0	0	0	0	513	508	0	0	
13	0	0	0	0	517	510	0	0	
14	0	0	0	0	515	507	0	0	
15	0	0	0	0	518	508	0	0	
0	0	0	0	0	516	507	0	0	
1	0	0	0	0	512	506	0	0	
2	0	0	0	0	511	507	0	0	
3	0	0	0	0	512	507	0	0	
4	0	0	0	0	512	506	0	0	
5	0	0	0	0	510	508	0	0	
6	0	0	0	0	509	508	0	0	
7	0	0	0	0	507	507	0	0	
8	0	0	0	0	509	507	0	0	
9	0	0	0	0	510	508	0	0	
10	0	0	0	0	509	509	0	0	
11	0	0	0	0	509	508	0	0	
12	0	0	0	0	509	508	0	0	
13	0	0	0	0	510	510	0	0	
14	0	0	0	0	513	510	0	0	
15	0	0	0	0	514	511	0	0	
0	0	0	0	0	512	509	0	0	
1	0	0	0	0	512	510	0	0	
2	0	0	0	0	512	510	0	0	
3	0	0	0	0	513	508	0	0	
4	0	0	0	0	514	510	0	0	
5	0	0	0	0	512	508	0	0	
6	0	0	0	0	507	509	0	0	
7	0	0	0	0	512	507	0	0	
8	0	0	0	0	508	507	0	0	
9	0	0	0	0	508	507	0	0	
10	0	0	0	0	508	507	0	0	
11	0	0	0	0	508	508	0	0	
12	0	0	0	0	507	507	0	0	
13	0	0	0	0	508	507	0	0	
14	0	0	0	0	507	506	0	0	
15	0	0	0	0	508	510	0	0	
0	0	0	0	0	508	509	0	0	
1	0	0	0	0	510	510	0	0	
2	0	0	0	0	512	510	0	0	
3	0	0	0	0	515	510	0	0	
4	0	0	0	0	515	509	0	0	
5	0	0	0	0	516	509	0	0	
6	0	0	0	0	515	508	0	0	
7	0	0	0	0	515	506	0	0	
8	0	0	0	0	515	505	0	0	
9	0	0	0	0	513	506	0	0	
10	0	0	0	0	513	508	0	0	
11	0	0	0	0	512	509	0	0	
12	0	0	0	0	511	506	0	0	
13	0	0	0	0	512	507	0	0	
14	0	0	0	0	511	507	0	0	
15	0	0	0	0	511	505	0	0	
0	0	0	0	0	508	506	0	0	
1	0	0	0	0	510	506	0	0	
2	0	0	0	0	512	508	0	0	
3	0	0	0	0	509	508	0	0	
4	0	0	0	0	510	508	0	0	
5	0	0	0	0	509	511	0	0	
6	0	0	0	0	512	510	0	0	
7	0	0	0	0	513	511	0	0	
8	0	0	0	0	511	508	0	0	
9	0	0	0	0	512	509	0	0	
10	0	0	0	0	510	508	0	0	
11	0	0	0	0	513	506	0	0	
12	0	0	0	0	512	507	0	0	
13	0	0	0	0	509	508	0	0	
14	0	0	0	0	510	505	0	0	
15	0	0	0	0	509	506	0	0	
0	0	0	0	0	505	505	0	0	
1	0	0	0	0	505	506	0	0	
2	0	0	0	0	507	507	0	0	
3	0	0	0	0	507	506	0	0	
4	0	0	0	0	508	506	0	0	
5	0	0	0	0	509	509	0	0	
6	0	0	0	0	511	508	0	0	
7	0	0	0	0	510	510	0	0	
8	0	0	0	0	511	508	0	0	
9	0	0	0	0	512	510	0	0	
10	0	0	0	0	512	511	0	0	
11	0	0	0	0	514	509	0	0	
12	0	0	0	0	515	509	0	0	
13	0	0	0	0	515	511	0	0	
14	0	0	0	0	515	510	0	0	
15	0	0	0	0	511	507	0	0	
0	0	0	0	0	514	508	0	0	
1	0	0	0	0	511	508	0	0	
2	0	0	0	0	510	507	0	0	
3	0	0	0	0	510	507	0	0	
4	0	0	0	0	511	508	0	0	
5	0	0	0	0	509	507	0	0	
6	0	0	0	0	507	508	0	0	
7	0	0	0	0	508	506	0	0	
8	0	0	0	0	509	509	0	0	
9	0	0	0	0	510	508	0	0	
10	0	0	0	0	511	508	0	0	
11	0	0	0	0	514	507	0	0	
12	0	0	0	0	516	508	0	0	
13	0	0	0	0	514	508	0	0	
14	0	0	0	0	516	507	0	0	
15	0	0	0	0	514	510	0	0	
0	0	0	0	0	512	508	0	0	
1	0	0	0	0	517	510	0	0	
2	0	0	0	0	513	511	0	0	
3	0	0	0	0	512	507	0	0	
4	0	0	0	0	514	508	0	0	
5	0	0	0	0	513	508	0	0	
6	0	0	0	0	510	507	0	0	
7	0	0	0	0	510	506	0	0	
8	0	0	0	0	508	507	0	0	
9	0	0	0	0	508	507	0	0	
10	0	0	0	0	510	505	0	0	
11	0	0	0	0	509	506	0	0	
12	0	0	0	0	510	507	0	0	
13	0	0	0	0	512	507	0	0	
14	0	0	0	0	506	510	0	0	
15	0	0	0	0	510	510	0	0	
0	0	0	0	0	510	508	0	0	
1	0	0	0	0	512	511	0	0	
2	0	0	0	0	513	509	0	0	
3	0	0	0	0	509	511	0	0	
4	0	0	0	0	511	509	0	0	
5	0	0	0	0	512	509	0	0	
6	0	0	0	0	511	509	0	0	
7	0	0	0	0	510	508	0	0	
8	0	0	0	0	513	509	0	0	
9	0	0	0	0	511	505	0	0	
10	0	0	0	0	511	507	0	0	
11	0	0	0	0	509	504	0	0	
12	0	0	0	0	507	507	0	0	
13	0	0	0	0	508	508	0	0	
14	0	0	0	0	508	508	0	0	
15	0	0	0	0	508	507	0	0	
0	0	0	0	0	508	505	0	0	
1	0	0	0	0	510	508	0	0	
2	0	0	0	0	511	508	0	0	
3	0	0	0	0	509	506	0	0	
4	0	0	0	0	511	506	0	0	
5	0	0	0	0	511	506	0	0	
6	0	0	0	0	512	507	0	0	
7	0	0	0	0	514	509	0	0	
8	0	0	0	0	514	508	0	0	
9	0	0	0	0	515	506	0	0	
10	0	0	0	0	513	510	0	0	
11	0	0	0	0	516	508	0	0	
12	0	0	0	0	511	509	0	0	
13	0	0	0	0	509	507	0	0	
14	0	0	0	0	511	509	0	0	
15	0	0	0	0	509	507	0	0	
0	0	0	0	0	508	507	0	0	
1	0	0	0	0	508	510	0	0	
2	0	0	0	0	504	507	0	0	
3	0	0	0	0	508	505	0	0	
4	0	0	0	0	508	507	0	0	
5	0	0	0	0	508	509	0	0	
6	0	0	0	0	509	508	0	0	
7	0	0	0	0	510	511	0	0	
8	0	0	0	0	511	508	0	0	
9	0	0	0	0	511	509	0	0	
10	0	0	0	0	512	509	0	0	
11	0	0	0	0	513	510	0	0	
12	0	0	0	0	514	508	0	0	
13	0	0	0	0	513	508	0	0	
14	0	0	0	0	515	508	0	0	
15	0	0	0	0	512	510	0	0	
0	0	0	0	0	514	512	0	0	
1	0	0	0	0	512	508	0	0	
2	0	0	0	0	513	508	0	0	
3	0	0	0	0	509	508	0	0	
4	0	0	0	0	509	508	0	0	
5	0	0	0	0	510	505	0	0	
6	0	0	0	0	508	506	0	0	
7	0	0	0	0	510	507	0	0	
8	0	0	0	0	512	507	0	0	
9	0	0	0	0	509	508	0	0	
10	0	0	0	0	510	508	0	0	
11	0	0	0	0	511	506	0	0	
12	0	0	0	0	513	508	0	0	
13	0	0	0	0	512	510	0	0	
14	0	0	0	0	514	508	0	0	
15	0	0	0	0	513	509	0	0	
0	0	0	0	0	512	511	0	0	
1	0	0	0	0	510	509	0	0	
2	0	0	0	0	512	509	0	0	
3	0	0	0	0	513	509	0	0	
4	0	0	0	0	512	508	0	0	
5	0	0	0	0	510	507	0	0	
6	0	0	0	0	511	506	0	0	
7	0	0	0	0	508	507	0	0	
8	0	0	0	0	508	506	0	0	
9	0	0	0	0	508	507	0	0	
10	0	0	0	0	507	505	0	0	
11	0	0	0	0	508	507	0	0	
12	0	0	0	0	509	508	0	0	
13	0	0	0	0	510	508	0	0	
14	0	0	0	0	511	506	0	0	
15	0	0	0	0	512	510	0	0	
0	0	0	0	0	514	510	0	0	
1	0	0	0	0	512	510	0	0	
2	0	0	0	0	513	508	0	0	
3	0	0	0	0	513	511	0	0	
4	0	0	0	0	513	509	0	0	
5	0	0	0	0	512	509	0	0	
6	0	0	0	0	511	511	0	0	
7	0	0	0	0	513	508	0	0	
8	0	0	0	0	514	509	0	0	
9	0	0	0	0	511	503	0	0	
10	0	0	0	0	510	505	0	0	
11	0	0	0	0	509	505	0	0	
12	0	0	0	0	505	506	0	0	
13	0	0	0	0	509	505	0	0	
14	0	0	0	0	508	504	0	0	
15	0	0	0	0	507	506	0	0	
0	0	0	0	0	509	506	0	0	
1	0	0	0	0	508	506	0	0	
2	0	0	0	0	508	508	0	0	
3	0	0	0	0	509	510	0	0	
4	0	0	0	0	509	507	0	0	
5	0	0	0	0	509	509	0	0	
6	0	0	0	0	512	508	0	0	
7	0	0	0	0	512	510	0	0	
8	0	0	0	0	512	510	0	0	
9	0	0	0	0	512	509	0	0	
10	0	0	0	0	512	511	0	0	
11	0	0	0	0	513	509	0	0	
12	0	0	0	0	515	507	0	0	
13	0	0	0	0	512	508	0	0	
14	0	0	0	0	514	507	0	0	
15	0	0	0	0	511	507	0	0	
0	0	0	0	0	511	508	0	0	
1	0	0	0	0	511	505	0	0	
2	0	0	0	0	510	507	0	0	
3	0	0	0	0	511	508	0	0	
4	0	0	0	0	511	508	0	0	
5	0	0	0	0	511	508	0	0	
6	0	0	0	0	511	508	0	0	
7	0	0	0	0	511	508	0	0	
8	0	0	0	0	512	508	0	0	
9	0	0	0	0	513	509	0	0	
10	0	0	0	0	513	508	0	0	
11	0	0	0	0	517	508	0	0	
12	0	0	0	0	513	510	0	0	
13	0	0	0	0	510	511	0	0	
14	0	0	0	0	510	510	0	0	
15	0	0	0	0	510	509	0	0	
0	0	0	0	0	510	510	0	0	
1	0	0	0	0	511	510	0	0	
2	0	0	0	0	511	508	0	0	
3	0	0	0	0	511	508	0	0	
4	0	0	0	0	511	508	0	0	
5	0	0	0	0	512	508	0	0	
6	0	0	0	0	510	506	0	0	
7	0	0	0	0	511	506	0	0	
8	0	0	0	0	509	508	0	0	
9	0	0	0	0	509	507	0	0	
10	0	0	0	0	507	508	0	0	
11	0	0	0	0	509	508	0	0	
12	0	0	0	0	509	508	0	0	
13	0	0	0	0	513	510	0	0	
14	0	0	0	0	514	513	0	0	
15	0	0	0	0	514	512	0	0	
0	0	0	0	0	512	510	0	0	
1	0	0	0	0	512	510	0	0	
2	0	0	0	0	513	508	0	0	
3	0	0	0	0	511	511	0	0	
4	0	0	0	0	510	509	0	0	
5	0	0	0	0	509	508	0	0	
6	0	0	0	0	511	508	0	0	
7	0	0	0	0	510	507	0	0	
8	0	0	0	0	508	505	0	0	
9	0	0	0	0	508	507	0	0	
10	0	0	0	0	507	504	0	0	
11	0	0	0	0	511	508	0	0	
12	0	0	0	0	510	507	0	0	
13	0	0	0	0	507	506	0	0	
14	0	0	0	0	507	509	0	0	
15	0	0	0	0	510	508	0	0	
0	0	0	0	0	510	509	0	0	
1	0	0	0	0	510	506	0	0	
2	0	0	0	0	513	507	0	0	
3	0	0	0	0	513	508	0	0	
4	0	0	0	0	514	511	0	0	
5	0	0	0	0	513	511	0	0	
6	0	0	0	0	513	510	0	0	
7	0	0	0	0	510	512	0	0	
8	0	0	0	0	513	510	0	0	
9	0	0	0	0	515	509	0	0	
10	0	0	0	0	512	508	0	0	
11	0	0	0	0	509	506	0	0	
12	0	0	0	0	511	504	0	0	
13	0	0	0	0	509	505	0	0	
14	0	0	0	0	508	505	0	0	
15	0	0	0	0	509	505	0	0	
0	0	0	0	0	510	509	0	0	
1	0	0	0	0	510	509	0	0	
2	0	0	0	0	511	510	0	0	
3	0	0	0	0	513	509	0	0	
4	0	0	0	0	511	509	0	0	
5	0	0	0	0	513	508	0	0	
6	0	0	0	0	513	510	0	0	
7	0	0	0	0	515	510	0	0	
8	0	0	0	0	514	508	0	0	
9	0	0	0	0	514	507	0	0	
10	0	0	0	0	513	507	0	0	
11	0	0	0	0	515	507	0	0	
12	0	0	0	0	515	507	0	0	
13	0	0	0	0	513	507	0	0	
14	0	0	0	0	512	508	0	0	
15	0	0	0	0	510	510	0	0	
0	0	0	0	0	512	504	0	0	
1	0	0	0	0	511	506	0	0	
2	0	0	0	0	508	506	0	0	
3	0	0	0	0	508	506	0	0	
4	0	0	0	0	508	505	0	0	
5	0	0	0	0	509	506	0	0	
6	0	0	0	0	509	508	0	0	
7	0	0	0	0	510	507	0	0	
8	0	0	0	0	509	510	0	0	
9	0	0	0	0	509	510	0	0	
10	0	0	0	0	511	508	0	0	
11	0	0	0	0	511	511	0	0	
12	0	0	0	0	513	508	0	0	
13	0	0	0	0	511	510	0	0	
14	0	0	0	0	513	512	0	0	
15	0	0	0	0	512	511	0	0	
0	0	0	0	0	513	508	0	0	
1	0	0	0	0	512	509	0	0	
2	0	0	0	0	512	506	0	0	
3	0	0	0	0	511	507	0	0	
4	0	0	0	0	511	507	0	0	
5	0	0	0	0	509	507	0	0	
6	0	0	0	0	509	506	0	0	
7	0	0	0	0	511	507	0	0	
8	0	0	0	0	511	506	0	0	
9	0	0	0	0	508	504	0	0	
10	0	0	0	0	509	507	0	0	
11	0	0	0	0	509	507	0	0	
12	0	0	0	0	512	507	0	0	
13	0	0	0	0	512	508	0	0	
14	0	0	0	0	513	509	0	0	
15	0	0	0	0	514	513	0	0	
0	0	0	0	0	514	511	0	0	
1	0	0	0	0	513	511	0	0	
2	0	0	0	0	514	510	0	0	
3	0	0	0	0	513	509	0	0	
4	0	0	0	0	511	509	0	0	
5	0	0	0	0	513	508	0	0	
6	0	0	0	0	511	507	0	0	
7	0	0	0	0	510	507	0	0	
8	0	0	0	0	508	506	0	0	
9	0	0	0	0	507	507	0	0	
10	0	0	0	0	507	508	0	0	
11	0	0	0	0	509	508	0	0	
12	0	0	0	0	511	508	0	0	
13	0	0	0	0	512	507	0	0	
14	0	0	0	0	512	507	0	0	
15	0	0	0	0	512	507	0	0	
0	0	0	0	0	512	508	0	0	
1	0	0	0	0	511	509	0	0	
2	0	0	0	0	514	507	0	0	
3	0	0	0	0	514	505	0	0	
4	0	0	0	0	514	508	0	0	
5	0	0	0	0	515	508	0	0	
6	0	0	0	0	512	509	0	0	
7	0	0	0	0	511	507	0	0	
8	0	0	0	0	514	508	0	0	
9	0	0	0	0	511	507	0	0	
10	0	0	0	0	513	509	0	0	
11	0	0	0	0	511	510	0	0	
12	0	0	0	0	509	510	0	0	
13	0	0	0	0	508	509	0	0	
14	0	0	0	0	509	507	0	0	
15	0	0	0	0	507	508	0	0	
0	0	0	0	0	509	508	0	0	
1	0	0	0	0	510	506	0	0	
2	0	0	0	0	511	507	0	0	
3	0	0	0	0	510	507	0	0	
4	0	0	0	0	512	508	0	0	
5	0	0	0	0	514	507	0	0	
6	0	0	0	0	511	506	0	0	
7	0	0	0	0	513	508	0	0	
8	0	0	0	0	514	508	0	0	
9	0	0	0	0	512	507	0	0	
10	0	0	0	0	515	507	0	0	
11	0	0	0	0	511	508	0	0	
12	0	0	0	0	511	507	0	0	
13	0	0	0	0	511	507	0	0	
14	0	0	0	0	511	508	0	0	
15	0	0	0	0	508	507	0	0	
0	0	0	0	0	509	506	0	0	
1	0	0	0	0	510	507	0	0	
2	0	0	0	0	508	506	0	0	
3	0	0	0	0	508	508	0	0	
4	0	0	0	0	511	507	0	0	
5	0	0	0	0	512	508	0	0	
6	0	0	0	0	514	508	0	0	
7	0	0	0	0	515	508	0	0	
8	0	0	0	0	516	508	0	0	
9	0	0	0	0	513	508	0	0	
10	0	0	0	0	510	508	0	0	
11	0	0	0	0	509	509	0	0	
12	0	0	0	0	503	510	0	0	
13	0	0	0	0	504	512	0	0	
14	0	0	0	0	504	509	0	0	
15	0	0	0	0	508	511	0	0	
0	0	0	0	0	511	508	0	0	
1	0	0	0	0	512	509	0	0	
2	0	0	0	0	513	509	0	0	
3	0	0	0	0	514	509	0	0	
4	0	0	0	0	512	505	0	0	
5	0	0	0	0	512	508	0	0	
6	0	0	0	0	511	507	0	0	
7	0	0	0	0	510	506	0	0	
8	0	0	0	0	509	506	0	0	
9	0	0	0	0	511	504	0	0	
10	0	0	0	0	512	508	0	0	
11	0	0	0	0	513	508	0	0	
12	0	0	0	0	512	511	0	0	
13	0	0	0	0	512	508	0	0	
14	0	0	0	0	513	510	0	0	
15	0	0	0	0	512	511	0	0	
0	0	0	0	0	511	508	0	0	
1	0	0	0	0	514	509	0	0	
2	0	0	0	0	511	507	0	0	
3	0	0	0	0	515	509	0	0	
4	0	0	0	0	513	506	0	0	
5	0	0	0	0	513	505	0	0	
6	0	0	0	0	514	508	0	0	
7	0	0	0	0	511	506	0	0	
8	0	0	0	0	511	505	0	0	
9	0	0	0	0	509	505	0	0	
10	0	0	0	0	509	505	0	0	
11	0	0	0	0	508	507	0	0	
12	0	0	0	0	508	507	0	0	
13	0	0	0	0	509	505	0	0	
14	0	0	0	0	509	506	0	0	
15	0	0	0	0	510	508	0	0	
0	0	0	0	0	511	511	0	0	
1	0	0	0	0	512	510	0	0	
2	0	0	0	0	512	508	0	0	
3	0	0	0	0	512	510	0	0	
4	0	0	0	0	511	509	0	0	
5	0	0	0	0	512	509	0	0	
6	0	0	0	0	513	508	0	0	
7	0	0	0	0	511	510	0	0	
8	0	0	0	0	514	509	0	0	
9	0	0	0	0	513	508	0	0	
10	0	0	0	0	514	507	0	0	
11	0	0	0	0	514	507	0	0	
12	0	0	0	0	512	506	0	0	
13	0	0	0	0	511	503	0	0	
14	0	0	0	0	506	508	0	0	
15	0	0	0	0	508	508	0	0	
0	0	0	0	0	504	507	0	0	
1	0	0	0	0	501	509	0	0	
2	0	0	0	0	504	508	0	0	
3	0	0	0	0	511	507	0	0	
4	0	0	0	0	512	509	0	0	
5	0	0	0	0	516	510	0	0	
6	0	0	0	0	515	509	0	0	
7	0	0	0	0	515	510	0	0	
8	0	0	0	0	514	511	0	0	
9	0	0	0	0	515	510	0	0	
10	0	0	0	0	515	511	0	0	
11	0	0	0	0	515	510	0	0	
12	0	0	0	0	515	508	0	0	
13	0	0	0	0	512	507	0	0	
14	0	0	0	0	512	505	0	0	
15	0	0	0	0	511	508	0	0	
0	0	0	0	0	510	507	0	0	
1	0	0	0	0	508	506	0	0	
2	0	0	0	0	511	506	0	0	
3	0	0	0	0	512	508	0	0	
4	0	0	0	0	511	508	0	0	
5	0	0	0	0	513	507	0	0	
6	0	0	0	0	511	508	0	0	
7	0	0	0	0	512	507	0	0	
8	0	0	0	0	513	507	0	0	
9	0	0	0	0	513	509	0	0	
10	0	0	0	0	513	510	0	0	
11	0	0	0	0	514	509	0	0	
12	0	0	0	0	512	508	0	0	
13	0	0	0	0	511	507	0	0	
14	0	0	0	0	512	508	0	0	
15	0	0	0	0	512	506	0	0	
0	0	0	0	0	513	508	0	0	
1	0	0	0	0	511	506	0	0	
2	0	0	0	0	509	507	0	0	
3	0	0	0	0	508	508	0	0	
4	0	0	0	0	508	506	0	0	
5	0	0	0	0	508	508	0	0	
6	0	0	0	0	507	508	0	0	
7	0	0	0	0	507	507	0	0	
8	0	0	0	0	506	506	0	0	
9	0	0	0	0	506	509	0	0	
10	0	0	0	0	510	508	0	0	
11	0	0	0	0	508	508	0	0	
12	0	0	0	0	509	507	0	0	
13	0	0	0	0	510	510	0	0	
14	0	0	0	0	511	509	0	0	
15	0	0	0	0	511	510	0	0	
0	0	0	0	0	512	511	0	0	
1	0	0	0	0	514	509	0	0	
2	0	0	0	0	512	507	0	0	
3	0	0	0	0	513	508	0	0	
4	0	0	0	0	512	508	0	0	
5	0	0	0	0	513	509	0	0	
6	0	0	0	0	511	511	0	0	
7	0	0	0	0	508	509	0	0	
8	0	0	0	0	509	507	0	0	
9	0	0	0	0	508	508	0	0	
10	0	0	0	0	510	506	0	0	
11	0	0	0	0	510	504	0	0	
12	0	0	0	0	511	506	0	0	
13	0	0	0	0	511	505	0	0	
14	0	0	0	0	509	507	0	0	
15	0	0	0	0	512	508	0	0	
0	0	0	0	0	512	507	0	0	
1	0	0	0	0	513	508	0	0	
2	0	0	0	0	513	510	0	0	
3	0	0	0	0	516	508	0	0	
4	0	0	0	0	512	507	0	0	
5	0	0	0	0	514	508	0	0	
6	0	0	0	0	513	510	0	0	
7	0	0	0	0	513	508	0	0	
8	0	0	0	0	513	509	0	0	
9	0	0	0	0	513	508	0	0	
10	0	0	0	0	512	507	0	0	
11	0	0	0	0	511	504	0	0	
12	0	0	0	0	508	508	0	0	
13	0	0	0	0	510	507	0	0	
14	0	0	0	0	509	507	0	0	
15	0	0	0	0	508	510	0	0	
0	0	0	0	0	508	508	0	0	
1	0	0	0	0	511	507	0	0	
2	0	0	0	0	510	505	0	0	
3	0	0	0	0	511	506	0	0	
4	0	0	0	0	512	508	0	0	
5	0	0	0	0	512	509	0	0	
6	0	0	0	0	517	509	0	0	
7	0	0	0	0	516	509	0	0	
8	0	0	0	0	513	510	0	0	
9	0	0	0	0	514	508	0	0	
10	0	0	0	0	512	510	0	0	
11	0	0	0	0	513	510	0	0	
12	0	0	0	0	512	510	0	0	
13	0	0	0	0	513	509	0	0	
14	0	0	0	0	511	509	0	0	
15	0	0	0	0	510	508	0	0	
0	0	0	0	0	509	506	0	0	
1	0	0	0	0	507	508	0	0	
2	0	0	0	0	506	505	0	0	
3	0	0	0	0	508	504	0	0	
4	0	0	0	0	508	507	0	0	
5	0	0	0	0	507	507	0	0	
6	0	0	0	0	510	506	0	0	
7	0	0	0	0	511	506	0	0	
8	0	0	0	0	511	509	0	0	
9	0	0	0	0	513	511	0	0	
10	0	0	0	0	513	510	0	0	
11	0	0	0	0	512	510	0	0	
12	0	0	0	0	512	510	0	0	
13	0	0	0	0	513	511	0	0	
14	0	0	0	0	509	510	0	0	
15	0	0	0	0	511	507	0	0	
0	0	0	0	0	513	508	0	0	
1	0	0	0	0	513	508	0	0	
2	0	0	0	0	510	509	0	0	
3	0	0	0	0	510	507	0	0	
4	0	0	0	0	506	506	0	0	
5	0	0	0	0	510	508	0	0	
6	0	0	0	0	509	508	0	0	
7	0	0	0	0	508	507	0	0	
8	0	0	0	0	511	510	0	0	
9	0	0	0	0	510	507	0	0	
10	0	0	0	0	511	509	0	0	
11	0	0	0	0	510	509	0	0	
12	0	0	0	0	510	510	0	0	
13	0	0	0	0	511	509	0	0	
14	0	0	0	0	513	510	0	0	
15	0	0	0	0	515	508	0	0	
0	0	0	0	0	513	508	0	0	
1	0	0	0	0	513	507	0	0	
2	0	0	0	0	512	507	0	0	
3	0	0	0	0	511	509	0	0	
4	0	0	0	0	510	508	0	0	
5	0	0	0	0	512	506	0	0	
6	0	0	0	0	509	508	0	0	
7	0	0	0	0	510	507	0	0	
8	0	0	0	0	508	507	0	0	
9	0	0	0	0	507	506	0	0	
10	0	0	0	0	506	504	0	0	
11	0	0	0	0	509	506	0	0	
12	0	0	0	0	509	507	0	0	
13	0	0	0	0	508	508	0	0	
14	0	0	0	0	511	508	0	0	
15	0	0	0	0	509	509	0	0	
0	0	0	0	0	511	509	0	0	
1	0	0	0	0	511	509	0	0	
2	0	0	0	0	513	507	0	0	
3	0	0	0	0	513	508	0	0	
4	0	0	0	0	513	510	0	0	
5	0	0	0	0	513	509	0	0	
6	0	0	0	0	512	508	0	0	
7	0	0	0	0	512	510	0	0	
8	0	0	0	0	512	511	0	0	
9	0	0	0	0	512	508	0	0	
10	0	0	0	0	510	509	0	0	
11	0	0	0	0	509	508	0	0	
12	0	0	0	0	512	508	0	0	
13	0	0	0	0	509	508	0	0	
14	0	0	0	0	508	507	0	0	
15	0	0	0	0	509	508	0	0	
0	0	0	0	0	508	506	0	0	
1	0	0	0	0	508	509	0	0	
2	0	0	0	0	509	509	0	0	
3	0	0	0	0	509	508	0	0	
4	0	0	0	0	511	508	0	0	
5	0	0	0	0	511	509	0	0	
6	0	0	0	0	512	509	0	0	
7	0	0	0	0	513	509	0	0	
8	0	0	0	0	514	509	0	0	
9	0	0	0	0	513	510	0	0	
10	0	0	0	0	515	509	0	0	
11	0	0	0	0	514	509	0	0	
12	0	0	0	0	515	508	0	0	
13	0	0	0	0	515	507	0	0	
14	0	0	0	0	513	506	0	0	
15	0	0	0	0	511	509	0	0	
0	0	0	0	0	512	508	0	0	
1	0	0	0	0	510	508	0	0	
2	0	0	0	0	512	505	0	0	
3	0	0	0	0	514	506	0	0	
4	0	0	0	0	511	509	0	0	
5	0	0	0	0	509	508	0	0	
6	0	0	0	0	508	505	0	0	
7	0	0	0	0	505	507	0	0	
8	0	0	0	0	504	507	0	0	
9	0	0	0	0	509	508	0	0	
10	0	0	0	0	512	509	0	0	
11	0	0	0	0	514	508	0	0	
12	0	0	0	0	514	509	0	0	
13	0	0	0	0	516	510	0	0	
14	0	0	0	0	515	509	0	0	
15	0	0	0	0	513	508	0	0	
0	0	0	0	0	513	509	0	0	
1	0	0	0	0	512	510	0	0	
2	0	0	0	0	511	510	0	0	
3	0	0	0	0	509	510	0	0	
4	0	0	0	0	507	507	0	0	
5	0	0	0	0	507	506	0	0	
6	0	0	0	0	509	507	0	0	
7	0	0	0	0	508	507	0	0	
8	0	0	0	0	508	505	0	0	
9	0	0	0	0	510	507	0	0	
10	0	0	0	0	511	506	0	0	
11	0	0	0	0	511	508	0	0	
12	0	0	0	0	511	508	0	0	
13	0	0	0	0	512	506	0	0	
14	0	0	0	0	515	511	0	0	
15	0	0	0	0	515	508	0	0	
0	0	0	0	0	513	509	0	0	
1	0	0	0	0	510	510	0	0	
2	0	0	0	0	511	508	0	0	
3	0	0	0	0	508	508	0	0	
4	0	0	0	0	507	510	0	0	
5	0	0	0	0	507	508	0	0	
6	0	0	0	0	510	508	0	0	
7	0	0	0	0	510	508	0	0	
8	0	0	0	0	512	507	0	0	
9	0	0	0	0	513	507	0	0	
10	0	0	0	0	511	505	0	0	
11	0	0	0	0	511	505	0	0	
12	0	0	0	0	511	507	0	0	
13	0	0	0	0	510	508	0	0	
14	0	0	0	0	510	508	0	0	
15	0	0	0	0	510	508	0	0	
0	0	0	0	0	510	509	0	0	
1	0	0	0	0	510	508	0	0	
2	0	0	0	0	512	508	0	0	
3	0	0	0	0	515	509	0	0	
4	0	0	0	0	516	509	0	0	
5	0	0	0	0	514	510	0	0	
6	0	0	0	0	514	509	0	0	
7	0	0	0	0	517	509	0	0	
8	0	0	0	0	516	511	0	0	
9	0	0	0	0	516	508	0	0	
10	0	0	0	0	515	507	0	0	
11	0	0	0	0	511	508	0	0	
12	0	0	0	0	513	508	0	0	
13	0	0	0	0	513	509	0	0	
14	0	0	0	0	511	507	0	0	
15	0	0	0	0	512	505	0	0	
0	0	0	0	0	511	507	0	0	
1	0	0	0	0	511	506	0	0	
2	0	0	0	0	511	507	0	0	
3	0	0	0	0	510	508	0	0	
4	0	0	0	0	511	509	0	0	
5	0	0	0	0	509	508	0	0	
6	0	0	0	0	505	507	0	0	
7	0	0	0	0	501	508	0	0	
8	0	0	0	0	506	510	0	0	
9	0	0	0	0	513	508	0	0	
10	0	0	0	0	516	508	0	0	
11	0	0	0	0	515	509	0	0	
12	0	0	0	0	516	509	0	0	
13	0	0	0	0	513	506	0	0	
14	0	0	0	0	512	508	0	0	
15	0	0	0	0	510	507	0	0	
0	0	0	0	0	511	507	0	0	
1	0	0	0	0	510	506	0	0	
2	0	0	0	0	508	506	0	0	
3	0	0	0	0	508	505	0	0	
4	0	0	0	0	510	505	0	0	
5	0	0	0	0	511	508	0	0	
6	0	0	0	0	509	510	0	0	
7	0	0	0	0	512	508	0	0	
8	0	0	0	0	511	508	0	0	
9	0	0	0	0	512	508	0	0	
10	0	0	0	0	515	510	0	0	
11	0	0	0	0	513	509	0	0	
12	0	0	0	0	512	509	0	0	
13	0	0	0	0	511	509	0	0	
14	0	0	0	0	511	507	0	0	
15	0	0	0	0	513	508	0	0	
0	0	0	0	0	512	507	0	0	
1	0	0	0	0	513	508	0	0	
2	0	0	0	0	512	507	0	0	
3	0	0	0	0	512	506	0	0	
4	0	0	0	0	511	505	0	0	
5	0	0	0	0	512	505	0	0	
6	0	0	0	0	510	506	0	0	
7	0	0	0	0	508	510	0	0	
8	0	0	0	0	510	505	0	0	
9	0	0	0	0	510	507	0	0	
10	0	0	0	0	511	508	0	0	
11	0	0	0	0	509	508	0	0	
12	0	0	0	0	510	509	0	0	
13	0	0	0	0	513	510	0	0	
14	0	0	0	0	511	509	0	0	
15	0	0	0	0	512	510	0	0	
0	0	0	0	0	511	511	0	0	
1	0	0	0	0	511	510	0	0	
2	0	0	0	0	513	510	0	0	
3	0	0	0	0	511	510	0	0	
4	0	0	0	0	511	510	0	0	
5	0	0	0	0	511	507	0	0	
6	0	0	0	0	507	508	0	0	
7	0	0	0	0	508	508	0	0	
8	0	0	0	0	508	509	0	0	
9	0	0	0	0	504	509	0	0	
10	0	0	0	0	506	507	0	0	
11	0	0	0	0	507	505	0	0	
12	0	0	0	0	509	506	0	0	
13	0	0	0	0	510	508	0	0	
14	0	0	0	0	512	505	0	0	
15	0	0	0	0	512	507	0	0	
0	0	0	0	0	511	507	0	0	
1	0	0	0	0	511	509	0	0	
2	0	0	0	0	512	508	0	0	
3	0	0	0	0	512	509	0	0	
4	0	0	0	0	515	510	0	0	
5	0	0	0	0	514	511	0	0	
6	0	0	0	0	512	509	0	0	
7	0	0	0	0	512	508	0	0	
8	0	0	0	0	512	509	0	0	
9	0	0	0	0	512	507	0	0	
10	0	0	0	0	511	509	0	0	
11	0	0	0	0	512	507	0	0	
12	0	0	0	0	512	506	0	0	
13	0	0	0	0	509	506	0	0	
14	0	0	0	0	509	506	0	0	
15	0	0	0	0	510	507	0	0	
0	0	0	0	0	509	507	0	0	
1	0	0	0	0	509	508	0	0	
2	0	0	0	0	510	507	0	0	
3	0	0	0	0	510	508	0	0	
4	0	0	0	0	511	510	0	0	
5	0	0	0	0	511	511	0	0	
6	0	0	0	0	512	511	0	0	
7	0	0	0	0	511	508	0	0	
8	0	0	0	0	513	508	0	0	
9	0	0	0	0	511	509	0	0	
10	0	0	0	0	511	508	0	0	
11	0	0	0	0	514	510	0	0	
12	0	0	0	0	511	511	0	0	
13	0	0	0	0	511	507	0	0	
14	0	0	0	0	510	507	0	0	
15	0	0	0	0	510	504	0	0	
0	0	0	0	0	508	506	0	0	
1	0	0	0	0	508	507	0	0	
2	0	0	0	0	508	506	0	0	
3	0	0	0	0	508	507	0	0	
4	0	0	0	0	511	506	0	0	
5	0	0	0	0	511	505	0	0	
6	0	0	0	0	512	508	0	0	
7	0	0	0	0	512	508	0	0	
8	0	0	0	0	513	506	0	0	
9	0	0	0	0	511	508	0	0	
10	0	0	0	0	504	508	0	0	
11	0	0	0	0	505	510	0	0	
12	0	0	0	0	512	509	0	0	
13	0	0	0	0	515	509	0	0	
14	0	0	0	0	515	510	0	0	
15	0	0	0	0	513	509	0	0	
0	0	0	0	0	510	508	0	0	
1	0	0	0	0	511	508	0	0	
2	0	0	0	0	510	508	0	0	
3	0	0	0	0	512	507	0	0	
4	0	0	0	0	512	509	0	0	
5	0	0	0	0	508	507	0	0	
6	0	0	0	0	510	505	0	0	
7	0	0	0	0	513	507	0	0	
8	0	0	0	0	512	507	0	0	
9	0	0	0	0	511	508	0	0	
10	0	0	0	0	510	507	0	0	
11	0	0	0	0	509	509	0	0	
12	0	0	0	0	510	508	0	0	
13	0	0	0	0	511	507	0	0	
14	0	0	0	0	513	510	0	0	
15	0	0	0	0	514	510	0	0	
0	0	0	0	0	511	508	0	0	
1	0	0	0	0	513	509	0	0	
2	0	0	0	0	513	511	0	0	
3	0	0	0	0	514	508	0	0	
4	0	0	0	0	515	508	0	0	
5	0	0	0	0	513	506	0	0	
6	0	0	0	0	512	507	0	0	
7	0	0	0	0	512	506	0	0	
8	0	0	0	0	511	507	0	0	
9	0	0	0	0	510	508	0	0	
10	0	0	0	0	512	509	0	0	
11	0	0	0	0	510	509	0	0	
12	0	0	0	0	510	507	0	0	
13	0	0	0	0	509	507	0	0	
14	0	0	0	0	509	509	0	0	
15	0	0	0	0	504	507	0	0	
0	0	0	0	0	509	507	0	0	
1	0	0	0	0	511	510	0	0	
2	0	0	0	0	511	509	0	0	
3	0	0	0	0	512	511	0	0	
4	0	0	0	0	515	509	0	0	
5	0	0	0	0	513	508	0	0	
6	0	0	0	0	516	511	0	0	
7	0	0	0	0	515	509	0	0	
8	0	0	0	0	512	508	0	0	
9	0	0	0	0	511	508	0	0	
10	0	0	0	0	512	507	0	0	
11	0	0	0	0	508	504	0	0	
12	0	0	0	0	509	505	0	0	
13	0	0	0	0	509	504	0	0	
14	0	0	0	0	508	507	0	0	
15	0	0	0	0	507	505	0	0	
0	0	0	0	0	508	507	0	0	
1	0	0	0	0	509	508	0	0	
2	0	0	0	0	512	509	0	0	
3	0	0	0	0	513	507	0	0	
4	0	0	0	0	512	506	0	0	
5	0	0	0	0	511	508	0	0	
6	0	0	0	0	508	509	0	0	
7	0	0	0	0	504	512	0	0	
8	0	0	0	0	507	510	0	0	
9	0	0	0	0	512	511	0	0	
10	0	0	0	0	511	508	0	0	
11	0	0	0	0	511	509	1	0	
12	0	0	0	0	509	507	1	0	
13	0	0	0	0	510	507	0	0	
14	0	0	0	0	510	507	0	0	
15	0	0	0	0	511	507	0	0	
0	0	0	0	0	513	506	1	0	
1	0	0	0	0	510	505	4	0	
2	0	0	0	0	508	506	5	0	
3	0	0	0	0	509	507	2	0	
4	0	0	0	0	510	505	4	0	
5	0	0	0	0	511	508	6	0	
6	0	0	0	0	511	508	6	0	
7	0	0	0	0	510	508	2	0	
8	0	0	0	0	513	509	3	0	
9	0	0	0	0	514	511	2	0	
10	0	0	0	0	518	508	2	0	
11	0	0	0	0	516	508	1	0	
12	0	0	0	0	515	508	1	0	
13	0	0	0	0	513	510	9	0	
14	0	0	0	0	513	510	8	0	
15	0	0	0	0	512	508	14	0	
0	0	0	0	0	512	508	14	0	
1	0	0	0	0	513	512	13	0	
2	0	0	0	0	510	510	14	0	
3	0	0	0	0	510	506	15	0	
4	0	0	0	0	510	508	14	0	
5	0	0	0	0	511	508	15	0	
6	0	0	0	0	511	510	15	0	
7	0	0	0	0	508	508	14	0	
8	0	0	0	0	509	505	13	0	
9	0	0	0	0	510	505	14	0	
10	0	0	0	0	509	506	13	0	
11	0	0	0	0	507	509	14	0	
12	0	0	0	0	509	507	15	0	
13	0	0	0	0	505	508	14	0	
14	0	0	0	0	507	509	15	0	
15	0	0	0	0	507	509	13	0	
0	0	0	0	0	510	511	16	0	
1	0	0	0	0	511	509	15	0	
2	0	0	0	0	515	508	15	0	
3	0	0	0	0	515	508	15	0	
4	0	0	0	0	515	510	12	0	
5	0	0	0	0	513	510	15	0	
6	0	0	0	0	512	507	15	0	
7	0	0	0	0	510	508	15	0	
8	0	0	0	0	509	506	12	0	
9	0	0	0	0	510	506	12	0	
10	0	0	0	0	509	506	10	0	
11	0	0	0	0	507	505	14	0	
12	0	0	0	0	510	506	13	0	
13	0	0	0	0	510	508	14	0	
14	0	0	0	0	508	506	12	0	
15	0	0	0	0	510	510	14	0	
0	0	0	0	0	509	510	13	0	
1	0	0	0	0	510	507	11	0	
2	0	0	0	0	511	511	4	0	
3	0	0	0	0	512	510	5	0	
4	0	0	0	0	511	509	5	0	
5	0	0	0	0	512	508	5	0	
6	0	0	0	0	513	507	5	0	
7	0	0	0	0	513	508	6	0	
8	0	0	0	0	512	511	5	0	
9	0	0	0	0	510	509	4	0	
10	0	0	0	0	513	508	6	0	
11	0	0	0	0	512	508	6	0	
12	0	0	0	0	510	507	5	0	
13	0	0	0	0	509	507	5	0	
14	0	0	0	0	510	508	5	0	
15	0	0	0	0	508	508	6	0	
0	0	0	0	0	508	508	7	0	
1	0	0	0	0	511	508	6	0	
2	0	0	0	0	512	509	7	0	
3	0	0	0	0	511	509	7	0	
4	0	0	0	0	510	506	6	0	
5	0	0	0	0	510	507	6	0	
6	0	0	0	0	510	507	6	0	
7	0	0	0	0	507	507	6	0	
8	0	0	0	0	505	504	6	0	
9	0	0	0	0	510	506	7	0	
10	0	0	0	0	512	510	7	0	
11	0	0	0	0	514	508	7	0	
12	0	0	0	0	512	508	7	0	
13	0	0	0	0	513	508	7	0	
14	0	0	0	0	511	510	7	0	
15	0	0	0	0	512	509	7	0	
0	0	0	0	0	512	506	7	0	
1	0	0	0	0	510	507	7	0	
2	0	0	0	0	512	507	7	0	
3	0	0	0	0	510	509	8	0	
4	0	0	0	0	510	507	9	0	
5	0	0	0	0	508	508	8	0	
6	0	0	0	0	507	507	8	0	
7	0	0	0	0	501	507	9	0	
8	0	0	0	0	505	510	8	0	
9	0	0	0	0	512	510	8	0	
10	0	0	0	0	511	508	9	0	
11	0	0	0	0	516	510	9	0	
12	0	0	0	0	514	508	8	0	
13	0	0	0	0	517	510	8	0	
14	0	0	0	0	515	507	8	0	
15	0	0	0	0	515	509	9	0	
0	0	0	0	0	513	508	9	0	
1	0	0	0	0	512	505	9	0	
2	0	0	0	0	512	509	8	0	
3	0	0	0	0	511	508	9	0	
4	0	0	0	0	509	506	9	0	
5	0	0	0	0	510	507	9	0	
6	0	0	0	0	508	506	9	0	
7	0	0	0	0	509	507	9	0	
8	0	0	0	0	508	505	8	0	
9	0	0	0	0	507	507	9	0	
10	0	0	0	0	508	505	9	0	
11	0	0	0	0	511	505	9	0	
12	0	0	0	0	508	505	9	0	
13	0	0	0	0	511	506	9	0	
14	0	0	0	0	511	508	9	0	
15	0	0	0	0	513	511	9	0	
0	0	0	0	0	513	511	9	0	
1	0	0	0	0	517	512	9	0	
2	0	0	0	0	517	509	9	0	
3	0	0	0	0	517	508	9	0	
4	0	0	0	0	514	509	9	0	
5	0	0	0	0	515	509	9	0	
6	0	0	0	0	512	507	10	0	
7	0	0	0	0	512	508	11	0	
8	0	0	0	0	510	507	10	0	
9	0	0	0	0	508	509	10	0	
10	0	0	0	0	507	508	10	0	
11	0	0	0	0	507	505	10	0	
12	0	0	0	0	499	508	10	0	
13	0	0	0	0	495	507	10	0	
14	0	0	0	0	503	508	10	0	
15	0	0	0	0	511	507	10	0	
0	0	0	0	0	516	510	10	0	
1	0	0	0	0	516	509	10	0	
2	0	0	0	0	518	511	11	0	
3	0	0	0	0	517	509	10	0	
4	0	0	0	0	519	509	13	0	
5	0	0	0	0	516	511	10	0	
6	0	0	0	0	515	509	11	0	
7	0	0	0	0	514	510	12	0	
8	0	0	0	0	513	510	11	0	
9	0	0	0	0	512	509	10	0	
10	0	0	0	0	512	508	11	0	
11	0	0	0	0	512	505	10	0	
12	0	0	0	0	513	507	11	0	
13	0	0	0	0	510	507	11	0	
14	0	0	0	0	510	508	11	0	
15	0	0	0	0	510	506	11	0	
0	0	0	0	0	508	508	11	0	
1	0	0	0	0	510	507	11	0	
2	0	0	0	0	511	509	11	0	
3	0	0	0	0	511	506	11	0	
4	0	0	0	0	511	510	12	0	
5	0	0	0	0	511	509	11	0	
6	0	0	0	0	512	509	12	0	
7	0	0	0	0	513	510	11	0	
8	0	0	0	0	512	508	13	0	
9	0	0	0	0	513	510	12	0	
10	0	0	0	0	513	509	13	0	
11	0	0	0	0	513	508	12	0	
12	0	0	0	0	513	508	11	0	
13	0	0	0	0	512	508	12	0	
14	0	0	0	0	512	506	11	0	
15	0	0	0	0	510	506	12	0	
0	0	0	0	0	510	507	12	0	
1	0	0	0	0	508	506	12	0	
2	0	0	0	0	508	506	11	0	
3	0	0	0	0	509	506	12	0	
4	0	0	0	0	508	505	12	0	
5	0	0	0	0	509	508	11	0	
6	0	0	0	0	508	508	12	0	
7	0	0	0	0	511	509	12	0	
8	0	0	0	0	513	507	11	0	
9	0	0	0	0	515	509	11	0	
10	0	0	0	0	513	510	11	0	
11	0	0	0	0	516	510	13	0	
12	0	0	0	0	511	509	14	0	
13	0	0	0	0	512	508	13	0	
14	0	0	0	0	513	508	11	0	
15	0	0	0	0	512	508	11	0	
0	0	0	0	0	513	510	11	0	
1	0	0	0	0	511	510	11	0	
2	0	0	0	0	511	510	10	0	
3	0	0	0	0	508	507	10	0	
4	0	0	0	0	507	509	11	0	
5	0	0	0	0	507	507	10	0	
6	0	0	0	0	508	504	11	0	
7	0	0	0	0	507	506	11	0	
8	0	0	0	0	509	505	11	0	
9	0	0	0	0	509	504	11	0	
10	0	0	0	0	509	507	11	0	
11	0	0	0	0	511	508	11	0	
12	0	0	0	0	510	508	11	0	
13	0	0	0	0	511	509	11	0	
14	0	0	0	0	511	508	11	0	
15	0	0	0	0	512	508	11	0	
0	0	0	0	0	513	511	11	0	
1	0	0	0	0	515	509	11	0	
2	0	0	0	0	513	510	10	0	
3	0	0	0	0	514	508	11	0	
4	0	0	0	0	513	509	11	0	
5	0	0	0	0	511	508	10	0	
6	0	0	0	0	512	509	10	0	
7	0	0	0	0	512	509	10	0	
8	0	0	0	0	509	506	11	0	
9	0	0	0	0	510	508	10	0	
10	0	0	0	0	509	508	10	0	
11	0	0	0	0	509	508	12	0	
12	0	0	0	0	509	508	10	0	
13	0	0	0	0	511	510	11	0	
14	0	0	0	0	510	510	10	0	
15	0	0	0	0	510	510	10	0	
0	0	0	0	0	512	505	12	0	
1	0	0	0	0	513	506	13	0	
2	0	0	0	0	511	508	13	0	
3	0	0	0	0	515	510	12	0	
4	0	0	0	0	512	506	13	0	
5	0	0	0	0	515	509	9	0	
6	0	0	0	0	512	510	16	0	
7	0	0	0	0	513	507	17	0	
8	0	0	0	0	510	507	18	0	
9	0	0	0	0	511	508	17	0	
10	0	0	0	0	509	508	15	0	
11	0	0	0	0	511	507	17	0	
12	0	0	0	0	511	506	18	0	
13	0	0	0	0	512	506	17	0	
14	0	0	0	0	508	508	19	0	
15	0	0	0	0	509	507	17	0	
0	0	0	0	0	507	507	18	0	
1	0	0	0	0	508	508	19	0	
2	0	0	0	0	511	508	18	0	
3	0	0	0	0	511	508	19	0	
4	0	0	0	0	512	508	14	0	
5	0	0	0	0	512	510	11	0	
6	0	0	0	0	516	509	15	0	
7	0	0	0	0	514	509	13	0	
8	0	0	0	0	515	509	14	0	
9	0	0	0	0	514	510	16	0	
10	0	0	0	0	512	510	15	0	
11	0	0	0	0	513	510	14	0	
12	0	0	0	0	512	508	15	0	
13	0	0	0	0	510	506	14	0	
14	0	0	0	0	512	506	14	0	
15	0	0	0	0	511	508	11	0	
0	0	0	0	0	507	506	12	0	
1	0	0	0	0	505	506	13	0	
2	0	0	0	0	507	506	13	0	
3	0	0	0	0	508	504	12	0	
4	0	0	0	0	507	509	12	0	
5	0	0	0	0	510	507	13	0	
6	0	0	0	0	509	507	12	0	
7	0	0	0	0	512	510	13	0	
8	0	0	0	0	510	509	12	0	
9	0	0	0	0	509	510	12	0	
10	0	0	0	0	511	509	13	0	
11	0	0	0	0	514	511	12	0	
12	0	0	0	0	514	510	12	0	
13	0	0	0	0	514	510	12	0	
14	0	0	0	0	513	511	11	0	
15	0	0	0	0	513	509	11	0	
0	0	0	0	0	512	508	10	0	
1	0	0	0	0	513	508	9	0	
2	0	0	0	0	510	509	9	0	
3	0	0	0	0	510	508	9	0	
4	0	0	0	0	509	508	9	0	
5	0	0	0	0	508	506	9	0	
6	0	0	0	0	511	507	9	0	
7	0	0	0	0	510	506	8	0	
8	0	0	0	0	510	506	8	0	
9	0	0	0	0	510	508	8	0	
10	0	0	0	0	512	507	8	0	
11	0	0	0	0	511	506	8	0	
12	0	0	0	0	514	507	9	0	
13	0	0	0	0	514	508	8	0	
14	0	0	0	0	514	510	7	0	
15	0	0	0	0	512	509	7	0	
0	0	0	0	0	514	511	6	0	
1	0	0	0	0	516	508	7	0	
2	0	0	0	0	514	508	5	0	
3	0	0	0	0	513	510	5	0	
4	0	0	0	0	515	508	4	0	
5	0	0	0	0	512	507	5	0	
6	0	0	0	0	510	508	4	0	
7	0	0	0	0	508	507	5	0	
8	0	0	0	0	507	508	5	0	
9	0	0	0	0	508	507	5	0	
10	0	0	0	0	509	509	4	0	
11	0	0	0	0	508	509	3	0	
12	0	0	0	0	509	507	5	0	
13	0	0	0	0	508	508	5	0	
14	0	0	0	0	508	508	2	0	
15	0	0	0	0	510	508	3	0	
0	0	0	0	0	511	508	2	0	
1	0	0	0	0	511	508	2	0	
2	0	0	0	0	512	509	2	0	
3	0	0	0	0	512	507	3	0	
4	0	0	0	0	513	507	3	0	
5	0	0	0	0	513	507	1	0	
6	0	0	0	0	514	510	0	0	
7	0	0	0	0	514	511	0	0	
8	0	0	0	0	515	507	0	0	
9	0	0	0	0	513	508	0	0	
10	0	0	0	0	513	510	0	0	
11	0	0	0	0	510	508	0	0	
12	0	0	0	0	512	506	0	0	
13	0	0	0	0	508	503	0	0	
14	0	0	0	0	502	504	0	0	
15	0	0	0	0	501	504	0	0	
0	0	0	0	0	504	507	0	0	
1	0	0	0	0	511	505	0	0	
2	0	0	0	0	514	507	0	0	
3	0	0	0	0	514	507	0	0	
4	0	0	0	0	514	507	0	0	
5	0	0	0	0	514	507	0	0	
6	0	0	0	0	513	508	0	0	
7	0	0	0	0	513	511	0	0	
8	0	0	0	0	514	508	0	0	
9	0	0	0	0	512	508	0	0	
10	0	0	0	0	512	510	0	0	
11	0	0	0	0	512	509	0	0	
12	0	0	0	0	513	508	0	0	
13	0	0	0	0	510	508	5	0	
14	0	0	0	0	511	508	5	0	
15	0	0	0	0	509	508	5	0	
0	0	0	0	0	508	508	5	0	
1	0	0	0	0	507	508	5	0	
2	0	0	0	0	510	506	5	0	
3	0	0	0	0	507	507	5	0	
4	0	0	0	0	508	509	5	0	
5	0	0	0	0	508	508	4	0	
6	0	0	0	0	509	510	0	0	
7	0	0	0	0	511	509	0	0	
8	0	0	0	0	511	508	0	0	
9	0	0	0	0	513	507	0	0	
10	0	0	0	0	511	508	0	0	
11	0	0	0	0	510	511	0	0	
12	0	0	0	0	509	508	0	0	
13	0	0	0	0	511	505	0	0	
14	0	0	0	0	508	508	0	0	
15	0	0	0	0	511	508	0	0	
0	0	0	0	0	513	506	0	0	
1	0	0	0	0	514	508	0	0	
2	0	0	0	0	511	509	0	0	
3	0	0	0	0	511	508	0	0	
4	0	0	0	0	510	509	0	0	
5	0	0	0	0	508	508	0	0	
6	0	0	0	0	508	508	0	0	
7	0	0	0	0	507	507	0	0	
8	0	0	0	0	511	507	0	0	
9	0	0	0	0	508	507	0	0	
10	0	0	0	0	509	507	5	0	
11	0	0	0	0	509	508	3	0	
12	0	0	0	0	512	508	3	0	
13	0	0	0	0	511	508	6	0	
14	0	0	0	0	512	509	4	0	
15	0	0	0	0	513	510	0	0	
0	0	0	0	0	512	512	0	0	
1	0	0	0	0	516	508	0	0	
2	0	0	0	0	519	508	0	0	
3	0	0	0	0	518	508	0	0	
4	0	0	0	0	515	510	0	0	
5	0	0	0	0	515	509	0	0	
6	0	0	0	0	513	507	0	0	
7	0	0	0	0	514	507	0	0	
8	0	0	0	0	511	509	0	0	
9	0	0	0	0	507	507	0	0	
10	0	0	0	0	503	507	0	0	
11	0	0	0	0	499	505	0	0	
12	0	0	0	0	495	506	0	0	
13	0	0	0	0	506	509	0	0	
14	0	0	0	0	512	509	0	0	
15	0	0	0	0	513	508	0	0	
0	0	0	0	0	514	508	0	0	
1	0	0	0	0	514	507	0	0	
2	0	0	0	0	511	509	0	0	
3	0	0	0	0	511	509	5	0	
4	0	0	0	0	513	508	7	0	
5	0	0	0	0	511	508	6	0	
6	0	0	0	0	511	509	7	0	
7	0	0	0	0	515	509	6	0	
8	0	0	0	0	516	511	4	0	
9	0	0	0	0	517	508	4	0	
10	0	0	0	0	516	507	4	0	
11	0	0	0	0	513	507	5	0	
12	0	0	0	0	511	505	4	0	
13	0	0	0	0	508	507	5	0	
14	0	0	0	0	509	506	6	0	
15	0	0	0	0	508	507	6	0	
0	0	0	0	0	507	507	5	0	
1	0	0	0	0	508	508	5	0	
2	0	0	0	0	511	506	4	0	
3	0	0	0	0	511	507	5	0	
4	0	0	0	0	517	509	4	0	
5	0	0	0	0	524	507	5	0	
6	0	0	0	0	524	508	4	0	
7	0	0	0	0	523	508	4	0	
8	0	0	0	0	521	510	5	0	
9	0	0	0	0	519	510	5	0	
10	0	0	0	0	517	511	5	0	
11	0	0	0	0	513	510	5	0	
12	0	0	0	0	515	509	5	0	
13	0	0	0	0	508	510	5	0	
14	0	0	0	0	496	509	5	0	
15	0	0	0	0	479	508	5	0	
0	0	0	0	0	471	509	6	0	
1	0	0	0	0	486	508	6	0	
2	0	0	0	0	506	507	6	0	
3	0	0	0	0	514	506	6	0	
4	0	0	0	0	516	507	7	0	
5	0	0	0	0	512	505	8	0	
6	0	0	0	0	507	504	7	0	
7	0	0	0	0	509	505	7	0	
8	0	0	0	0	514	508	8	0	
9	0	0	0	0	514	506	9	0	
10	0	0	0	0	517	508	9	0	
11	0	0	0	0	519	507	9	0	
12	0	0	0	0	508	509	10	0	
13	0	0	0	0	507	510	11	0	
14	0	0	0	0	513	512	11	0	
15	0	0	0	0	515	510	11	0	
0	0	0	0	0	513	506	11	0	
1	0	0	0	0	512	507	11	0	
2	0	0	0	0	507	508	12	0	
3	0	0	0	0	505	509	12	0	
4	0	0	0	0	507	509	13	0	
5	0	0	0	0	512	510	14	0	
6	0	0	0	0	516	507	14	0	
7	0	0	0	0	519	507	14	0	
8	0	0	0	0	520	507	15	0	
9	0	0	0	0	520	507	15	0	
10	0	0	0	0	524	507	15	0	
11	0	0	0	0	527	508	15	0	
12	0	0	0	0	526	508	15	0	
13	0	0	0	0	519	509	15	0	
14	0	0	0	0	516	507	16	0	
15	0	0	0	0	511	508	16	0	
0	0	0	0	0	505	511	16	0	
1	0	0	0	0	498	510	16	0	
2	0	0	0	0	487	510	17	0	
3	0	0	0	0	487	509	19	0	
4	0	0	0	0	494	508	20	0	
5	0	0	0	0	496	508	19	0	
6	0	0	0	0	507	508	19	0	
7	0	0	0	0	517	509	20	0	
8	0	0	0	0	521	506	21	0	
9	0	0	0	0	521	508	25	0	
10	0	0	0	0	520	506	22	0	
11	0	0	0	0	512	508	23	0	
12	0	0	0	0	508	508	21	0	
13	0	0	0	0	502	507	22	0	
14	0	0	0	0	496	508	23	0	
15	0	0	0	0	496	508	23	0	
0	0	0	0	0	511	509	22	0	
1	0	0	0	0	516	508	23	0	
2	0	0	0	0	519	509	23	0	
3	0	0	0	0	519	509	23	0	
4	0	0	0	0	519	508	24	0	
5	0	0	0	0	518	510	24	0	
6	0	0	0	0	516	510	24	0	
7	0	0	0	0	519	510	25	0	
8	0	0	0	0	517	508	25	0	
9	0	0	0	0	512	508	25	0	
10	0	0	0	0	512	508	25	0	
11	0	0	0	0	511	506	25	0	
12	0	0	0	0	509	507	25	0	
13	0	0	0	0	508	507	25	0	
14	0	0	0	0	511	506	25	0	
15	0	0	0	0	512	504	25	0	
0	0	0	0	0	516	507	26	0	
1	0	0	0	0	523	506	25	0	
2	0	0	0	0	526	511	25	0	
3	0	0	0	0	522	509	24	0	
4	0	0	0	0	529	509	25	0	
5	0	0	0	0	525	506	24	0	
6	0	0	0	0	520	511	24	0	
7	0	0	0	0	514	513	25	0	
8	0	0	0	0	500	510	25	0	
9	0	0	0	0	490	508	25	0	
10	0	0	0	0	483	504	24	0	
11	0	0	0	0	479	509	25	0	
12	0	0	0	0	491	514	25	0	
13	0	0	0	0	505	510	25	0	
14	0	0	0	0	513	511	25	0	
15	0	0	0	0	522	510	25	0	
0	0	0	0	0	532	513	25	0	
1	0	0	0	0	531	515	25	0	
2	0	0	0	0	523	513	25	0	
3	0	0	0	0	515	510	25	0	
4	0	0	0	0	509	507	25	0	
5	0	0	0	0	499	499	25	0	
6	0	0	0	0	495	497	25	0	
7	0	0	0	0	493	500	26	0	
8	0	0	0	0	493	500	26	0	
9	0	0	0	0	494	496	27	0	
10	0	0	0	0	510	499	27	0	
11	0	0	0	0	529	504	28	0	
12	0	0	0	0	536	510	28	0	
13	0	0	0	0	542	514	29	0	
14	0	0	0	0	541	511	29	0	
15	0	0	0	0	534	517	31	0	
0	0	0	0	0	519	520	31	0	
1	0	0	0	0	499	520	32	0	
2	0	0	0	0	489	511	35	0	
3	0	0	0	0	503	510	36	0	
4	0	0	0	0	505	523	34	0	
5	0	0	0	0	500	522	37	0	
6	0	0	0	0	496	524	43	0	
7	0	0	0	0	514	505	43	0	
8	0	0	0	0	530	502	44	0	
9	0	0	0	0	535	492	44	0	
10	0	0	0	0	516	494	45	0	
11	0	0	0	0	497	496	43	0	
12	0	0	0	0	482	467	46	0	
13	0	0	0	0	468	475	48	0	
14	0	0	0	0	462	493	49	0	
15	0	0	0	0	455	475	64	0	
0	0	0	0	0	459	495	66	0	
1	0	0	0	0	479	539	71	0	
2	0	0	0	0	523	556	77	0	
3	0	0	0	0	556	539	86	0	
4	0	0	0	0	568	527	90	0	
5	0	0	0	0	571	518	98	0	
6	0	0	0	0	566	506	97	0	
7	0	0	0	0	552	496	103	0	
8	0	0	0	0	532	487	107	0	
9	0	0	0	0	514	484	119	0	
10	0	0	0	0	502	494	118	0	
11	0	0	0	0	481	521	123	0	
12	0	0	0	0	461	512	125	0	
13	0	0	0	0	469	504	133	0	
14	0	0	0	0	481	516	135	0	
15	0	0	0	0	480	530	139	0	
0	0	0	0	0	483	541	142	0	
1	0	0	0	0	486	531	142	0	
2	0	0	0	0	492	512	143	0	
3	0	0	0	0	504	477	147	0	
4	0	0	0	0	515	467	147	0	
5	0	0	0	0	521	492	148	0	
6	0	0	0	0	522	518	150	0	
7	0	0	0	0	520	523	151	0	
8	0	0	0	0	524	506	152	0	
9	0	0	0	0	527	491	156	0	
10	0	0	0	0	529	487	158	0	
11	0	0	0	0	521	500	160	0	
12	0	0	0	0	511	516	162	0	
13	0	0	0	0	505	519	165	0	
14	0	0	0	0	515	518	162	0	
15	0	0	0	0	519	517	166	0	
0	0	0	0	0	521	519	168	0	
1	0	0	0	0	516	520	172	0	
2	0	0	0	0	507	512	175	0	
3	0	0	0	0	502	506	176	0	
4	0	0	0	0	506	508	178	0	
5	0	0	0	0	508	511	181	0	
6	0	0	0	0	501	513	183	0	
7	0	0	0	0	484	505	182	0	
8	0	0	0	0	487	501	184	0	
9	0	0	0	0	503	508	185	0	
10	0	0	0	0	518	512	185	0	
11	0	0	0	0	524	502	184	0	
12	0	0	0	0	516	497	183	0	
13	0	0	0	0	524	505	185	0	
14	0	0	0	0	539	511	185	0	
15	0	0	0	0	529	503	186	0	
0	0	0	0	0	513	493	188	0	
1	0	0	0	0	501	497	188	0	
2	0	0	0	0	488	513	190	0	
3	0	0	0	0	480	514	189	0	
4	0	0	0	0	477	516	191	0	
5	0	0	0	0	483	508	192	0	
6	0	0	0	0	494	507	193	0	
7	0	0	0	0	496	517	193	0	
8	0	0	0	0	505	530	191	0	
9	0	0	0	0	516	539	193	0	
10	0	0	0	0	523	531	195	0	
11	0	0	0	0	528	524	198	0	
12	0	0	0	0	535	520	198	0	
13	0	0	0	0	528	508	198	0	
14	0	0	0	0	526	502	199	18	
15	0	0	0	0	532	487	199	31	
0	0	0	0	0	549	479	199	39	
1	0	0	0	0	547	484	198	41	
2	0	0	0	0	527	481	196	39	
3	0	0	0	0	511	493	198	40	
4	0	0	0	0	501	503	199	39	
5	0	0	0	0	499	497	203	43	
6	0	0	0	0	483	474	204	43	
7	0	0	0	0	449	481	204	43	
8	0	0	0	0	403	496	205	44	
9	0	0	0	0	404	503	207	54	
10	0	0	0	0	449	516	207	57	
11	0	0	0	0	503	526	210	59	
12	0	0	0	0	539	526	210	62	
13	0	0	0	0	550	528	215	63	
14	0	0	0	0	553	519	216	66	
15	0	0	0	0	561	524	217	67	
0	0	0	0	0	571	522	217	68	
1	0	0	0	0	567	511	218	73	
2	0	0	0	0	566	496	219	71	
3	0	0	0	0	556	504	217	67	
4	0	0	0	0	539	511	219	71	
5	0	0	0	0	516	522	217	76	
6	0	0	0	0	492	531	219	79	
7	0	0	0	0	471	526	220	85	
8	0	0	0	0	433	508	222	89	
9	0	0	0	0	437	494	227	91	
10	0	0	0	0	461	503	226	90	
11	0	0	0	0	488	500	226	95	
12	0	0	0	0	515	505	230	97	
13	0	0	0	0	526	513	233	98	
14	0	0	0	0	512	500	230	102	
15	0	0	0	0	495	492	231	105	
0	0	0	0	0	505	493	232	105	
1	0	0	0	0	522	497	233	104	
2	0	0	0	0	525	514	235	107	
3	0	0	0	0	524	529	236	108	
4	0	0	0	0	528	523	235	108	
5	0	0	0	0	530	518	236	101	
6	0	0	0	0	532	523	237	99	
7	0	0	0	0	531	515	238	103	
8	0	0	0	0	526	505	238	104	
9	0	0	0	0	522	492	236	105	
10	0	0	0	0	515	494	235	107	
11	0	0	0	0	513	495	236	107	
12	0	0	0	0	521	499	234	119	
13	0	0	0	0	517	503	234	129	
14	0	0	0	0	527	508	234	128	
15	0	0	0	0	535	512	236	117	
0	0	0	0	0	531	517	235	115	
1	0	0	0	0	538	514	237	103	
2	0	0	0	0	537	515	239	107	
3	0	0	0	0	526	512	239	109	
4	0	0	0	0	518	504	240	112	
5	0	0	0	0	500	504	242	111	
6	0	0	0	0	471	510	241	111	
7	0	0	0	0	435	506	240	120	
8	0	0	0	0	410	498	243	131	
9	0	0	0	0	408	500	246	130	
10	0	0	0	0	448	511	247	120	
11	0	0	0	0	491	516	247	116	
12	0	0	0	0	529	527	248	132	
13	0	0	0	0	544	517	249	128	
14	0	0	0	0	541	508	251	141	
15	0	0	0	0	532	499	250	145	
0	0	0	0	0	532	479	250	148	
1	0	0	0	0	526	483	251	157	
2	0	0	0	0	525	509	253	155	
3	0	0	0	0	523	513	251	154	
4	0	0	0	0	528	515	252	154	
5	0	0	0	0	544	523	252	155	
6	0	0	0	0	539	522	252	159	
7	0	0	0	0	539	539	253	160	
8	0	0	0	0	537	523	253	164	
9	0	0	0	0	527	487	255	172	
10	0	0	0	0	513	452	257	177	
11	0	0	0	0	503	459	256	175	
12	0	0	0	0	489	444	255	175	
13	0	0	0	0	480	448	261	180	
14	0	0	0	0	479	534	262	175	
15	0	0	0	0	494	611	263	174	
0	0	0	0	0	505	616	266	177	
1	0	0	0	0	521	583	267	177	
2	0	0	0	0	521	537	266	179	
3	0	0	0	0	515	508	267	179	
4	0	0	0	0	518	499	268	176	
5	0	0	0	0	528	490	270	173	
6	0	0	0	0	523	488	271	175	
7	0	0	0	0	528	491	271	177	
8	0	0	0	0	527	497	270	180	
9	0	0	0	0	521	495	271	181	
10	0	0	0	0	515	491	273	184	
11	0	0	0	0	507	496	274	185	
12	0	0	0	0	495	500	273	182	
13	0	0	0	0	494	497	274	196	
14	0	0	0	0	510	499	281	195	
15	0	0	0	0	507	507	281	196	
0	0	0	0	0	509	509	279	193	
1	0	0	0	0	517	509	280	191	
2	0	0	0	0	518	508	285	193	
3	0	0	0	0	501	505	287	195	
4	0	0	0	0	486	508	287	197	
5	0	0	0	0	462	510	288	198	
6	0	0	0	0	455	509	288	199	
7	0	0	0	0	491	508	292	228	
8	0	0	0	0	541	510	293	230	
9	0	0	0	0	556	507	294	227	
10	0	0	0	0	555	505	294	230	
11	0	0	0	0	543	509	295	228	
12	0	0	0	0	536	520	295	231	
13	0	0	0	0	515	521	297	230	
14	0	0	0	0	487	512	299	229	
15	0	0	0	0	448	509	299	229	
0	0	0	0	0	438	512	300	228	
1	0	0	0	0	463	501	302	231	
2	0	0	0	0	492	487	302	233	
3	0	0	0	0	527	485	302	233	
4	0	0	0	0	542	499	304	234	
5	0	0	0	0	543	504	304	233	
6	0	0	0	0	541	508	305	231	
7	0	0	0	0	551	509	307	232	
8	0	0	0	0	551	511	308	236	
9	0	0	0	0	551	512	310	236	
10	0	0	0	0	539	515	310	238	
11	0	0	0	0	528	510	312	234	
12	0	0	0	0	518	506	312	237	
13	0	0	0	0	506	504	314	240	
14	0	0	0	0	498	510	313	239	
15	0	0	0	0	486	513	313	241	
0	0	0	0	0	478	510	313	238	
1	0	0	0	0	494	512	314	241	
2	0	0	0	0	497	513	315	243	
3	0	0	0	0	487	506	316	246	
4	0	0	0	0	496	508	316	247	
5	0	0	0	0	495	512	316	250	
6	0	0	0	0	490	503	316	250	
7	0	0	0	0	512	507	317	247	
8	0	0	0	0	528	510	317	247	
9	0	0	0	0	533	512	317	224	
10	0	0	0	0	537	511	316	225	
11	0	0	0	0	535	510	316	227	
12	0	0	0	0	535	510	318	228	
13	0	0	0	0	530	508	317	230	
14	0	0	0	0	521	508	319	230	
15	0	0	0	0	504	507	319	232	
0	0	0	0	0	504	504	318	231	
1	0	0	0	0	492	508	319	231	
2	0	0	0	0	498	510	319	234	
3	0	0	0	0	515	513	319	236	
4	0	0	0	0	518	509	319	237	
5	0	0	0	0	507	506	319	237	
6	0	0	0	0	496	506	319	237	
7	0	0	0	0	481	505	319	237	
8	0	0	0	0	480	508	319	238	
9	0	0	0	0	488	506	320	238	
10	0	0	0	0	500	506	321	237	
11	0	0	0	0	511	511	320	238	
12	0	0	0	0	515	511	321	238	
13	0	0	0	0	523	511	321	237	
14	0	0	0	0	524	507	319	238	
15	0	0	0	0	527	504	319	238	
0	0	0	0	0	527	506	319	239	
1	0	0	0	0	521	510	319	239	
2	0	0	0	0	519	512	318	239	
3	0	0	0	0	516	512	317	239	
4	0	0	0	0	515	512	317	239	
5	0	0	0	0	513	504	315	240	
6	0	0	0	0	521	505	315	240	
7	0	0	0	0	520	504	314	240	
8	0	0	0	0	516	500	312	240	
9	0	0	0	0	511	500	310	241	
10	0	0	0	0	509	503	307	242	
11	0	0	0	0	508	518	307	242	
12	0	0	0	0	504	515	304	243	
13	0	0	0	0	494	510	303	243	
14	0	0	0	0	495	493	302	243	
15	0	0	0	0	501	507	298	244	
0	0	0	0	0	509	512	289	244	
1	0	0	0	0	522	508	288	243	
2	0	0	0	0	527	505	287	243	
3	0	0	0	0	533	513	287	244	
4	0	0	0	0	530	515	288	245	
5	0	0	0	0	530	519	288	244	
6	0	0	0	0	526	517	289	243	
7	0	0	0	0	511	500	289	244	
8	0	0	0	0	497	496	290	243	
9	0	0	0	0	499	514	289	243	
10	0	0	0	0	486	512	289	244	
11	0	0	0	0	475	503	288	244	
12	0	0	0	0	477	500	289	243	
13	0	0	0	0	497	502	289	243	
14	0	0	0	0	526	503	289	243	
15	0	0	0	0	532	506	289	242	
0	0	0	0	0	531	504	289	241	
1	0	0	0	0	528	514	288	242	
2	0	0	0	0	524	512	289	241	
3	0	0	0	0	531	509	289	240	
4	0	0	0	0	523	518	290	238	
5	0	0	0	0	513	528	289	238	
6	0	0	0	0	496	520	289	236	
7	0	0	0	0	488	515	288	234	
8	0	0	0	0	496	510	288	233	
9	0	0	0	0	522	518	288	233	
10	0	0	0	0	543	508	288	233	
11	0	0	0	0	555	495	287	233	
12	0	0	0	0	546	493	287	233	
13	0	0	0	0	536	501	287	234	
14	0	0	0	0	498	516	287	234	
15	0	0	0	0	456	503	286	235	
0	0	0	0	0	433	473	285	235	
1	0	0	0	0	438	483	284	233	
2	0	0	0	0	480	506	284	252	
3	0	0	0	0	513	509	284	251	
4	0	0	0	0	516	508	284	253	
5	0	0	0	0	519	508	284	251	
6	0	0	0	0	535	531	283	252	
7	0	0	0	0	536	538	284	253	
8	0	0	0	0	535	511	283	254	
9	0	0	0	0	535	503	283	256	
10	0	0	0	0	531	504	284	260	
11	0	0	0	0	520	509	283	262	
12	0	0	0	0	525	511	283	263	
13	0	0	0	0	525	508	285	263	
14	0	0	0	0	521	508	283	263	
15	0	0	0	0	511	504	284	263	
0	0	0	0	0	501	518	284	263	
1	0	0	0	0	499	517	285	264	
2	0	0	0	0	503	511	285	264	
3	0	0	0	0	505	498	285	265	
4	0	0	0	0	499	497	286	266	
5	0	0	0	0	493	500	287	266	
6	0	0	0	0	496	498	288	267	
7	0	0	0	0	529	507	290	267	
8	0	0	0	0	537	509	290	268	
9	0	0	0	0	531	514	290	268	
10	0	0	0	0	529	514	290	268	
11	0	0	0	0	521	510	290	269	
12	0	0	0	0	508	511	291	268	
13	0	0	0	0	503	521	291	268	
14	0	0	0	0	515	520	291	268	
15	0	0	0	0	522	510	291	269	
0	0	0	0	0	517	501	293	269	
1	0	0	0	0	516	504	292	269	
2	0	0	0	0	504	504	291	270	
3	0	0	0	0	487	498	292	271	
4	0	0	0	0	481	500	294	270	
5	0	0	0	0	478	505	294	270	
6	0	0	0	0	491	511	294	270	
7	0	0	0	0	508	511	293	270	
8	0	0	0	0	522	511	293	270	
9	0	0	0	0	519	505	293	270	
10	0	0	0	0	526	505	295	270	
11	0	0	0	0	531	504	294	271	
12	0	0	0	0	536	504	294	270	
13	0	0	0	0	537	506	295	270	
14	0	0	0	0	539	505	295	271	
15	0	0	0	0	529	505	294	271	
0	0	0	0	0	513	514	295	271	
1	0	0	0	0	496	515	295	271	
2	0	0	0	0	476	511	294	272	
3	0	0	0	0	473	505	294	271	
4	0	0	0	0	501	504	294	272	
5	0	0	0	0	522	505	295	272	
6	0	0	0	0	528	513	295	272	
7	0	0	0	0	528	515	295	272	
8	0	0	0	0	528	510	295	273	
9	0	0	0	0	520	516	295	272	
10	0	0	0	0	509	518	295	273	
11	0	0	0	0	502	510	295	273	
12	0	0	0	0	510	500	295	274	
13	0	0	0	0	509	504	295	273	
14	0	0	0	0	502	499	295	273	
15	0	0	0	0	487	492	294	273	
0	0	0	0	0	475	502	294	274	
1	0	0	0	0	495	519	294	274	
2	0	0	0	0	504	518	293	274	
3	0	0	0	0	516	502	293	274	
4	0	0	0	0	523	498	293	275	
5	0	0	0	0	537	518	293	274	
6	0	0	0	0	540	542	293	274	
7	0	0	0	0	538	519	291	274	
8	0	0	0	0	537	496	291	274	
9	0	0	0	0	529	489	290	274	
10	0	0	0	0	523	499	289	274	
11	0	0	0	0	517	504	289	273	
12	0	0	0	0	502	504	289	273	
13	0	0	0	0	487	503	289	274	
14	0	0	0	0	492	507	288	273	
15	0	0	0	0	499	518	287	272	
0	0	0	0	0	499	532	286	271	
1	0	0	0	0	503	526	285	271	
2	0	0	0	0	507	515	285	270	
3	0	0	0	0	509	499	286	270	
4	0	0	0	0	513	486	285	270	
5	0	0	0	0	510	493	284	270	
6	0	0	0	0	496	494	283	268	
7	0	0	0	0	504	508	281	267	
8	0	0	0	0	512	519	281	267	
9	0	0	0	0	524	513	279	267	
10	0	0	0	0	536	520	278	267	
11	0	0	0	0	541	523	279	266	
12	0	0	0	0	537	516	280	266	
13	0	0	0	0	523	507	278	265	
14	0	0	0	0	501	501	278	264	
15	0	0	0	0	504	496	276	263	
0	0	0	0	0	510	499	270	261	
1	0	0	0	0	502	503	268	261	
2	0	0	0	0	473	504	269	259	
3	0	0	0	0	465	505	268	258	
4	0	0	0	0	499	507	267	256	
5	0	0	0	0	522	509	266	255	
6	0	0	0	0	530	506	267	252	
7	0	0	0	0	534	507	267	252	
8	0	0	0	0	532	511	266	253	
9	0	0	0	0	523	511	266	253	
10	0	0	0	0	513	508	265	252	
11	0	0	0	0	495	504	265	251	
12	0	0	0	0	489	504	263	251	
13	0	0	0	0	500	507	262	250	
14	0	0	0	0	503	508	263	250	
15	0	0	0	0	508	511	263	249	
0	0	0	0	0	520	514	262	253	
1	0	0	0	0	528	510	261	257	
2	0	0	0	0	525	511	260	249	
3	0	0	0	0	516	510	260	247	
4	0	0	0	0	499	511	259	246	
5	0	0	0	0	492	511	259	242	
6	0	0	0	0	500	508	259	240	
7	0	0	0	0	502	507	259	241	
8	0	0	0	0	508	505	258	237	
9	0	0	0	0	514	508	258	232	
10	0	0	0	0	519	505	258	228	
11	0	0	0	0	519	494	257	226	
12	0	0	0	0	519	499	258	226	
13	0	0	0	0	523	503	257	227	
14	0	0	0	0	521	504	259	231	
15	0	0	0	0	530	508	258	233	
0	0	0	0	0	533	508	258	231	
1	0	0	0	0	539	511	259	228	
2	0	0	0	0	527	503	259	230	
3	0	0	0	0	507	499	260	230	
4	0	0	0	0	491	499	260	231	
5	0	0	0	0	483	504	260	231	
6	0	0	0	0	485	512	262	228	
7	0	0	0	0	480	532	261	232	
8	0	0	0	0	483	545	261	233	
9	0	0	0	0	487	548	262	235	
10	0	0	0	0	505	513	262	236	
11	0	0	0	0	518	488	261	239	
12	0	0	0	0	526	502	261	239	
13	0	0	0	0	534	509	262	238	
14	0	0	0	0	531	491	263	236	
15	0	0	0	0	527	486	262	237	
0	0	0	0	0	519	501	262	235	
1	0	0	0	0	527	509	262	239	
2	0	0	0	0	524	515	262	239	
3	0	0	0	0	517	518	262	239	
4	0	0	0	0	508	517	261	238	
5	0	0	0	0	505	519	260	238	
6	0	0	0	0	518	526	261	238	
7	0	0	0	0	519	506	261	236	
8	0	0	0	0	497	483	261	236	
9	0	0	0	0	474	479	260	236	
10	0	0	0	0	463	519	260	236	
11	0	0	0	0	477	536	260	236	
12	0	0	0	0	489	508	260	240	
13	0	0	0	0	503	499	260	239	
14	0	0	0	0	512	499	260	238	
15	0	0	0	0	527	501	260	237	
0	0	0	0	0	533	503	261	239	
1	0	0	0	0	533	506	260	239	
2	0	0	0	0	538	509	260	236	
3	0	0	0	0	537	508	260	239	
4	0	0	0	0	532	509	260	237	
5	0	0	0	0	531	507	260	237	
6	0	0	0	0	528	508	260	238	
7	0	0	0	0	523	510	260	236	
8	0	0	0	0	509	508	262	236	
9	0	0	0	0	494	510	261	235	
10	0	0	0	0	486	509	261	235	
11	0	0	0	0	484	504	260	236	
12	0	0	0	0	492	505	262	238	
13	0	0	0	0	499	499	261	238	
14	0	0	0	0	502	497	260	236	
15	0	0	0	0	499	498	261	237	
0	0	0	0	0	507	504	261	237	
1	0	0	0	0	521	518	262	237	
2	0	0	0	0	546	535	262	237	
3	0	0	0	0	553	519	262	236	
4	0	0	0	0	549	514	262	237	
5	0	0	0	0	543	507	262	237	
6	0	0	0	0	531	512	262	236	
7	0	0	0	0	504	523	262	238	
8	0	0	0	0	465	507	262	237	
9	0	0	0	0	435	497	262	237	
10	0	0	0	0	440	499	261	238	
11	0	0	0	0	480	503	262	238	
12	0	0	0	0	510	502	262	237	
13	0	0	0	0	524	502	262	240	
14	0	0	0	0	541	514	263	240	
15	0	0	0	0	551	518	263	238	
0	0	0	0	0	541	511	263	238	
1	0	0	0	0	540	508	264	239	
2	0	0	0	0	541	508	264	240	
3	0	0	0	0	519	502	264	239	
4	0	0	0	0	505	503	264	239	
5	0	0	0	0	489	504	265	241	
6	0	0	0	0	481	504	264	240	
7	0	0	0	0	487	504	264	240	
8	0	0	0	0	499	505	264	239	
9	0	0	0	0	497	505	264	240	
10	0	0	0	0	479	505	264	240	
11	0	0	0	0	492	508	264	239	
12	0	0	0	0	520	507	264	241	
13	0	0	0	0	533	510	263	241	
14	0	0	0	0	539	512	263	243	
15	0	0	0	0	541	509	263	242	
0	0	0	0	0	543	505	263	243	
1	0	0	0	0	541	509	264	241	
2	0	0	0	0	534	511	263	245	
3	0	0	0	0	513	499	263	244	
4	0	0	0	0	491	510	262	240	
5	0	0	0	0	492	544	262	240	
6	0	0	0	0	489	541	262	239	
7	0	0	0	0	479	505	262	236	
8	0	0	0	0	484	491	262	236	
9	0	0	0	0	495	495	262	232	
10	0	0	0	0	519	502	262	232	
11	0	0	0	0	521	507	261	232	
12	0	0	0	0	511	519	261	232	
13	0	0	0	0	503	503	261	231	
14	0	0	0	0	508	491	260	229	
15	0	0	0	0	512	482	259	228	
0	0	0	0	0	518	505	259	227	
1	0	0	0	0	519	513	257	228	
2	0	0	0	0	529	518	256	228	
3	0	0	0	0	532	529	256	227	
4	0	0	0	0	516	522	256	227	
5	0	0	0	0	510	504	255	228	
6	0	0	0	0	513	502	255	228	
7	0	0	0	0	510	498	255	228	
8	0	0	0	0	516	498	255	229	
9	0	0	0	0	515	504	256	230	
10	0	0	0	0	507	513	257	231	
11	0	0	0	0	512	519	257	231	
12	0	0	0	0	519	510	258	232	
13	0	0	0	0	508	487	257	232	
14	0	0	0	0	488	490	258	232	
15	0	0	0	0	475	505	259	233	
0	0	0	0	0	475	510	259	235	
1	0	0	0	0	491	510	259	236	
2	0	0	0	0	510	510	259	237	
3	0	0	0	0	522	512	259	237	
4	0	0	0	0	526	512	260	235	
5	0	0	0	0	525	512	261	236	
6	0	0	0	0	529	509	262	236	
7	0	0	0	0	538	511	262	236	
8	0	0	0	0	530	509	263	238	
9	0	0	0	0	527	513	263	237	
10	0	0	0	0	532	515	263	239	
11	0	0	0	0	527	512	263	239	
12	0	0	0	0	525	503	263	237	
13	0	0	0	0	513	502	263	238	
14	0	0	0	0	504	505	263	239	
15	0	0	0	0	496	510	263	239	
0	0	0	0	0	496	499	264	240	
1	0	0	0	0	488	496	264	241	
2	0	0	0	0	478	506	264	241	
3	0	0	0	0	465	508	264	241	
4	0	0	0	0	468	498	265	243	
5	0	0	0	0	485	502	265	244	
6	0	0	0	0	499	500	265	243	
7	0	0	0	0	519	520	265	243	
8	0	0	0	0	522	536	265	242	
9	0	0	0	0	523	558	266	242	
10	0	0	0	0	529	547	265	242	
11	0	0	0	0	534	520	265	242	
12	0	0	0	0	535	500	265	243	
13	0	0	0	0	529	498	265	243	
14	0	0	0	0	529	493	265	243	
15	0	0	0	0	521	483	265	244	
0	0	0	0	0	511	486	265	243	
1	0	0	0	0	503	496	265	243	
2	0	0	0	0	511	503	265	243	
3	0	0	0	0	519	508	265	244	
4	0	0	0	0	524	510	266	244	
5	0	0	0	0	526	507	267	244	
6	0	0	0	0	522	509	266	244	
7	0	0	0	0	512	504	267	244	
8	0	0	0	0	491	501	268	243	
9	0	0	0	0	471	507	267	243	
10	0	0	0	0	449	506	268	243	
11	0	0	0	0	464	508	267	243	
12	0	0	0	0	493	509	267	243	
13	0	0	0	0	517	517	267	244	
14	0	0	0	0	538	528	267	244	
15	0	0	0	0	544	520	266	243	
0	0	0	0	0	544	497	266	244	
1	0	0	0	0	540	492	266	243	
2	0	0	0	0	532	502	267	243	
3	0	0	0	0	527	508	267	244	
4	0	0	0	0	514	512	267	244	
5	0	0	0	0	503	510	267	244	
6	0	0	0	0	493	511	268	245	
7	0	0	0	0	502	511	268	245	
8	0	0	0	0	504	508	268	245	
9	0	0	0	0	501	507	268	245	
10	0	0	0	0	495	506	268	245	
11	0	0	0	0	492	507	268	246	
12	0	0	0	0	506	506	265	244	
13	0	0	0	0	515	507	266	246	
14	0	0	0	0	513	507	265	245	
15	0	0	0	0	509	509	265	246	
0	0	0	0	0	527	510	266	246	
1	0	0	0	0	549	512	265	246	
2	0	0	0	0	529	508	266	245	
3	0	0	0	0	532	508	266	245	
4	0	0	0	0	539	510	266	245	
5	0	0	0	0	540	508	266	244	
6	0	0	0	0	531	507	266	243	
7	0	0	0	0	513	506	267	242	
8	0	0	0	0	491	507	266	243	
9	0	0	0	0	478	508	267	242	
10	0	0	0	0	485	509	266	243	
11	0	0	0	0	489	507	268	243	
12	0	0	0	0	482	508	266	243	
13	0	0	0	0	476	507	266	243	
14	0	0	0	0	490	509	266	243	
15	0	0	0	0	508	512	267	243	
0	0	0	0	0	519	512	267	243	
1	0	0	0	0	524	508	266	243	
2	0	0	0	0	522	504	267	243	
3	0	0	0	0	516	504	266	244	
4	0	0	0	0	503	502	267	244	
5	0	0	0	0	495	497	264	244	
6	0	0	0	0	497	500	265	244	
7	0	0	0	0	510	510	265	244	
8	0	0	0	0	518	513	264	244	
9	0	0	0	0	523	518	264	245	
10	0	0	0	0	534	535	265	244	
11	0	0	0	0	531	524	265	245	
12	0	0	0	0	528	507	265	245	
13	0	0	0	0	522	501	265	245	
14	0	0	0	0	531	504	266	246	
15	0	0	0	0	535	505	266	246	
0	0	0	0	0	526	501	266	245	
1	0	0	0	0	518	501	267	245	
2	0	0	0	0	518	503	267	246	
3	0	0	0	0	519	502	267	247	
4	0	0	0	0	506	505	267	246	
5	0	0	0	0	489	513	267	245	
6	0	0	0	0	469	516	267	246	
7	0	0	0	0	471	513	267	246	
8	0	0	0	0	496	502	267	246	
9	0	0	0	0	520	498	268	247	
10	0	0	0	0	519	495	267	247	
11	0	0	0	0	519	496	267	247	
12	0	0	0	0	524	494	267	247	
13	0	0	0	0	516	501	268	248	
14	0	0	0	0	503	511	268	247	
15	0	0	0	0	492	532	268	248	
0	0	0	0	0	491	546	268	248	
1	0	0	0	0	501	537	268	248	
2	0	0	0	0	520	518	268	247	
3	0	0	0	0	526	512	268	247	
4	0	0	0	0	524	500	268	247	
5	0	0	0	0	527	495	268	247	
6	0	0	0	0	520	499	268	246	
7	0	0	0	0	526	500	268	248	
8	0	0	0	0	523	499	268	247	
9	0	0	0	0	513	499	268	248	
10	0	0	0	0	509	506	269	247	
11	0	0	0	0	511	515	268	247	
12	0	0	0	0	519	516	268	246	
13	0	0	0	0	524	524	268	247	
14	0	0	0	0	517	523	269	248	
15	0	0	0	0	509	509	269	246	
0	0	0	0	0	514	491	269	247	
1	0	0	0	0	508	497	269	247	
2	0	0	0	0	490	501	269	247	
3	0	0	0	0	466	498	269	247	
4	0	0	0	0	457	504	270	247	
5	0	0	0	0	485	515	269	246	
6	0	0	0	0	507	512	270	247	
7	0	0	0	0	525	512	269	246	
8	0	0	0	0	530	511	270	246	
9	0	0	0	0	527	507	269	247	
10	0	0	0	0	521	507	270	246	
11	0	0	0	0	518	508	270	247	
12	0	0	0	0	507	504	270	246	
13	0	0	0	0	527	512	270	246	
14	0	0	0	0	535	512	270	246	
15	0	0	0	0	530	508	270	246	
0	0	0	0	0	528	507	270	246	
1	0	0	0	0	525	507	270	246	
2	0	0	0	0	519	511	270	246	
3	0	0	0	0	512	510	270	245	
4	0	0	0	0	506	510	270	246	
5	0	0	0	0	484	505	269	245	
6	0	0	0	0	481	503	270	244	
7	0	0	0	0	496	505	269	244	
8	0	0	0	0	508	500	270	245	
9	0	0	0	0	521	502	269	245	
10	0	0	0	0	524	505	269	246	
11	0	0	0	0	520	505	269	244	
12	0	0	0	0	510	504	269	244	
13	0	0	0	0	495	510	269	245	
14	0	0	0	0	482	518	269	245	
15	0	0	0	0	478	512	269	245	
0	0	0	0	0	499	501	270	245	
1	0	0	0	0	518	504	269	245	
2	0	0	0	0	526	522	270	244	
3	0	0	0	0	531	536	271	244	
4	0	0	0	0	543	526	271	244	
5	0	0	0	0	536	509	270	244	
6	0	0	0	0	527	508	270	244	
7	0	0	0	0	523	507	270	245	
8	0	0	0	0	517	497	270	245	
9	0	0	0	0	502	493	270	246	
10	0	0	0	0	489	494	270	246	
11	0	0	0	0	481	499	271	246	
12	0	0	0	0	486	506	271	246	
13	0	0	0	0	502	515	270	246	
14	0	0	0	0	519	518	270	245	
15	0	0	0	0	516	513	271	245	
0	0	0	0	0	518	509	271	245	
1	0	0	0	0	523	505	270	245	
2	0	0	0	0	517	503	271	245	
3	0	0	0	0	500	497	271	245	
4	0	0	0	0	494	506	271	246	
5	0	0	0	0	493	513	272	245	
6	0	0	0	0	500	497	272	246	
7	0	0	0	0	502	495	272	244	
8	0	0	0	0	516	511	271	244	
9	0	0	0	0	519	524	271	244	
10	0	0	0	0	519	533	271	244	
11	0	0	0	0	517	516	271	244	
12	0	0	0	0	515	502	272	246	
13	0	0	0	0	532	502	271	246	
14	0	0	0	0	533	503	271	246	
15	0	0	0	0	527	500	272	246	
0	0	0	0	0	519	504	272	246	
1	0	0	0	0	516	509	272	247	
2	0	0	0	0	522	510	272	247	
3	0	0	0	0	531	510	272	248	
4	0	0	0	0	527	510	272	247	
5	0	0	0	0	524	507	272	247	
6	0	0	0	0	504	503	271	246	
7	0	0	0	0	499	504	272	247	
8	0	0	0	0	498	507	271	246	
9	0	0	0	0	498	507	271	248	
10	0	0	0	0	491	505	271	247	
11	0	0	0	0	471	505	272	247	
12	0	0	0	0	459	509	272	248	
13	0	0	0	0	464	519	272	248	
14	0	0	0	0	481	515	272	247	
15	0	0	0	0	505	513	273	247	
0	0	0	0	0	529	511	274	247	
1	0	0	0	0	545	503	274	247	
2	0	0	0	0	545	498	274	247	
3	0	0	0	0	536	498	274	247	
4	0	0	0	0	526	502	275	247	
5	0	0	0	0	516	505	273	247	
6	0	0	0	0	504	505	273	247	
7	0	0	0	0	505	512	273	247	
8	0	0	0	0	502	511	273	247	
9	0	0	0	0	498	509	273	247	
10	0	0	0	0	496	508	273	248	
11	0	0	0	0	506	508	274	248	
12	0	0	0	0	516	510	273	248	
13	0	0	0	0	521	508	274	247	
14	0	0	0	0	525	510	274	248	
15	0	0	0	0	529	508	274	247	
0	0	0	0	0	531	507	275	247	
1	0	0	0	0	526	507	275	247	
2	0	0	0	0	518	510	275	247	
3	0	0	0	0	511	507	275	247	
4	0	0	0	0	504	504	275	247	
5	0	0	0	0	497	503	274	248	
6	0	0	0	0	488	513	275	248	
7	0	0	0	0	500	512	274	248	
8	0	0	0	0	518	515	274	248	
9	0	0	0	0	521	510	274	248	
10	0	0	0	0	521	502	274	247	
11	0	0	0	0	514	503	274	247	
12	0	0	0	0	517	505	274	246	
13	0	0	0	0	521	513	275	247	
14	0	0	0	0	532	513	274	247	
15	0	0	0	0	534	515	274	247	
0	0	0	0	0	527	518	274	247	
1	0	0	0	0	516	506	274	247	
2	0	0	0	0	498	501	275	247	
3	0	0	0	0	487	506	274	246	
4	0	0	0	0	483	497	275	247	
5	0	0	0	0	474	504	274	247	
6	0	0	0	0	472	509	275	247	
7	0	0	0	0	489	535	275	247	
8	0	0	0	0	502	516	275	247	
9	0	0	0	0	514	519	274	247	
10	0	0	0	0	519	513	274	247	
11	0	0	0	0	527	509	274	247	
12	0	0	0	0	523	510	275	248	
13	0	0	0	0	517	511	276	248	
14	0	0	0	0	515	504	277	248	
15	0	0	0	0	521	492	275	248	
0	0	0	0	0	515	485	276	248	
1	0	0	0	0	509	487	276	248	
2	0	0	0	0	508	500	277	248	
3	0	0	0	0	497	499	276	248	
4	0	0	0	0	492	505	276	248	
5	0	0	0	0	508	527	277	247	
6	0	0	0	0	513	524	276	248	
7	0	0	0	0	514	514	277	247	
8	0	0	0	0	523	511	277	248	
9	0	0	0	0	533	516	276	248	
10	0	0	0	0	527	518	277	247	
11	0	0	0	0	527	507	278	248	
12	0	0	0	0	531	505	277	247	
13	0	0	0	0	530	508	277	248	
14	0	0	0	0	528	508	276	248	
15	0	0	0	0	531	510	276	248	
0	0	0	0	0	519	507	276	248	
1	0	0	0	0	505	505	276	248	
2	0	0	0	0	492	506	277	250	
3	0	0	0	0	490	509	276	248	
4	0	0	0	0	495	512	276	249	
5	0	0	0	0	492	509	276	248	
6	0	0	0	0	487	499	276	249	
7	0	0	0	0	491	487	276	250	
8	0	0	0	0	504	502	275	250	
9	0	0	0	0	499	508	275	250	
10	0	0	0	0	490	508	275	249	
11	0	0	0	0	498	508	275	251	
12	0	0	0	0	507	510	275	249	
13	0	0	0	0	519	511	274	249	
14	0	0	0	0	530	513	275	251	
15	0	0	0	0	532	507	275	249	
0	0	0	0	0	527	513	275	250	
1	0	0	0	0	524	516	275	249	
2	0	0	0	0	535	507	275	249	
3	0	0	0	0	533	503	276	248	
4	0	0	0	0	521	507	275	247	
5	0	0	0	0	518	511	276	247	
6	0	0	0	0	505	508	276	247	
7	0	0	0	0	507	507	276	247	
8	0	0	0	0	504	508	275	246	
9	0	0	0	0	488	509	276	246	
10	0	0	0	0	479	505	276	246	
11	0	0	0	0	489	506	276	245	
12	0	0	0	0	499	505	276	246	
13	0	0	0	0	515	508	277	246	
14	0	0	0	0	519	509	276	246	
15	0	0	0	0	523	501	277	246	
0	0	0	0	0	525	504	276	246	
1	0	0	0	0	524	506	276	247	
2	0	0	0	0	524	503	277	248	
3	0	0	0	0	519	501	276	247	
4	0	0	0	0	517	505	276	248	
5	0	0	0	0	519	515	277	247	
6	0	0	0	0	515	520	277	247	
7	0	0	0	0	512	509	276	247	
8	0	0	0	0	508	515	276	247	
9	0	0	0	0	503	530	277	245	
10	0	0	0	0	504	515	277	244	
11	0	0	0	0	508	504	276	245	
12	0	0	0	0	511	504	276	246	
13	0	0	0	0	504	504	277	244	
14	0	0	0	0	502	501	277	244	
15	0	0	0	0	502	502	277	244	
0	0	0	0	0	505	500	277	243	
1	0	0	0	0	512	505	276	241	
2	0	0	0	0	515	506	277	240	
3	0	0	0	0	515	510	277	240	
4	0	0	0	0	508	508	276	239	
5	0	0	0	0	505	508	276	237	
6	0	0	0	0	496	510	277	236	
7	0	0	0	0	493	508	276	235	
8	0	0	0	0	497	502	276	235	
9	0	0	0	0	505	505	276	232	
10	0	0	0	0	510	502	276	233	
11	0	0	0	0	521	508	277	231	
12	0	0	0	0	526	511	276	229	
13	0	0	0	0	528	519	277	228	
14	0	0	0	0	536	520	276	228	
15	0	0	0	0	532	518	276	229	
0	0	0	0	0	520	505	275	229	
1	0	0	0	0	516	504	275	223	
2	0	0	0	0	504	508	275	226	
3	0	0	0	0	501	506	276	224	
4	0	0	0	0	499	509	276	223	
5	0	0	0	0	492	503	275	213	
6	0	0	0	0	479	502	275	213	
7	0	0	0	0	489	503	275	213	
8	0	0	0	0	508	501	275	212	
9	0	0	0	0	522	508	275	214	
10	0	0	0	0	536	518	275	213	
11	0	0	0	0	538	520	275	214	
12	0	0	0	0	536	510	275	213	
13	0	0	0	0	531	504	274	213	
14	0	0	0	0	532	509	275	212	
15	0	0	0	0	520	513	275	212	
0	0	0	0	0	502	511	275	213	
1	0	0	0	0	505	508	274	212	
2	0	0	0	0	490	505	275	212	
3	0	0	0	0	482	505	275	213	
4	0	0	0	0	486	507	275	212	
5	0	0	0	0	486	507	273	212	
6	0	0	0	0	491	511	273	212	
7	0	0	0	0	499	508	273	212	
8	0	0	0	0	518	507	273	211	
9	0	0	0	0	527	505	273	211	
10	0	0	0	0	527	505	273	210	
11	0	0	0	0	529	507	274	210	
12	0	0	0	0	527	519	274	210	
13	0	0	0	0	524	514	274	211	
14	0	0	0	0	518	502	274	209	
15	0	0	0	0	515	491	274	207	
0	0	0	0	0	513	497	274	207	
1	0	0	0	0	504	505	274	207	
2	0	0	0	0	500	511	274	207	
3	0	0	0	0	504	508	275	207	
4	0	0	0	0	511	511	274	207	
5	0	0	0	0	516	508	274	207	
6	0	0	0	0	529	499	274	207	
7	0	0	0	0	536	514	274	207	
8	0	0	0	0	534	515	275	207	
9	0	0	0	0	529	511	275	208	
10	0	0	0	0	515	498	274	209	
11	0	0	0	0	499	514	274	209	
12	0	0	0	0	490	515	274	208	
13	0	0	0	0	487	505	275	208	
14	0	0	0	0	480	500	274	207	
15	0	0	0	0	479	503	275	207	
0	0	0	0	0	486	507	275	207	
1	0	0	0	0	508	505	275	207	
2	0	0	0	0	516	510	275	207	
3	0	0	0	0	537	517	275	207	
4	0	0	0	0	543	519	275	207	
5	0	0	0	0	527	518	275	207	
6	0	0	0	0	516	511	275	207	
7	0	0	0	0	513	509	275	207	
8	0	0	0	0	505	503	275	207	
9	0	0	0	0	498	502	275	206	
10	0	0	0	0	496	510	275	207	
11	0	0	0	0	475	508	274	206	
12	0	0	0	0	488	509	274	206	
13	0	0	0	0	514	507	274	205	
14	0	0	0	0	515	508	274	206	
15	0	0	0	0	512	511	275	205	
0	0	0	0	0	508	508	275	204	
1	0	0	0	0	510	508	275	203	
2	0	0	0	0	515	507	275	202	
3	0	0	0	0	520	494	276	203	
4	0	0	0	0	519	502	275	200	
5	0	0	0	0	514	522	275	200	
6	0	0	0	0	516	513	276	200	
7	0	0	0	0	518	509	275	199	
8	0	0	0	0	523	509	276	197	
9	0	0	0	0	523	508	275	196	
10	0	0	0	0	522	507	275	196	
11	0	0	0	0	518	508	275	195	
12	0	0	0	0	517	506	275	194	
13	0	0	0	0	515	507	275	195	
14	0	0	0	0	519	509	276	194	
15	0	0	0	0	514	508	276	193	
0	0	0	0	0	513	506	275	192	
1	0	0	0	0	517	504	276	190	
2	0	0	0	0	512	504	276	190	
3	0	0	0	0	508	508	276	190	
4	0	0	0	0	504	509	275	193	
5	0	0	0	0	506	509	276	192	
6	0	0	0	0	509	508	276	194	
7	0	0	0	0	510	508	276	191	
8	0	0	0	0	509	510	277	191	
9	0	0	0	0	516	507	276	189	
10	0	0	0	0	534	499	276	189	
11	0	0	0	0	541	505	276	190	
12	0	0	0	0	540	508	276	188	
13	0	0	0	0	536	512	276	187	
14	0	0	0	0	528	510	276	189	
15	0	0	0	0	516	515	276	187	
0	0	0	0	0	480	504	276	188	
1	0	0	0	0	451	494	277	182	
2	0	0	0	0	430	499	276	184	
3	0	0	0	0	427	507	277	184	
4	0	0	0	0	460	515	276	184	
5	0	0	0	0	496	516	276	181	
6	0	0	0	0	514	510	276	181	
7	0	0	0	0	529	503	276	181	
8	0	0	0	0	537	507	276	181	
9	0	0	0	0	536	496	276	181	
10	0	0	0	0	534	529	276	181	
11	0	0	0	0	532	519	276	181	
12	0	0	0	0	530	511	276	181	
13	0	0	0	0	524	508	275	183	
14	0	0	0	0	516	508	276	184	
15	0	0	0	0	515	522	276	186	
0	0	0	0	0	513	512	276	186	
1	0	0	0	0	521	500	276	185	
2	0	0	0	0	518	504	276	184	
3	0	0	0	0	521	501	277	185	
4	0	0	0	0	525	504	277	185	
5	0	0	0	0	518	508	277	183	
6	0	0	0	0	512	509	277	183	
7	0	0	0	0	516	505	277	185	
8	0	0	0	0	511	506	277	183	
9	0	0	0	0	500	505	277	186	
10	0	0	0	0	497	508	277	185	
11	0	0	0	0	503	504	276	185	
12	0	0	0	0	506	503	277	181	
13	0	0	0	0	512	499	277	182	
14	0	0	0	0	512	492	277	180	
15	0	0	0	0	515	499	277	181	
0	0	0	0	0	519	509	278	182	
1	0	0	0	0	522	522	278	181	
2	0	0	0	0	523	528	278	182	
3	0	0	0	0	525	523	279	178	
4	0	0	0	0	529	509	278	180	
5	0	0	0	0	528	500	279	181	
6	0	0	0	0	516	498	279	183	
7	0	0	0	0	508	511	278	186	
8	0	0	0	0	504	513	279	185	
9	0	0	0	0	508	517	278	183	
10	0	0	0	0	508	518	278	181	
11	0	0	0	0	496	512	279	177	
12	0	0	0	0	478	503	279	175	
13	0	0	0	0	481	504	280	178	
14	0	0	0	0	494	503	279	178	
15	0	0	0	0	494	503	280	182	
0	0	0	0	0	502	500	280	188	
1	0	0	0	0	506	499	281	184	
2	0	0	0	0	512	502	281	184	
3	0	0	0	0	517	503	281	177	
4	0	0	0	0	525	508	281	189	
5	0	0	0	0	524	511	282	185	
6	0	0	0	0	519	512	283	181	
7	0	0	0	0	516	513	284	176	
8	0	0	0	0	506	511	285	182	
9	0	0	0	0	501	511	285	187	
10	0	0	0	0	509	511	286	185	
11	0	0	0	0	515	507	285	183	
12	0	0	0	0	522	509	284	184	
13	0	0	0	0	521	511	285	184	
14	0	0	0	0	516	509	285	190	
15	0	0	0	0	511	508	285	189	
0	0	0	0	0	507	508	285	182	
1	0	0	0	0	511	507	285	188	
2	0	0	0	0	513	500	285	189	
3	0	0	0	0	517	500	285	188	
4	0	0	0	0	513	503	284	190	
5	0	0	0	0	509	505	283	194	
6	0	0	0	0	506	506	284	194	
7	0	0	0	0	501	505	284	195	
8	0	0	0	0	510	511	284	194	
9	0	0	0	0	518	512	282	193	
10	0	0	0	0	522	509	282	197	
11	0	0	0	0	524	510	283	194	
12	0	0	0	0	515	517	282	194	
13	0	0	0	0	514	518	283	195	
14	0	0	0	0	520	508	283	194	
15	0	0	0	0	525	514	283	190	
0	0	0	0	0	520	517	283	189	
1	0	0	0	0	518	510	283	195	
2	0	0	0	0	515	491	283	196	
3	0	0	0	0	510	499	283	199	
4	0	0	0	0	504	505	284	204	
5	0	0	0	0	498	505	284	201	
6	0	0	0	0	482	504	285	199	
7	0	0	0	0	474	507	285	196	
8	0	0	0	0	470	507	285	193	
9	0	0	0	0	480	512	286	195	
10	0	0	0	0	503	515	286	196	
11	0	0	0	0	520	511	286	195	
12	0	0	0	0	520	509	284	198	
13	0	0	0	0	518	509	283	201	
14	0	0	0	0	516	503	284	200	
15	0	0	0	0	514	504	284	201	
0	0	0	0	0	506	507	284	201	
1	0	0	0	0	509	508	285	199	
2	0	0	0	0	521	507	286	203	
3	0	0	0	0	537	515	286	204	
4	0	0	0	0	533	519	287	201	
5	0	0	0	0	521	515	285	203	
6	0	0	0	0	515	504	286	201	
7	0	0	0	0	514	503	286	204	
8	0	0	0	0	512	506	286	206	
9	0	0	0	0	512	502	287	206	
10	0	0	0	0	509	502	286	207	
11	0	0	0	0	508	505	287	206	
12	0	0	0	0	510	498	287	204	
13	0	0	0	0	510	505	286	199	
14	0	0	0	0	511	515	286	199	
15	0	0	0	0	507	523	286	198	
0	0	0	0	0	510	521	286	197	
1	0	0	0	0	514	513	288	197	
2	0	0	0	0	517	505	287	204	
3	0	0	0	0	519	510	287	207	
4	0	0	0	0	516	507	287	206	
5	0	0	0	0	514	503	288	208	
6	0	0	0	0	511	503	288	206	
7	0	0	0	0	517	512	289	207	
8	0	0	0	0	519	511	290	207	
9	0	0	0	0	533	500	289	204	
10	0	0	0	0	540	495	288	206	
11	0	0	0	0	534	503	289	204	
12	0	0	0	0	521	516	289	205	
13	0	0	0	0	513	522	289	207	
14	0	0	0	0	502	516	290	209	
15	0	0	0	0	484	506	290	208	
0	0	0	0	0	466	493	290	206	
1	0	0	0	0	453	502	289	207	
2	0	0	0	0	468	505	289	209	
3	0	0	0	0	495	492	290	209	
4	0	0	0	0	505	485	290	209	
5	0	0	0	0	508	514	289	209	
6	0	0	0	0	502	518	290	207	
7	0	0	0	0	503	496	290	209	
8	0	0	0	0	517	483	290	210	
9	0	0	0	0	532	513	290	210	
10	0	0	0	0	548	535	290	211	
11	0	0	0	0	547	552	291	212	
12	0	0	0	0	537	544	292	211	
13	0	0	0	0	535	519	292	210	
14	0	0	0	0	529	504	292	211	
15	0	0	0	0	513	499	291	211	
0	0	0	0	0	496	510	291	211	
1	0	0	0	0	487	502	290	211	
2	0	0	0	0	482	495	291	210	
3	0	0	0	0	487	497	290	208	
4	0	0	0	0	497	496	291	208	
5	0	0	0	0	502	500	291	206	
6	0	0	0	0	507	507	291	207	
7	0	0	0	0	518	515	291	206	
8	0	0	0	0	524	504	291	205	
9	0	0	0	0	527	489	291	207	
10	0	0	0	0	523	494	291	207	
11	0	0	0	0	520	519	291	207	
12	0	0	0	0	522	517	293	210	
13	0	0	0	0	516	514	292	211	
14	0	0	0	0	505	512	291	208	
15	0	0	0	0	508	511	292	209	
0	0	0	0	0	514	510	292	211	
1	0	0	0	0	515	509	292	209	
2	0	0	0	0	516	515	292	208	
3	0	0	0	0	500	510	292	207	
4	0	0	0	0	490	504	292	208	
5	0	0	0	0	502	505	292	209	
6	0	0	0	0	505	503	293	208	
7	0	0	0	0	499	507	292	207	
8	0	0	0	0	508	505	292	207	
9	0	0	0	0	513	504	293	208	
10	0	0	0	0	518	507	294	205	
11	0	0	0	0	522	508	294	207	
12	0	0	0	0	527	508	293	207	
13	0	0	0	0	519	509	293	210	
14	0	0	0	0	520	508	292	204	
15	0	0	0	0	520	511	293	204	
0	0	0	0	0	516	508	293	206	
1	0	0	0	0	511	505	293	205	
2	0	0	0	0	507	511	294	205	
3	0	0	0	0	504	511	293	206	
4	0	0	0	0	508	513	293	204	
5	0	0	0	0	525	510	294	204	
6	0	0	0	0	524	501	292	206	
7	0	0	0	0	515	505	292	205	
8	0	0	0	0	509	510	292	202	
9	0	0	0	0	512	514	293	201	
10	0	0	0	0	512	506	293	199	
11	0	0	0	0	499	504	293	201	
12	0	0	0	0	480	507	293	199	
13	0	0	0	0	460	507	293	198	
14	0	0	0	0	467	507	294	198	
15	0	0	0	0	483	510	295	199	
0	0	0	0	0	500	509	294	199	
1	0	0	0	0	514	506	293	199	
2	0	0	0	0	528	506	293	199	
3	0	0	0	0	531	508	292	199	
4	0	0	0	0	536	508	293	200	
5	0	0	0	0	539	507	293	204	
6	0	0	0	0	531	509	292	200	
7	0	0	0	0	529	509	293	201	
8	0	0	0	0	532	511	294	201	
9	0	0	0	0	533	515	294	203	
10	0	0	0	0	526	509	294	177	
11	0	0	0	0	521	508	293	176	
12	0	0	0	0	515	510	294	174	
13	0	0	0	0	503	507	294	176	
14	0	0	0	0	491	506	293	176	
15	0	0	0	0	479	507	294	178	
0	0	0	0	0	465	506	295	179	
1	0	0	0	0	468	504	295	183	
2	0	0	0	0	489	503	294	182	
3	0	0	0	0	509	508	295	183	
4	0	0	0	0	515	507	295	183	
5	0	0	0	0	522	502	295	180	
6	0	0	0	0	528	515	295	184	
7	0	0	0	0	531	523	295	182	
8	0	0	0	0	529	512	295	188	
9	0	0	0	0	524	506	294	182	
10	0	0	0	0	520	507	295	182	
11	0	0	0	0	511	508	295	184	
12	0	0	0	0	512	511	294	185	
13	0	0	0	0	517	508	294	185	
14	0	0	0	0	518	505	294	183	
15	0	0	0	0	508	503	294	183	
0	0	0	0	0	497	498	294	183	
1	0	0	0	0	499	504	294	186	
2	0	0	0	0	503	502	295	188	
3	0	0	0	0	504	505	295	188	
4	0	0	0	0	502	509	295	188	
5	0	0	0	0	505	514	294	189	
6	0	0	0	0	520	520	295	191	
7	0	0	0	0	526	518	293	192	
8	0	0	0	0	524	505	292	190	
9	0	0	0	0	511	499	293	184	
10	0	0	0	0	503	496	293	187	
11	0	0	0	0	510	503	293	186	
12	0	0	0	0	508	517	292	188	
13	0	0	0	0	504	518	293	189	
14	0	0	0	0	497	516	292	184	
15	0	0	0	0	492	505	293	185	
0	0	0	0	0	504	508	292	183	
1	0	0	0	0	519	511	293	184	
2	0	0	0	0	523	499	292	187	
3	0	0	0	0	525	497	294	187	
4	0	0	0	0	528	506	295	185	
5	0	0	0	0	523	501	294	187	
6	0	0	0	0	524	495	295	188	
7	0	0	0	0	519	496	295	190	
8	0	0	0	0	508	505	295	192	
9	0	0	0	0	507	508	296	194	
10	0	0	0	0	514	525	296	192	
11	0	0	0	0	513	533	296	194	
12	0	0	0	0	516	536	296	199	
13	0	0	0	0	511	512	296	196	
14	0	0	0	0	499	490	296	196	
15	0	0	0	0	495	492	297	203	
0	0	0	0	0	506	501	298	200	
1	0	0	0	0	508	512	297	199	
2	0	0	0	0	507	517	297	199	
3	0	0	0	0	509	518	296	198	
4	0	0	0	0	505	514	296	195	
5	0	0	0	0	503	515	296	195	
6	0	0	0	0	504	510	295	202	
7	0	0	0	0	513	499	295	204	
8	0	0	0	0	517	500	295	203	
9	0	0	0	0	522	501	295	203	
10	0	0	0	0	519	502	295	200	
11	0	0	0	0	514	504	294	199	
12	0	0	0	0	510	511	295	198	
13	0	0	0	0	511	515	295	199	
14	0	0	0	0	513	509	295	194	
15	0	0	0	0	521	496	297	199	
0	0	0	0	0	517	496	299	200	
1	0	0	0	0	523	500	300	199	
2	0	0	0	0	518	506	302	202	
3	0	0	0	0	512	512	302	198	
4	0	0	0	0	510	512	303	198	
5	0	0	0	0	504	512	303	200	
6	0	0	0	0	500	513	302	198	
7	0	0	0	0	504	514	303	195	
8	0	0	0	0	519	515	303	193	
9	0	0	0	0	525	510	304	193	
10	0	0	0	0	529	505	304	195	
11	0	0	0	0	532	502	304	198	
12	0	0	0	0	527	512	304	197	
13	0	0	0	0	519	535	304	200	
14	0	0	0	0	508	522	304	201	
15	0	0	0	0	491	504	304	203	
0	0	0	0	0	469	497	305	202	
1	0	0	0	0	470	494	306	202	
2	0	0	0	0	483	498	304	206	
3	0	0	0	0	499	499	305	207	
4	0	0	0	0	520	504	307	206	
5	0	0	0	0	536	509	307	206	
6	0	0	0	0	537	511	306	206	
7	0	0	0	0	532	510	308	207	
8	0	0	0	0	530	508	307	208	
9	0	0	0	0	515	513	308	209	
10	0	0	0	0	502	510	308	206	
11	0	0	0	0	499	511	309	208	
12	0	0	0	0	487	509	310	208	
13	0	0	0	0	481	510	310	207	
14	0	0	0	0	498	508	310	207	
15	0	0	0	0	515	507	311	208	
0	0	0	0	0	519	502	310	207	
1	0	0	0	0	523	505	311	205	
2	0	0	0	0	523	502	311	206	
3	0	0	0	0	517	505	312	204	
4	0	0	0	0	515	514	312	205	
5	0	0	0	0	517	519	311	205	
6	0	0	0	0	514	525	312	205	
7	0	0	0	0	512	512	312	205	
8	0	0	0	0	512	497	312	206	
9	0	0	0	0	511	486	312	207	
10	0	0	0	0	514	498	311	200	
11	0	0	0	0	513	507	311	204	
12	0	0	0	0	515	503	310	205	
13	0	0	0	0	519	506	310	209	
14	0	0	0	0	511	502	309	209	
15	0	0	0	0	511	516	310	211	
0	0	0	0	0	511	524	310	212	
1	0	0	0	0	511	521	311	209	
2	0	0	0	0	514	516	311	208	
3	0	0	0	0	517	510	311	208	
4	0	0	0	0	516	510	311	210	
5	0	0	0	0	515	510	311	209	
6	0	0	0	0	511	506	312	209	
7	0	0	0	0	510	509	312	208	
8	0	0	0	0	505	506	312	207	
9	0	0	0	0	501	501	313	207	
10	0	0	0	0	492	499	312	207	
11	0	0	0	0	489	501	313	204	
12	0	0	0	0	496	505	314	204	
13	0	0	0	0	505	507	315	204	
14	0	0	0	0	514	510	315	204	
15	0	0	0	0	517	509	315	203	
0	0	0	0	0	521	505	314	203	
1	0	0	0	0	520	507	315	201	
2	0	0	0	0	520	506	315	201	
3	0	0	0	0	521	510	315	199	
4	0	0	0	0	528	511	316	198	
5	0	0	0	0	530	520	315	198	
6	0	0	0	0	533	516	315	197	
7	0	0	0	0	536	510	316	199	
8	0	0	0	0	521	503	315	200	
9	0	0	0	0	507	504	316	200	
10	0	0	0	0	492	510	316	199	
11	0	0	0	0	478	510	316	196	
12	0	0	0	0	464	507	316	199	
13	0	0	0	0	469	502	316	198	
14	0	0	0	0	469	501	316	196	
15	0	0	0	0	473	507	316	195	
0	0	0	0	0	487	510	317	196	
1	0	0	0	0	507	506	316	193	
2	0	0	0	0	521	504	316	195	
3	0	0	0	0	527	507	317	194	
4	0	0	0	0	530	507	315	193	
5	0	0	0	0	527	509	316	195	
6	0	0	0	0	525	508	316	193	
7	0	0	0	0	524	509	315	194	
8	0	0	0	0	524	511	315	193	
9	0	0	0	0	522	515	315	192	
10	0	0	0	0	521	517	314	192	
11	0	0	0	0	516	507	315	192	
12	0	0	0	0	514	502	315	193	
13	0	0	0	0	509	503	314	190	
14	0	0	0	0	504	503	315	191	
15	0	0	0	0	509	505	313	191	
0	0	0	0	0	514	512	313	189	
1	0	0	0	0	519	517	312	189	
2	0	0	0	0	520	517	312	190	
3	0	0	0	0	519	509	311	190	
4	0	0	0	0	519	504	312	190	
5	0	0	0	0	514	508	311	189	
6	0	0	0	0	509	504	312	190	
7	0	0	0	0	505	501	310	189	
8	0	0	0	0	510	501	310	189	
9	0	0	0	0	508	507	309	190	
10	0	0	0	0	510	514	308	190	
11	0	0	0	0	510	510	309	190	
12	0	0	0	0	512	507	308	191	
13	0	0	0	0	512	512	307	191	
14	0	0	0	0	510	516	307	190	
15	0	0	0	0	505	501	307	190	
0	0	0	0	0	505	501	307	191	
1	0	0	0	0	505	520	307	191	
2	0	0	0	0	510	516	307	192	
3	0	0	0	0	523	487	306	190	
4	0	0	0	0	525	492	307	192	
5	0	0	0	0	522	514	307	192	
6	0	0	0	0	528	531	306	192	
7	0	0	0	0	525	524	306	192	
8	0	0	0	0	518	515	306	193	
9	0	0	0	0	506	515	305	193	
10	0	0	0	0	490	508	305	195	
11	0	0	0	0	472	504	304	195	
12	0	0	0	0	482	497	305	195	
13	0	0	0	0	496	492	305	196	
14	0	0	0	0	492	488	305	196	
15	0	0	0	0	502	509	305	195	
0	0	0	0	0	518	511	305	196	
1	0	0	0	0	526	501	306	195	
2	0	0	0	0	525	496	306	196	
3	0	0	0	0	525	509	305	198	
4	0	0	0	0	522	517	306	196	
5	0	0	0	0	513	518	306	198	
6	0	0	0	0	508	520	306	198	
7	0	0	0	0	507	515	306	197	
8	0	0	0	0	505	505	305	198	
9	0	0	0	0	502	491	306	196	
10	0	0	0	0	492	496	305	198	
11	0	0	0	0	496	506	305	197	
12	0	0	0	0	502	516	305	197	
13	0	0	0	0	505	519	304	195	
14	0	0	0	0	512	510	304	196	
15	0	0	0	0	525	509	304	194	
0	0	0	0	0	529	513	304	196	
1	0	0	0	0	524	514	305	194	
2	0	0	0	0	522	511	304	192	
3	0	0	0	0	523	505	304	191	
4	0	0	0	0	521	505	303	191	
5	0	0	0	0	519	505	303	189	
6	0	0	0	0	516	503	302	191	
7	0	0	0	0	514	504	302	189	
8	0	0	0	0	512	505	302	189	
9	0	0	0	0	511	504	303	191	
10	0	0	0	0	509	510	303	189	
11	0	0	0	0	510	517	301	187	
12	0	0	0	0	512	513	300	186	
13	0	0	0	0	510	503	300	184	
14	0	0	0	0	507	500	299	179	
15	0	0	0	0	518	500	298	179	
0	0	0	0	0	532	515	299	178	
1	0	0	0	0	536	505	299	177	
2	0	0	0	0	530	510	298	176	
3	0	0	0	0	525	518	298	174	
4	0	0	0	0	512	508	299	174	
5	0	0	0	0	497	498	299	173	
6	0	0	0	0	480	489	299	174	
7	0	0	0	0	457	504	299	173	
8	0	0	0	0	451	507	301	176	
9	0	0	0	0	479	511	302	174	
10	0	0	0	0	506	517	299	174	
11	0	0	0	0	517	532	303	174	
12	0	0	0	0	523	526	302	174	
13	0	0	0	0	520	502	301	174	
14	0	0	0	0	518	491	303	174	
15	0	0	0	0	523	506	300	173	
0	0	0	0	0	516	513	301	172	
1	0	0	0	0	510	508	301	171	
2	0	0	0	0	516	506	299	170	
3	0	0	0	0	517	515	299	169	
4	0	0	0	0	516	511	299	170	
5	0	0	0	0	518	508	300	171	
6	0	0	0	0	523	509	300	172	
7	0	0	0	0	524	507	300	171	
8	0	0	0	0	524	500	302	171	
9	0	0	0	0	526	506	300	172	
10	0	0	0	0	520	504	301	174	
11	0	0	0	0	514	504	301	174	
12	0	0	0	0	510	510	300	175	
13	0	0	0	0	504	509	301	174	
14	0	0	0	0	498	510	299	174	
15	0	0	0	0	498	507	299	175	
0	0	0	0	0	500	507	299	174	
1	0	0	0	0	496	506	299	174	
2	0	0	0	0	501	506	299	175	
3	0	0	0	0	507	510	300	174	
4	0	0	0	0	511	515	299	173	
5	0	0	0	0	513	511	300	176	
6	0	0	0	0	510	506	301	174	
7	0	0	0	0	516	505	300	175	
8	0	0	0	0	514	506	302	174	
9	0	0	0	0	513	509	301	176	
10	0	0	0	0	515	505	303	175	
11	0	0	0	0	513	508	304	174	
12	0	0	0	0	515	507	304	175	
13	0	0	0	0	516	509	305	174	
14	0	0	0	0	520	509	306	175	
15	0	0	0	0	521	510	305	174	
0	0	0	0	0	526	508	305	172	
1	0	0	0	0	524	507	306	172	
2	0	0	0	0	518	508	307	174	
3	0	0	0	0	505	504	307	173	
4	0	0	0	0	502	507	305	174	
5	0	0	0	0	494	509	307	174	
6	0	0	0	0	490	513	306	173	
7	0	0	0	0	494	512	307	174	
8	0	0	0	0	494	511	306	172	
9	0	0	0	0	502	509	306	173	
10	0	0	0	0	507	503	306	172	
11	0	0	0	0	512	499	306	172	
12	0	0	0	0	508	494	306	173	
13	0	0	0	0	514	499	306	174	
14	0	0	0	0	512	506	307	173	
15	0	0	0	0	515	510	307	172	
0	0	0	0	0	519	515	307	174	
1	0	0	0	0	523	510	307	174	
2	0	0	0	0	524	509	307	173	
3	0	0	0	0	516	508	307	173	
4	0	0	0	0	508	508	307	173	
5	0	0	0	0	504	514	308	173	
6	0	0	0	0	503	521	309	172	
7	0	0	0	0	510	510	308	171	
8	0	0	0	0	510	498	309	171	
9	0	0	0	0	496	499	308	171	
10	0	0	0	0	497	508	309	171	
11	0	0	0	0	511	514	311	173	
12	0	0	0	0	525	507	310	173	
13	0	0	0	0	526	505	312	172	
14	0	0	0	0	517	507	310	172	
15	0	0	0	0	515	504	312	174	
0	0	0	0	0	513	507	312	174	
1	0	0	0	0	511	509	312	174	
2	0	0	0	0	515	508	312	173	
3	0	0	0	0	515	511	312	173	
4	0	0	0	0	513	511	312	173	
5	0	0	0	0	516	513	312	173	
6	0	0	0	0	520	510	313	174	
7	0	0	0	0	518	510	313	174	
8	0	0	0	0	519	509	313	174	
9	0	0	0	0	517	507	313	172	
10	0	0	0	0	519	509	313	174	
11	0	0	0	0	508	508	314	171	
12	0	0	0	0	497	507	313	173	
13	0	0	0	0	491	509	312	172	
14	0	0	0	0	497	505	312	173	
15	0	0	0	0	495	504	312	174	
0	0	0	0	0	494	508	311	173	
1	0	0	0	0	506	505	311	174	
2	0	0	0	0	508	507	311	173	
3	0	0	0	0	511	508	312	171	
4	0	0	0	0	518	506	312	173	
5	0	0	0	0	511	502	313	173	
6	0	0	0	0	511	506	313	172	
7	0	0	0	0	507	511	312	172	
8	0	0	0	0	507	511	313	173	
9	0	0	0	0	517	511	313	172	
10	0	0	0	0	514	506	313	172	
11	0	0	0	0	510	507	312	172	
12	0	0	0	0	507	510	312	172	
13	0	0	0	0	511	512	311	172	
14	0	0	0	0	511	513	311	173	
15	0	0	0	0	515	504	312	173	
0	0	0	0	0	518	504	312	174	
1	0	0	0	0	520	513	311	174	
2	0	0	0	0	523	511	311	175	
3	0	0	0	0	518	508	311	174	
4	0	0	0	0	519	506	311	174	
5	0	0	0	0	523	510	312	174	
6	0	0	0	0	523	511	311	173	
7	0	0	0	0	516	508	312	174	
8	0	0	0	0	509	506	312	173	
9	0	0	0	0	501	507	312	173	
10	0	0	0	0	496	505	312	171	
11	0	0	0	0	492	503	314	170	
12	0	0	0	0	488	503	314	172	
13	0	0	0	0	492	502	314	172	
14	0	0	0	0	502	504	314	174	
15	0	0	0	0	513	507	312	174	
0	0	0	0	0	523	513	312	176	
1	0	0	0	0	520	515	312	176	
2	0	0	0	0	520	515	311	174	
3	0	0	0	0	517	510	312	175	
4	0	0	0	0	514	526	312	175	
5	0	0	0	0	512	523	312	174	
6	0	0	0	0	512	505	311	174	
7	0	0	0	0	511	474	311	174	
8	0	0	0	0	518	481	311	174	
9	0	0	0	0	524	495	310	174	
10	0	0	0	0	524	500	310	174	
11	0	0	0	0	515	517	310	173	
12	0	0	0	0	511	535	309	173	
13	0	0	0	0	504	535	310	173	
14	0	0	0	0	507	511	310	174	
15	0	0	0	0	507	512	311	173	
0	0	0	0	0	502	512	312	173	
1	0	0	0	0	499	511	311	172	
2	0	0	0	0	505	507	311	172	
3	0	0	0	0	514	503	311	172	
4	0	0	0	0	517	501	310	174	
5	0	0	0	0	518	508	311	174	
6	0	0	0	0	519	508	310	172	
7	0	0	0	0	513	509	311	171	
8	0	0	0	0	504	504	310	170	
9	0	0	0	0	495	502	310	170	
10	0	0	0	0	494	507	311	171	
11	0	0	0	0	506	503	310	171	
12	0	0	0	0	511	496	310	171	
13	0	0	0	0	513	514	311	171	
14	0	0	0	0	511	514	311	169	
15	0	0	0	0	511	501	311	169	
0	0	0	0	0	512	501	310	168	
1	0	0	0	0	515	504	311	169	
2	0	0	0	0	515	499	312	169	
3	0	0	0	0	515	516	312	170	
4	0	0	0	0	518	524	312	169	
5	0	0	0	0	518	523	312	171	
6	0	0	0	0	521	513	312	168	
7	0	0	0	0	518	511	311	168	
8	0	0	0	0	515	509	312	169	
9	0	0	0	0	514	505	311	167	
10	0	0	0	0	512	504	311	167	
11	0	0	0	0	509	502	311	167	
12	0	0	0	0	508	508	311	167	
13	0	0	0	0	510	508	311	168	
14	0	0	0	0	508	505	311	168	
15	0	0	0	0	511	511	311	166	
0	0	0	0	0	509	507	311	165	
1	0	0	0	0	509	501	310	166	
2	0	0	0	0	508	507	310	164	
3	0	0	0	0	511	509	310	164	
4	0	0	0	0	515	510	309	165	
5	0	0	0	0	513	507	310	163	
6	0	0	0	0	511	509	310	161	
7	0	0	0	0	512	511	310	162	
8	0	0	0	0	512	510	309	161	
9	0	0	0	0	514	510	309	163	
10	0	0	0	0	511	508	310	161	
11	0	0	0	0	500	511	310	161	
12	0	0	0	0	498	512	309	162	
13	0	0	0	0	505	508	311	161	
14	0	0	0	0	516	507	311	162	
15	0	0	0	0	515	507	311	161	
0	0	0	0	0	514	508	312	163	
1	0	0	0	0	511	508	310	162	
2	0	0	0	0	512	505	311	161	
3	0	0	0	0	514	508	312	162	
4	0	0	0	0	512	510	312	161	
5	0	0	0	0	514	502	312	163	
6	0	0	0	0	521	501	312	160	
7	0	0	0	0	519	508	312	163	
8	0	0	0	0	514	504	312	162	
9	0	0	0	0	504	503	312	162	
10	0	0	0	0	496	507	312	161	
11	0	0	0	0	498	509	313	161	
12	0	0	0	0	499	508	313	160	
13	0	0	0	0	498	512	314	159	
14	0	0	0	0	501	516	314	159	
15	0	0	0	0	506	514	315	159	
0	0	0	0	0	516	510	314	159	
1	0	0	0	0	523	508	315	157	
2	0	0	0	0	524	509	314	157	
3	0	0	0	0	517	504	314	158	
4	0	0	0	0	519	506	314	158	
5	0	0	0	0	528	509	315	159	
6	0	0	0	0	533	507	315	159	
7	0	0	0	0	533	507	315	158	
8	0	0	0	0	523	503	315	157	
9	0	0	0	0	515	504	316	155	
10	0	0	0	0	510	505	316	155	
11	0	0	0	0	501	505	316	155	
12	0	0	0	0	491	507	316	155	
13	0	0	0	0	467	508	316	155	
14	0	0	0	0	457	506	315	153	
15	0	0	0	0	480	512	315	155	
0	0	0	0	0	506	506	316	156	
1	0	0	0	0	521	505	316	156	
2	0	0	0	0	532	511	316	152	
3	0	0	0	0	539	515	316	154	
4	0	0	0	0	534	508	316	152	
5	0	0	0	0	528	504	316	154	
6	0	0	0	0	526	507	316	154	
7	0	0	0	0	520	507	316	156	
8	0	0	0	0	513	506	316	153	
9	0	0	0	0	509	510	316	153	
10	0	0	0	0	504	508	316	153	
11	0	0	0	0	505	504	316	151	
12	0	0	0	0	508	507	316	155	
13	0	0	0	0	508	507	316	156	
14	0	0	0	0	511	507	316	154	
15	0	0	0	0	510	509	315	153	
0	0	0	0	0	504	509	315	153	
1	0	0	0	0	510	508	315	153	
2	0	0	0	0	515	510	316	153	
3	0	0	0	0	519	508	315	153	
4	0	0	0	0	525	508	316	152	
5	0	0	0	0	529	519	316	152	
6	0	0	0	0	522	520	316	151	
7	0	0	0	0	511	510	315	152	
8	0	0	0	0	500	491	315	153	
9	0	0	0	0	494	493	316	151	
10	0	0	0	0	495	505	316	150	
11	0	0	0	0	489	507	316	149	
12	0	0	0	0	483	510	315	149	
13	0	0	0	0	479	511	316	147	
14	0	0	0	0	488	512	315	148	
15	0	0	0	0	507	508	316	147	
0	0	0	0	0	523	511	316	148	
1	0	0	0	0	527	515	316	147	
2	0	0	0	0	529	519	315	148	
3	0	0	0	0	525	510	316	147	
4	0	0	0	0	519	506	315	147	
5	0	0	0	0	517	506	316	147	
6	0	0	0	0	516	505	316	147	
7	0	0	0	0	511	505	316	146	
8	0	0	0	0	511	505	316	144	
9	0	0	0	0	516	505	315	144	
10	0	0	0	0	515	508	315	145	
11	0	0	0	0	516	509	314	145	
12	0	0	0	0	513	510	315	145	
13	0	0	0	0	513	511	315	142	
14	0	0	0	0	513	510	314	141	
15	0	0	0	0	512	510	313	141	
0	0	0	0	0	511	511	313	140	
1	0	0	0	0	509	510	313	140	
2	0	0	0	0	510	510	313	139	
3	0	0	0	0	508	506	313	139	
4	0	0	0	0	510	504	312	139	
5	0	0	0	0	508	504	312	137	
6	0	0	0	0	508	500	312	138	
7	0	0	0	0	506	500	311	136	
8	0	0	0	0	508	507	311	136	
9	0	0	0	0	512	511	311	137	
10	0	0	0	0	510	514	310	135	
11	0	0	0	0	511	511	309	135	
12	0	0	0	0	510	508	310	136	
13	0	0	0	0	512	511	309	139	
14	0	0	0	0	513	512	309	135	
15	0	0	0	0	513	509	310	134	
0	0	0	0	0	515	509	309	134	
1	0	0	0	0	511	508	309	135	
2	0	0	0	0	511	509	309	137	
3	0	0	0	0	510	508	309	138	
4	0	0	0	0	508	508	309	135	
5	0	0	0	0	512	504	309	134	
6	0	0	0	0	511	504	308	134	
7	0	0	0	0	507	504	308	134	
8	0	0	0	0	507	512	307	134	
9	0	0	0	0	509	508	307	133	
10	0	0	0	0	507	501	307	135	
11	0	0	0	0	511	502	307	135	
12	0	0	0	0	514	507	307	134	
13	0	0	0	0	513	507	307	135	
14	0	0	0	0	514	508	307	133	
15	0	0	0	0	516	510	306	133	
0	0	0	0	0	513	510	306	134	
1	0	0	0	0	511	510	305	133	
2	0	0	0	0	513	510	304	131	
3	0	0	0	0	518	513	305	132	
4	0	0	0	0	515	511	304	130	
5	0	0	0	0	513	508	304	129	
6	0	0	0	0	516	510	304	132	
7	0	0	0	0	511	510	304	131	
8	0	0	0	0	515	510	303	125	
9	0	0	0	0	517	509	302	123	
10	0	0	0	0	515	508	303	122	
11	0	0	0	0	517	507	303	121	
12	0	0	0	0	513	505	302	120	
13	0	0	0	0	510	507	301	120	
14	0	0	0	0	506	505	302	119	
15	0	0	0	0	499	508	299	119	
0	0	0	0	0	495	506	298	118	
1	0	0	0	0	500	506	296	118	
2	0	0	0	0	511	509	295	117	
3	0	0	0	0	512	511	296	116	
4	0	0	0	0	514	507	295	114	
5	0	0	0	0	514	506	294	113	
6	0	0	0	0	508	509	294	115	
7	0	0	0	0	496	506	294	114	
8	0	0	0	0	491	507	293	114	
9	0	0	0	0	502	514	292	114	
10	0	0	0	0	509	508	293	113	
11	0	0	0	0	508	507	294	113	
12	0	0	0	0	508	515	293	112	
13	0	0	0	0	513	515	294	113	
14	0	0	0	0	517	508	291	113	
15	0	0	0	0	519	501	292	111	
0	0	0	0	0	518	504	292	112	
1	0	0	0	0	517	505	291	111	
2	0	0	0	0	519	514	289	110	
3	0	0	0	0	514	509	286	111	
4	0	0	0	0	514	506	288	110	
5	0	0	0	0	514	508	285	110	
6	0	0	0	0	515	511	284	108	
7	0	0	0	0	515	508	283	108	
8	0	0	0	0	512	506	283	107	
9	0	0	0	0	514	506	283	105	
10	0	0	0	0	510	510	284	104	
11	0	0	0	0	508	508	283	102	
12	0	0	0	0	511	509	283	100	
13	0	0	0	0	512	505	283	99	
14	0	0	0	0	508	504	281	96	
15	0	0	0	0	510	506	282	93	
0	0	0	0	0	511	511	283	92	
1	0	0	0	0	512	514	281	90	
2	0	0	0	0	511	512	281	82	
3	0	0	0	0	505	503	281	83	
4	0	0	0	0	499	507	281	79	
5	0	0	0	0	497	505	280	81	
6	0	0	0	0	511	507	280	85	
7	0	0	0	0	515	504	280	80	
8	0	0	0	0	509	507	279	78	
9	0	0	0	0	506	508	279	79	
10	0	0	0	0	510	510	279	77	
11	0	0	0	0	513	511	279	77	
12	0	0	0	0	513	508	279	75	
13	0	0	0	0	515	508	278	76	
14	0	0	0	0	516	510	278	79	
15	0	0	0	0	515	509	278	73	
0	0	0	0	0	513	508	277	79	
1	0	0	0	0	511	508	277	75	
2	0	0	0	0	513	509	278	75	
3	0	0	0	0	513	508	277	75	
4	0	0	0	0	517	509	276	72	
5	0	0	0	0	515	508	276	73	
6	0	0	0	0	508	505	276	73	
7	0	0	0	0	509	504	275	71	
8	0	0	0	0	511	503	275	70	
9	0	0	0	0	508	505	276	72	
10	0	0	0	0	512	507	275	70	
11	0	0	0	0	518	506	275	68	
12	0	0	0	0	519	507	275	67	
13	0	0	0	0	514	508	275	66	
14	0	0	0	0	511	510	275	65	
15	0	0	0	0	511	510	274	64	
0	0	0	0	0	511	510	274	67	
