# OpenSignals Text File Format. Version 1
# {"20:18:06:13:21:78": {"position": 0, "device": "bitalino_rev", "device name": "20:18:06:13:21:78", "device connection": "BTH20:18:06:13:21:78", "sampling rate": 1000, "resolution": [4, 1, 1, 1, 1, 10, 10, 10, 10], "firmware version": 1281, "comments": "", "keywords": "", "mode": 0, "sync interval": 2, "date": "2023-6-2", "time": "12:54:55.318", "channels": [1, 2, 3, 4], "sensor": ["EMGBITREV", "EMGBITREV", "RAW", "RAW"], "label": ["A1", "A2", "A3", "A4"], "column": ["nSeq", "I1", "I2", "O1", "O2", "A1", "A2", "A3", "A4"], "special": [{}, {}, {}, {}], "digital IO": [0, 0, 1, 1]}}
# EndOfHeader
0	0	0	0	0	508	509	189	0	
1	0	0	0	0	510	510	190	0	
2	0	0	0	0	514	508	190	0	
3	0	0	0	0	516	509	190	0	
4	0	0	0	0	518	508	190	0	
5	0	0	0	0	521	507	190	0	
6	0	0	0	0	517	505	191	0	
7	0	0	0	0	517	505	191	0	
8	0	0	0	0	522	503	191	0	
9	0	0	0	0	519	506	191	0	
10	0	0	0	0	517	506	190	0	
11	0	0	0	0	513	507	191	0	
12	0	0	0	0	511	507	191	0	
13	0	0	0	0	510	510	191	0	
14	0	0	0	0	506	509	191	0	
15	0	0	0	0	504	511	191	0	
0	0	0	0	0	505	513	191	0	
1	0	0	0	0	510	512	191	0	
2	0	0	0	0	510	513	191	0	
3	0	0	0	0	506	511	191	0	
4	0	0	0	0	504	510	191	0	
5	0	0	0	0	504	511	192	0	
6	0	0	0	0	506	512	191	0	
7	0	0	0	0	508	508	191	0	
8	0	0	0	0	508	507	192	0	
9	0	0	0	0	508	504	192	0	
10	0	0	0	0	508	505	192	0	
11	0	0	0	0	514	506	191	0	
12	0	0	0	0	517	504	191	0	
13	0	0	0	0	516	505	191	0	
14	0	0	0	0	517	505	190	0	
15	0	0	0	0	514	507	191	0	
0	0	0	0	0	515	507	191	0	
1	0	0	0	0	512	509	191	0	
2	0	0	0	0	513	508	192	0	
3	0	0	0	0	508	513	192	0	
4	0	0	0	0	508	513	191	0	
5	0	0	0	0	508	514	191	0	
6	0	0	0	0	504	512	191	0	
7	0	0	0	0	504	512	191	0	
8	0	0	0	0	507	508	191	0	
9	0	0	0	0	508	509	192	0	
10	0	0	0	0	513	508	192	0	
11	0	0	0	0	514	507	191	0	
12	0	0	0	0	515	508	192	0	
13	0	0	0	0	516	505	191	0	
14	0	0	0	0	517	505	192	0	
15	0	0	0	0	518	504	192	0	
0	0	0	0	0	514	504	192	0	
1	0	0	0	0	515	504	191	0	
2	0	0	0	0	516	505	192	0	
3	0	0	0	0	515	505	192	0	
4	0	0	0	0	511	506	192	0	
5	0	0	0	0	508	507	192	0	
6	0	0	0	0	506	510	192	0	
7	0	0	0	0	507	509	191	0	
8	0	0	0	0	508	510	191	0	
9	0	0	0	0	506	514	191	0	
10	0	0	0	0	506	511	191	0	
11	0	0	0	0	505	511	191	0	
12	0	0	0	0	504	511	192	0	
13	0	0	0	0	510	510	192	0	
14	0	0	0	0	511	508	191	0	
15	0	0	0	0	511	508	192	0	
0	0	0	0	0	513	506	192	0	
1	0	0	0	0	514	506	191	0	
2	0	0	0	0	519	503	192	0	
3	0	0	0	0	516	502	192	0	
4	0	0	0	0	515	503	192	0	
5	0	0	0	0	517	503	192	0	
6	0	0	0	0	515	505	191	0	
7	0	0	0	0	514	506	192	0	
8	0	0	0	0	512	507	192	0	
9	0	0	0	0	512	508	192	0	
10	0	0	0	0	509	508	192	0	
11	0	0	0	0	507	511	193	0	
12	0	0	0	0	507	511	192	0	
13	0	0	0	0	507	514	192	0	
14	0	0	0	0	502	510	193	0	
15	0	0	0	0	503	512	192	0	
0	0	0	0	0	506	513	193	0	
1	0	0	0	0	506	512	192	0	
2	0	0	0	0	510	510	193	0	
3	0	0	0	0	513	509	193	0	
4	0	0	0	0	513	507	193	0	
5	0	0	0	0	515	505	193	0	
6	0	0	0	0	516	501	193	0	
7	0	0	0	0	516	503	193	0	
8	0	0	0	0	516	503	193	0	
9	0	0	0	0	518	501	193	0	
10	0	0	0	0	515	503	193	0	
11	0	0	0	0	515	505	192	0	
12	0	0	0	0	510	508	193	0	
13	0	0	0	0	509	510	193	0	
14	0	0	0	0	510	510	193	0	
15	0	0	0	0	507	512	193	0	
0	0	0	0	0	504	513	193	0	
1	0	0	0	0	507	511	193	0	
2	0	0	0	0	503	511	194	0	
3	0	0	0	0	505	515	193	0	
4	0	0	0	0	509	513	194	0	
5	0	0	0	0	506	511	194	0	
6	0	0	0	0	511	509	194	0	
7	0	0	0	0	516	507	193	0	
8	0	0	0	0	513	503	193	0	
9	0	0	0	0	516	502	193	0	
10	0	0	0	0	519	500	193	0	
11	0	0	0	0	520	501	193	0	
12	0	0	0	0	520	500	194	0	
13	0	0	0	0	520	499	194	0	
14	0	0	0	0	516	500	194	0	
15	0	0	0	0	515	504	194	0	
0	0	0	0	0	513	506	193	0	
1	0	0	0	0	511	508	195	0	
2	0	0	0	0	507	508	194	0	
3	0	0	0	0	505	511	195	0	
4	0	0	0	0	507	514	195	0	
5	0	0	0	0	506	514	195	0	
6	0	0	0	0	507	516	195	0	
7	0	0	0	0	507	516	195	0	
8	0	0	0	0	508	513	196	0	
9	0	0	0	0	512	508	196	0	
10	0	0	0	0	511	509	195	0	
11	0	0	0	0	514	508	195	0	
12	0	0	0	0	512	505	195	0	
13	0	0	0	0	515	504	195	0	
14	0	0	0	0	516	502	195	0	
15	0	0	0	0	516	503	194	0	
0	0	0	0	0	515	500	195	0	
1	0	0	0	0	515	501	195	0	
2	0	0	0	0	515	504	195	0	
3	0	0	0	0	516	507	195	0	
4	0	0	0	0	512	512	194	0	
5	0	0	0	0	510	513	194	0	
6	0	0	0	0	508	517	195	0	
7	0	0	0	0	506	521	194	0	
8	0	0	0	0	506	524	195	0	
9	0	0	0	0	504	521	195	0	
10	0	0	0	0	502	522	195	0	
11	0	0	0	0	502	521	195	0	
12	0	0	0	0	507	519	195	0	
13	0	0	0	0	507	515	195	0	
14	0	0	0	0	508	510	195	0	
15	0	0	0	0	511	507	194	0	
0	0	0	0	0	516	504	195	0	
1	0	0	0	0	516	500	195	0	
2	0	0	0	0	518	501	195	0	
3	0	0	0	0	519	500	195	0	
4	0	0	0	0	520	497	196	0	
5	0	0	0	0	518	497	194	0	
6	0	0	0	0	516	499	194	0	
7	0	0	0	0	515	503	194	0	
8	0	0	0	0	509	508	195	0	
9	0	0	0	0	508	511	195	0	
10	0	0	0	0	508	514	196	0	
11	0	0	0	0	505	516	197	0	
12	0	0	0	0	508	518	197	0	
13	0	0	0	0	505	520	196	0	
14	0	0	0	0	505	516	196	0	
15	0	0	0	0	505	515	197	0	
0	0	0	0	0	506	515	196	0	
1	0	0	0	0	508	509	196	0	
2	0	0	0	0	511	504	195	0	
3	0	0	0	0	511	504	196	0	
4	0	0	0	0	513	498	195	0	
5	0	0	0	0	515	497	196	0	
6	0	0	0	0	516	497	196	0	
7	0	0	0	0	519	496	195	0	
8	0	0	0	0	516	495	196	0	
9	0	0	0	0	517	495	195	0	
10	0	0	0	0	515	499	195	0	
11	0	0	0	0	512	502	196	0	
12	0	0	0	0	510	507	196	0	
13	0	0	0	0	511	509	195	0	
14	0	0	0	0	507	513	195	0	
15	0	0	0	0	505	518	195	0	
0	0	0	0	0	505	518	195	0	
1	0	0	0	0	507	515	196	0	
2	0	0	0	0	505	514	197	0	
3	0	0	0	0	507	515	197	0	
4	0	0	0	0	508	510	197	0	
5	0	0	0	0	509	506	196	0	
6	0	0	0	0	514	504	197	0	
7	0	0	0	0	512	500	196	0	
8	0	0	0	0	512	501	196	0	
9	0	0	0	0	514	498	195	0	
10	0	0	0	0	511	495	194	0	
11	0	0	0	0	515	493	194	0	
12	0	0	0	0	519	496	195	0	
13	0	0	0	0	517	497	196	0	
14	0	0	0	0	515	500	196	0	
15	0	0	0	0	513	504	198	0	
0	0	0	0	0	513	507	196	0	
1	0	0	0	0	511	509	196	0	
2	0	0	0	0	507	512	195	0	
3	0	0	0	0	507	510	196	0	
4	0	0	0	0	505	516	196	0	
5	0	0	0	0	508	516	196	0	
6	0	0	0	0	507	514	197	0	
7	0	0	0	0	509	514	198	0	
8	0	0	0	0	508	511	197	0	
9	0	0	0	0	510	510	197	0	
10	0	0	0	0	511	506	198	0	
11	0	0	0	0	511	503	198	0	
12	0	0	0	0	514	499	199	0	
13	0	0	0	0	515	498	198	0	
14	0	0	0	0	515	499	197	0	
15	0	0	0	0	516	498	197	0	
0	0	0	0	0	516	498	197	0	
1	0	0	0	0	516	502	198	0	
2	0	0	0	0	513	501	197	0	
3	0	0	0	0	512	505	196	0	
4	0	0	0	0	511	509	197	0	
5	0	0	0	0	514	510	197	0	
6	0	0	0	0	510	510	197	0	
7	0	0	0	0	512	514	196	0	
8	0	0	0	0	510	519	197	0	
9	0	0	0	0	505	517	197	0	
10	0	0	0	0	508	516	197	0	
11	0	0	0	0	508	514	197	0	
12	0	0	0	0	508	512	196	0	
13	0	0	0	0	509	510	196	0	
14	0	0	0	0	512	507	195	0	
15	0	0	0	0	514	504	196	0	
0	0	0	0	0	515	503	195	0	
1	0	0	0	0	512	500	196	0	
2	0	0	0	0	511	498	195	0	
3	0	0	0	0	516	498	194	0	
4	0	0	0	0	516	503	195	0	
5	0	0	0	0	514	501	195	0	
6	0	0	0	0	511	504	195	0	
7	0	0	0	0	511	508	195	0	
8	0	0	0	0	510	509	195	0	
9	0	0	0	0	511	511	195	0	
10	0	0	0	0	510	511	195	0	
11	0	0	0	0	508	515	194	0	
12	0	0	0	0	508	514	195	0	
13	0	0	0	0	509	514	194	0	
14	0	0	0	0	507	512	193	0	
15	0	0	0	0	508	510	192	0	
0	0	0	0	0	509	509	192	0	
1	0	0	0	0	512	504	193	0	
2	0	0	0	0	514	502	192	0	
3	0	0	0	0	513	500	193	0	
4	0	0	0	0	516	502	194	0	
5	0	0	0	0	516	501	195	0	
6	0	0	0	0	515	499	195	0	
7	0	0	0	0	513	496	195	0	
8	0	0	0	0	511	499	195	0	
9	0	0	0	0	511	501	196	0	
10	0	0	0	0	508	502	196	0	
11	0	0	0	0	511	507	197	0	
12	0	0	0	0	508	508	197	0	
13	0	0	0	0	508	510	197	0	
14	0	0	0	0	505	514	197	0	
15	0	0	0	0	506	518	197	0	
0	0	0	0	0	506	515	198	0	
1	0	0	0	0	506	517	199	0	
2	0	0	0	0	510	516	199	0	
3	0	0	0	0	505	516	198	0	
4	0	0	0	0	509	513	199	0	
5	0	0	0	0	514	510	199	0	
6	0	0	0	0	508	506	198	0	
7	0	0	0	0	512	506	199	0	
8	0	0	0	0	514	500	199	0	
9	0	0	0	0	518	500	199	0	
10	0	0	0	0	515	501	199	0	
11	0	0	0	0	514	500	199	0	
12	0	0	0	0	514	502	200	0	
13	0	0	0	0	513	503	199	0	
14	0	0	0	0	512	505	200	0	
15	0	0	0	0	512	507	201	0	
0	0	0	0	0	510	511	201	0	
1	0	0	0	0	508	511	201	0	
2	0	0	0	0	504	516	200	0	
3	0	0	0	0	507	517	200	0	
4	0	0	0	0	510	518	200	0	
5	0	0	0	0	507	518	200	0	
6	0	0	0	0	505	514	200	0	
7	0	0	0	0	509	516	200	0	
8	0	0	0	0	511	511	200	0	
9	0	0	0	0	511	508	201	0	
10	0	0	0	0	515	506	200	0	
11	0	0	0	0	513	504	201	0	
12	0	0	0	0	515	500	201	0	
13	0	0	0	0	515	500	201	0	
14	0	0	0	0	514	499	201	0	
15	0	0	0	0	512	497	201	0	
0	0	0	0	0	516	499	202	0	
1	0	0	0	0	518	499	201	0	
2	0	0	0	0	513	503	201	0	
3	0	0	0	0	513	506	201	0	
4	0	0	0	0	510	511	201	0	
5	0	0	0	0	510	511	201	0	
6	0	0	0	0	508	513	201	0	
7	0	0	0	0	505	513	201	0	
8	0	0	0	0	506	515	201	0	
9	0	0	0	0	508	517	200	0	
10	0	0	0	0	511	515	200	0	
11	0	0	0	0	508	512	200	0	
12	0	0	0	0	511	509	200	0	
13	0	0	0	0	514	505	200	0	
14	0	0	0	0	513	502	200	0	
15	0	0	0	0	515	500	200	0	
0	0	0	0	0	518	500	200	0	
1	0	0	0	0	519	497	201	0	
2	0	0	0	0	516	497	201	0	
3	0	0	0	0	517	496	200	0	
4	0	0	0	0	519	499	200	0	
5	0	0	0	0	517	502	199	0	
6	0	0	0	0	513	502	199	0	
7	0	0	0	0	515	506	198	0	
8	0	0	0	0	510	511	199	0	
9	0	0	0	0	512	512	199	0	
10	0	0	0	0	507	515	199	0	
11	0	0	0	0	508	518	198	0	
12	0	0	0	0	504	518	198	0	
13	0	0	0	0	505	517	197	0	
14	0	0	0	0	505	515	198	0	
15	0	0	0	0	505	514	197	0	
0	0	0	0	0	506	510	196	0	
1	0	0	0	0	511	505	195	0	
2	0	0	0	0	510	505	195	0	
3	0	0	0	0	512	501	193	0	
4	0	0	0	0	512	500	193	0	
5	0	0	0	0	513	497	192	0	
6	0	0	0	0	517	498	191	0	
7	0	0	0	0	515	499	190	0	
8	0	0	0	0	515	500	188	0	
9	0	0	0	0	517	501	188	0	
10	0	0	0	0	510	503	188	0	
11	0	0	0	0	509	507	188	0	
12	0	0	0	0	505	512	187	0	
13	0	0	0	0	506	512	186	0	
14	0	0	0	0	508	516	186	0	
15	0	0	0	0	506	521	183	0	
0	0	0	0	0	506	521	183	0	
1	0	0	0	0	507	520	181	0	
2	0	0	0	0	508	517	179	0	
3	0	0	0	0	508	516	180	0	
4	0	0	0	0	505	514	178	0	
5	0	0	0	0	508	509	177	0	
6	0	0	0	0	510	507	176	0	
7	0	0	0	0	513	504	175	0	
8	0	0	0	0	515	499	174	0	
9	0	0	0	0	513	498	173	0	
10	0	0	0	0	513	497	172	0	
11	0	0	0	0	514	499	171	0	
12	0	0	0	0	517	500	170	0	
13	0	0	0	0	514	500	169	0	
14	0	0	0	0	515	500	169	0	
15	0	0	0	0	519	510	169	0	
0	0	0	0	0	517	511	167	0	
1	0	0	0	0	511	512	167	0	
2	0	0	0	0	510	518	167	0	
3	0	0	0	0	505	523	163	0	
4	0	0	0	0	505	522	164	0	
5	0	0	0	0	511	524	163	0	
6	0	0	0	0	514	520	163	0	
7	0	0	0	0	510	519	162	0	
8	0	0	0	0	507	517	161	0	
9	0	0	0	0	508	511	160	0	
10	0	0	0	0	510	507	160	0	
11	0	0	0	0	509	504	158	0	
12	0	0	0	0	510	499	158	0	
13	0	0	0	0	507	498	158	0	
14	0	0	0	0	511	497	158	0	
15	0	0	0	0	509	497	160	0	
0	0	0	0	0	515	496	160	0	
1	0	0	0	0	515	499	159	0	
2	0	0	0	0	515	498	159	0	
3	0	0	0	0	512	505	159	0	
4	0	0	0	0	507	511	159	0	
5	0	0	0	0	508	512	160	0	
6	0	0	0	0	510	517	159	0	
7	0	0	0	0	506	518	160	0	
8	0	0	0	0	504	519	161	0	
9	0	0	0	0	504	520	160	0	
10	0	0	0	0	505	518	160	0	
11	0	0	0	0	506	515	163	0	
12	0	0	0	0	508	513	162	0	
13	0	0	0	0	511	507	162	0	
14	0	0	0	0	510	503	161	0	
15	0	0	0	0	511	501	162	0	
0	0	0	0	0	512	496	162	0	
1	0	0	0	0	511	495	162	0	
2	0	0	0	0	512	489	162	0	
3	0	0	0	0	514	492	162	0	
4	0	0	0	0	515	496	163	0	
5	0	0	0	0	512	497	162	0	
6	0	0	0	0	511	500	162	0	
7	0	0	0	0	510	505	163	0	
8	0	0	0	0	506	512	161	0	
9	0	0	0	0	506	513	162	0	
10	0	0	0	0	505	516	161	0	
11	0	0	0	0	502	519	161	0	
12	0	0	0	0	505	520	162	0	
13	0	0	0	0	504	522	162	0	
14	0	0	0	0	509	522	162	0	
15	0	0	0	0	513	519	163	0	
0	0	0	0	0	514	512	165	0	
1	0	0	0	0	512	508	164	0	
2	0	0	0	0	513	505	163	0	
3	0	0	0	0	514	505	163	0	
4	0	0	0	0	512	497	164	0	
5	0	0	0	0	514	496	164	0	
6	0	0	0	0	515	497	164	0	
7	0	0	0	0	513	497	164	0	
8	0	0	0	0	514	498	165	0	
9	0	0	0	0	514	500	167	0	
10	0	0	0	0	514	505	166	0	
11	0	0	0	0	508	511	166	0	
12	0	0	0	0	508	517	165	0	
13	0	0	0	0	509	520	166	0	
14	0	0	0	0	508	525	166	0	
15	0	0	0	0	509	527	167	0	
0	0	0	0	0	508	529	166	0	
1	0	0	0	0	507	527	165	0	
2	0	0	0	0	512	527	165	0	
3	0	0	0	0	507	524	165	0	
4	0	0	0	0	507	522	165	0	
5	0	0	0	0	509	518	165	0	
6	0	0	0	0	510	514	164	0	
7	0	0	0	0	514	511	165	0	
8	0	0	0	0	519	507	165	0	
9	0	0	0	0	519	503	165	0	
10	0	0	0	0	519	502	166	0	
11	0	0	0	0	517	502	165	0	
12	0	0	0	0	516	499	165	0	
13	0	0	0	0	516	502	165	0	
14	0	0	0	0	513	505	166	0	
15	0	0	0	0	511	512	166	0	
0	0	0	0	0	512	518	166	0	
1	0	0	0	0	508	521	167	0	
2	0	0	0	0	510	523	167	0	
3	0	0	0	0	508	529	167	0	
4	0	0	0	0	508	530	167	0	
5	0	0	0	0	504	525	166	0	
6	0	0	0	0	505	522	167	0	
7	0	0	0	0	513	519	167	0	
8	0	0	0	0	510	516	167	0	
9	0	0	0	0	510	509	166	0	
10	0	0	0	0	512	505	166	0	
11	0	0	0	0	515	504	166	0	
12	0	0	0	0	514	503	167	0	
13	0	0	0	0	512	503	167	0	
14	0	0	0	0	511	502	166	0	
15	0	0	0	0	510	500	166	0	
0	0	0	0	0	516	501	166	0	
1	0	0	0	0	517	502	166	0	
2	0	0	0	0	517	503	166	0	
3	0	0	0	0	510	507	166	0	
4	0	0	0	0	509	512	167	0	
5	0	0	0	0	507	515	166	0	
6	0	0	0	0	503	521	167	0	
7	0	0	0	0	502	526	167	0	
8	0	0	0	0	504	525	166	0	
9	0	0	0	0	506	522	166	0	
10	0	0	0	0	505	522	167	0	
11	0	0	0	0	507	518	166	0	
12	0	0	0	0	507	514	167	0	
13	0	0	0	0	510	508	166	0	
14	0	0	0	0	510	505	167	0	
15	0	0	0	0	513	502	166	0	
0	0	0	0	0	516	497	167	0	
1	0	0	0	0	517	496	168	0	
2	0	0	0	0	514	496	167	0	
3	0	0	0	0	513	493	168	0	
4	0	0	0	0	514	494	168	0	
5	0	0	0	0	515	492	167	0	
6	0	0	0	0	518	497	167	0	
7	0	0	0	0	515	502	167	0	
8	0	0	0	0	511	505	167	0	
9	0	0	0	0	508	510	167	0	
10	0	0	0	0	507	512	166	0	
11	0	0	0	0	507	515	167	0	
12	0	0	0	0	505	518	168	0	
13	0	0	0	0	507	519	167	0	
14	0	0	0	0	508	513	167	0	
15	0	0	0	0	508	516	168	0	
0	0	0	0	0	509	511	167	0	
1	0	0	0	0	511	505	167	0	
2	0	0	0	0	513	501	168	0	
3	0	0	0	0	518	502	168	0	
4	0	0	0	0	517	496	167	0	
5	0	0	0	0	516	494	167	0	
6	0	0	0	0	515	494	168	0	
7	0	0	0	0	515	492	168	0	
8	0	0	0	0	512	495	169	0	
9	0	0	0	0	517	494	168	0	
10	0	0	0	0	516	496	169	0	
11	0	0	0	0	513	505	168	0	
12	0	0	0	0	507	507	169	0	
13	0	0	0	0	509	512	168	0	
14	0	0	0	0	504	515	169	0	
15	0	0	0	0	500	517	168	0	
0	0	0	0	0	507	521	169	0	
1	0	0	0	0	509	523	170	0	
2	0	0	0	0	502	518	168	0	
3	0	0	0	0	503	517	169	0	
4	0	0	0	0	508	513	170	0	
5	0	0	0	0	506	508	169	0	
6	0	0	0	0	512	505	169	0	
7	0	0	0	0	511	504	169	0	
8	0	0	0	0	513	498	168	0	
9	0	0	0	0	518	496	169	0	
10	0	0	0	0	515	497	168	0	
11	0	0	0	0	517	496	167	0	
12	0	0	0	0	516	494	167	0	
13	0	0	0	0	514	495	167	0	
14	0	0	0	0	514	499	167	0	
15	0	0	0	0	513	503	166	0	
0	0	0	0	0	513	509	165	0	
1	0	0	0	0	508	512	166	0	
2	0	0	0	0	508	516	164	0	
3	0	0	0	0	508	521	163	0	
4	0	0	0	0	507	520	161	0	
5	0	0	0	0	507	523	160	0	
6	0	0	0	0	509	522	159	0	
7	0	0	0	0	508	520	157	0	
8	0	0	0	0	509	518	154	0	
9	0	0	0	0	509	509	153	0	
10	0	0	0	0	511	506	148	0	
11	0	0	0	0	513	503	146	0	
12	0	0	0	0	515	498	145	0	
13	0	0	0	0	517	495	146	0	
14	0	0	0	0	518	491	147	0	
15	0	0	0	0	518	492	144	0	
0	0	0	0	0	515	493	144	0	
1	0	0	0	0	514	496	141	0	
2	0	0	0	0	515	497	141	0	
3	0	0	0	0	513	504	139	0	
4	0	0	0	0	509	509	136	0	
5	0	0	0	0	508	515	136	0	
6	0	0	0	0	505	519	136	0	
7	0	0	0	0	508	520	135	0	
8	0	0	0	0	507	522	134	0	
9	0	0	0	0	507	519	132	0	
10	0	0	0	0	509	520	131	0	
11	0	0	0	0	507	521	130	0	
12	0	0	0	0	508	516	133	0	
13	0	0	0	0	510	510	130	0	
14	0	0	0	0	513	508	129	0	
15	0	0	0	0	514	504	127	0	
0	0	0	0	0	515	499	130	0	
1	0	0	0	0	517	497	128	0	
2	0	0	0	0	516	494	129	0	
3	0	0	0	0	517	494	126	0	
4	0	0	0	0	513	497	126	0	
5	0	0	0	0	513	496	126	0	
6	0	0	0	0	512	498	125	0	
7	0	0	0	0	512	504	123	0	
8	0	0	0	0	510	507	119	0	
9	0	0	0	0	505	512	122	0	
10	0	0	0	0	503	517	122	0	
11	0	0	0	0	507	518	120	0	
12	0	0	0	0	509	517	121	0	
13	0	0	0	0	508	521	119	0	
14	0	0	0	0	509	520	119	0	
15	0	0	0	0	506	519	116	0	
0	0	0	0	0	506	515	121	0	
1	0	0	0	0	512	508	120	0	
2	0	0	0	0	512	505	119	0	
3	0	0	0	0	511	504	119	0	
4	0	0	0	0	514	501	115	0	
5	0	0	0	0	512	496	114	0	
6	0	0	0	0	515	496	113	0	
7	0	0	0	0	513	494	114	0	
8	0	0	0	0	511	495	115	0	
9	0	0	0	0	513	497	115	0	
10	0	0	0	0	512	499	115	0	
11	0	0	0	0	511	504	116	0	
12	0	0	0	0	515	511	115	0	
13	0	0	0	0	512	513	116	0	
14	0	0	0	0	511	518	118	0	
15	0	0	0	0	508	521	116	0	
0	0	0	0	0	508	523	118	0	
1	0	0	0	0	507	522	117	0	
2	0	0	0	0	508	520	119	0	
3	0	0	0	0	507	518	118	0	
4	0	0	0	0	508	513	119	0	
5	0	0	0	0	512	507	119	0	
6	0	0	0	0	515	504	118	0	
7	0	0	0	0	515	501	119	0	
8	0	0	0	0	514	499	118	0	
9	0	0	0	0	515	496	119	0	
10	0	0	0	0	513	495	119	0	
11	0	0	0	0	514	495	123	0	
12	0	0	0	0	516	496	124	0	
13	0	0	0	0	513	499	125	0	
14	0	0	0	0	509	500	126	0	
15	0	0	0	0	507	508	128	0	
0	0	0	0	0	507	509	129	0	
1	0	0	0	0	505	515	128	0	
2	0	0	0	0	504	517	129	0	
3	0	0	0	0	502	519	130	0	
4	0	0	0	0	507	522	130	0	
5	0	0	0	0	509	521	130	0	
6	0	0	0	0	508	520	131	0	
7	0	0	0	0	507	515	134	0	
8	0	0	0	0	509	515	135	0	
9	0	0	0	0	510	508	134	0	
10	0	0	0	0	511	504	135	0	
11	0	0	0	0	511	503	136	0	
12	0	0	0	0	514	499	137	0	
13	0	0	0	0	518	496	138	0	
14	0	0	0	0	515	495	140	0	
15	0	0	0	0	517	495	139	0	
0	0	0	0	0	513	495	139	0	
1	0	0	0	0	514	497	139	0	
2	0	0	0	0	514	501	140	0	
3	0	0	0	0	515	506	142	0	
4	0	0	0	0	510	510	142	0	
5	0	0	0	0	512	516	142	0	
6	0	0	0	0	510	521	142	0	
7	0	0	0	0	507	522	143	0	
8	0	0	0	0	504	523	143	0	
9	0	0	0	0	503	522	144	0	
10	0	0	0	0	505	519	143	0	
11	0	0	0	0	511	518	144	0	
12	0	0	0	0	512	515	146	0	
13	0	0	0	0	513	509	146	0	
14	0	0	0	0	514	504	148	0	
15	0	0	0	0	513	499	148	0	
0	0	0	0	0	516	495	147	0	
1	0	0	0	0	515	493	148	0	
2	0	0	0	0	517	492	148	0	
3	0	0	0	0	516	492	147	0	
4	0	0	0	0	517	496	147	0	
5	0	0	0	0	519	496	147	0	
6	0	0	0	0	516	501	147	0	
7	0	0	0	0	511	507	148	0	
8	0	0	0	0	508	510	149	0	
9	0	0	0	0	511	517	149	0	
10	0	0	0	0	505	521	148	0	
11	0	0	0	0	507	522	148	0	
12	0	0	0	0	508	521	148	0	
13	0	0	0	0	511	522	149	0	
14	0	0	0	0	508	519	148	0	
15	0	0	0	0	508	517	149	0	
0	0	0	0	0	508	515	150	0	
1	0	0	0	0	511	510	150	0	
2	0	0	0	0	513	506	150	0	
3	0	0	0	0	514	503	150	0	
4	0	0	0	0	515	498	151	0	
5	0	0	0	0	514	492	151	0	
6	0	0	0	0	517	492	152	0	
7	0	0	0	0	514	495	151	0	
8	0	0	0	0	516	494	152	0	
9	0	0	0	0	513	496	152	0	
10	0	0	0	0	511	501	152	0	
11	0	0	0	0	512	506	153	0	
12	0	0	0	0	511	511	153	0	
13	0	0	0	0	508	518	153	0	
14	0	0	0	0	510	519	153	0	
15	0	0	0	0	508	523	154	0	
0	0	0	0	0	504	524	155	0	
1	0	0	0	0	504	526	156	0	
2	0	0	0	0	507	522	155	0	
3	0	0	0	0	507	519	155	0	
4	0	0	0	0	505	517	155	0	
5	0	0	0	0	510	511	156	0	
6	0	0	0	0	511	507	155	0	
7	0	0	0	0	515	500	156	0	
8	0	0	0	0	517	496	156	0	
9	0	0	0	0	515	494	156	0	
10	0	0	0	0	513	493	156	0	
11	0	0	0	0	513	494	156	0	
12	0	0	0	0	516	494	156	0	
13	0	0	0	0	515	493	156	0	
14	0	0	0	0	512	496	157	0	
15	0	0	0	0	507	506	157	0	
0	0	0	0	0	506	511	157	0	
1	0	0	0	0	508	515	156	0	
2	0	0	0	0	508	519	156	0	
3	0	0	0	0	505	525	156	0	
4	0	0	0	0	507	527	156	0	
5	0	0	0	0	505	527	157	0	
6	0	0	0	0	504	526	157	0	
7	0	0	0	0	510	525	157	0	
8	0	0	0	0	508	520	157	0	
9	0	0	0	0	508	512	158	0	
10	0	0	0	0	511	507	157	0	
11	0	0	0	0	512	502	157	0	
12	0	0	0	0	515	495	158	0	
13	0	0	0	0	518	495	158	0	
14	0	0	0	0	516	493	159	0	
15	0	0	0	0	517	493	158	0	
0	0	0	0	0	517	494	158	0	
1	0	0	0	0	517	494	159	0	
2	0	0	0	0	516	498	158	0	
3	0	0	0	0	512	505	159	0	
4	0	0	0	0	512	510	158	0	
5	0	0	0	0	508	516	158	0	
6	0	0	0	0	508	521	158	0	
7	0	0	0	0	503	522	158	0	
8	0	0	0	0	504	527	159	0	
9	0	0	0	0	505	527	159	0	
10	0	0	0	0	505	522	159	0	
11	0	0	0	0	505	521	159	0	
12	0	0	0	0	508	519	159	0	
13	0	0	0	0	509	512	160	0	
14	0	0	0	0	513	507	161	0	
15	0	0	0	0	516	504	159	0	
0	0	0	0	0	515	498	159	0	
1	0	0	0	0	514	494	160	0	
2	0	0	0	0	515	492	159	0	
3	0	0	0	0	516	489	160	0	
4	0	0	0	0	517	491	160	0	
5	0	0	0	0	516	493	161	0	
6	0	0	0	0	517	499	163	0	
7	0	0	0	0	513	506	163	0	
8	0	0	0	0	512	511	163	0	
9	0	0	0	0	509	513	165	0	
10	0	0	0	0	507	519	166	0	
11	0	0	0	0	506	523	165	0	
12	0	0	0	0	507	527	167	0	
13	0	0	0	0	504	527	167	0	
14	0	0	0	0	504	523	168	0	
15	0	0	0	0	508	522	168	0	
0	0	0	0	0	512	518	168	0	
1	0	0	0	0	514	511	167	0	
2	0	0	0	0	515	506	166	0	
3	0	0	0	0	514	500	166	0	
4	0	0	0	0	512	497	165	0	
5	0	0	0	0	518	494	166	0	
6	0	0	0	0	516	492	167	0	
7	0	0	0	0	513	490	166	0	
8	0	0	0	0	513	492	166	0	
9	0	0	0	0	514	494	167	0	
10	0	0	0	0	511	497	169	0	
11	0	0	0	0	510	507	168	0	
12	0	0	0	0	507	511	169	0	
13	0	0	0	0	507	518	168	0	
14	0	0	0	0	506	525	169	0	
15	0	0	0	0	506	526	169	0	
0	0	0	0	0	504	528	168	0	
1	0	0	0	0	506	528	169	0	
2	0	0	0	0	503	526	169	0	
3	0	0	0	0	504	523	169	0	
4	0	0	0	0	505	519	169	0	
5	0	0	0	0	507	513	170	0	
6	0	0	0	0	510	510	170	0	
7	0	0	0	0	512	508	171	0	
8	0	0	0	0	517	499	168	0	
9	0	0	0	0	513	493	169	0	
10	0	0	0	0	519	496	170	0	
11	0	0	0	0	517	496	171	0	
12	0	0	0	0	517	496	172	0	
13	0	0	0	0	515	497	172	0	
14	0	0	0	0	514	502	171	0	
15	0	0	0	0	513	508	172	0	
0	0	0	0	0	510	513	172	0	
1	0	0	0	0	510	516	173	0	
2	0	0	0	0	508	520	175	0	
3	0	0	0	0	501	524	174	0	
4	0	0	0	0	504	528	174	0	
5	0	0	0	0	506	529	173	0	
6	0	0	0	0	503	525	173	0	
7	0	0	0	0	504	521	174	0	
8	0	0	0	0	506	519	174	0	
9	0	0	0	0	506	513	174	0	
10	0	0	0	0	510	507	175	0	
11	0	0	0	0	510	505	175	0	
12	0	0	0	0	511	498	174	0	
13	0	0	0	0	510	493	176	0	
14	0	0	0	0	513	495	176	0	
15	0	0	0	0	519	493	177	0	
0	0	0	0	0	515	495	178	0	
1	0	0	0	0	514	497	177	0	
2	0	0	0	0	513	500	178	0	
3	0	0	0	0	513	506	177	0	
4	0	0	0	0	513	509	178	0	
5	0	0	0	0	508	515	179	0	
6	0	0	0	0	507	519	180	0	
7	0	0	0	0	505	521	181	0	
8	0	0	0	0	507	526	182	0	
9	0	0	0	0	501	523	182	0	
10	0	0	0	0	505	521	182	0	
11	0	0	0	0	508	519	182	0	
12	0	0	0	0	508	515	182	0	
13	0	0	0	0	509	509	182	0	
14	0	0	0	0	511	504	182	0	
15	0	0	0	0	514	503	182	0	
0	0	0	0	0	514	497	182	0	
1	0	0	0	0	516	495	182	0	
2	0	0	0	0	517	494	182	0	
3	0	0	0	0	516	495	182	0	
4	0	0	0	0	517	497	182	0	
5	0	0	0	0	519	499	182	0	
6	0	0	0	0	517	502	182	0	
7	0	0	0	0	516	506	182	0	
8	0	0	0	0	513	508	182	0	
9	0	0	0	0	510	513	182	0	
10	0	0	0	0	506	518	183	0	
11	0	0	0	0	502	518	183	0	
12	0	0	0	0	504	517	183	0	
13	0	0	0	0	502	521	183	0	
14	0	0	0	0	505	518	182	0	
15	0	0	0	0	504	516	183	0	
0	0	0	0	0	507	515	182	0	
1	0	0	0	0	509	509	183	0	
2	0	0	0	0	509	506	183	0	
3	0	0	0	0	514	502	183	0	
4	0	0	0	0	516	499	183	0	
5	0	0	0	0	518	495	183	0	
6	0	0	0	0	518	498	183	0	
7	0	0	0	0	519	498	184	0	
8	0	0	0	0	518	499	183	0	
9	0	0	0	0	515	497	183	0	
10	0	0	0	0	519	503	183	0	
11	0	0	0	0	519	504	183	0	
12	0	0	0	0	515	510	183	0	
13	0	0	0	0	511	512	184	0	
14	0	0	0	0	508	516	183	0	
15	0	0	0	0	505	517	184	0	
0	0	0	0	0	504	518	184	0	
1	0	0	0	0	503	516	184	0	
2	0	0	0	0	507	516	183	0	
3	0	0	0	0	506	515	184	0	
4	0	0	0	0	508	513	184	0	
5	0	0	0	0	508	509	183	0	
6	0	0	0	0	508	507	184	0	
7	0	0	0	0	512	506	184	0	
8	0	0	0	0	516	502	185	0	
9	0	0	0	0	518	499	186	0	
10	0	0	0	0	515	499	185	0	
11	0	0	0	0	523	500	186	0	
12	0	0	0	0	517	504	186	0	
13	0	0	0	0	516	502	186	0	
14	0	0	0	0	516	503	185	0	
15	0	0	0	0	513	507	186	0	
0	0	0	0	0	510	509	185	0	
1	0	0	0	0	507	511	186	0	
2	0	0	0	0	504	511	186	0	
3	0	0	0	0	502	514	188	0	
4	0	0	0	0	503	514	188	0	
5	0	0	0	0	500	515	187	0	
6	0	0	0	0	504	513	188	0	
7	0	0	0	0	507	516	188	0	
8	0	0	0	0	510	512	187	0	
9	0	0	0	0	511	510	188	0	
10	0	0	0	0	511	506	188	0	
11	0	0	0	0	511	505	189	0	
12	0	0	0	0	514	503	190	0	
13	0	0	0	0	511	499	190	0	
14	0	0	0	0	511	500	191	0	
15	0	0	0	0	508	500	190	0	
0	0	0	0	0	510	501	191	0	
1	0	0	0	0	513	502	191	0	
2	0	0	0	0	512	504	191	0	
3	0	0	0	0	511	505	191	0	
4	0	0	0	0	510	507	191	0	
5	0	0	0	0	510	510	191	0	
6	0	0	0	0	503	513	191	0	
7	0	0	0	0	504	513	190	0	
8	0	0	0	0	503	513	190	0	
9	0	0	0	0	502	515	191	0	
10	0	0	0	0	506	515	190	0	
11	0	0	0	0	506	511	191	0	
12	0	0	0	0	507	510	191	0	
13	0	0	0	0	509	510	191	0	
14	0	0	0	0	512	509	190	0	
15	0	0	0	0	513	506	190	0	
0	0	0	0	0	517	501	190	0	
1	0	0	0	0	521	499	191	0	
2	0	0	0	0	522	500	191	0	
3	0	0	0	0	520	499	190	0	
4	0	0	0	0	521	501	190	0	
5	0	0	0	0	522	503	191	0	
6	0	0	0	0	521	503	190	0	
7	0	0	0	0	517	506	191	0	
8	0	0	0	0	514	508	191	0	
9	0	0	0	0	507	509	191	0	
10	0	0	0	0	508	514	191	0	
11	0	0	0	0	508	514	191	0	
12	0	0	0	0	504	513	192	0	
13	0	0	0	0	505	515	192	0	
14	0	0	0	0	504	514	191	0	
15	0	0	0	0	505	513	191	0	
0	0	0	0	0	504	511	192	0	
1	0	0	0	0	509	509	191	0	
2	0	0	0	0	513	507	191	0	
3	0	0	0	0	515	505	192	0	
4	0	0	0	0	513	504	192	0	
5	0	0	0	0	517	502	192	0	
6	0	0	0	0	518	502	192	0	
7	0	0	0	0	520	501	192	0	
8	0	0	0	0	525	501	193	0	
9	0	0	0	0	520	504	192	0	
10	0	0	0	0	516	505	193	0	
11	0	0	0	0	513	508	193	0	
12	0	0	0	0	510	509	193	0	
13	0	0	0	0	511	509	193	0	
14	0	0	0	0	507	512	194	0	
15	0	0	0	0	504	514	193	0	
0	0	0	0	0	502	513	193	0	
1	0	0	0	0	500	513	193	0	
2	0	0	0	0	500	513	193	0	
3	0	0	0	0	503	511	193	0	
4	0	0	0	0	503	510	193	0	
5	0	0	0	0	506	507	193	0	
6	0	0	0	0	510	505	193	0	
7	0	0	0	0	508	504	194	0	
8	0	0	0	0	514	503	194	0	
9	0	0	0	0	513	503	194	0	
10	0	0	0	0	516	504	194	0	
11	0	0	0	0	521	505	194	0	
12	0	0	0	0	523	503	194	0	
13	0	0	0	0	520	503	194	0	
14	0	0	0	0	518	505	194	0	
15	0	0	0	0	515	509	194	0	
0	0	0	0	0	513	510	194	0	
1	0	0	0	0	510	508	194	0	
2	0	0	0	0	508	510	194	0	
3	0	0	0	0	504	511	194	0	
4	0	0	0	0	503	511	195	0	
5	0	0	0	0	503	514	194	0	
6	0	0	0	0	502	515	195	0	
7	0	0	0	0	502	513	195	0	
8	0	0	0	0	507	509	195	0	
9	0	0	0	0	507	509	194	0	
10	0	0	0	0	511	507	195	0	
11	0	0	0	0	508	504	195	0	
12	0	0	0	0	520	504	194	0	
13	0	0	0	0	526	504	194	0	
14	0	0	0	0	519	503	193	0	
15	0	0	0	0	517	501	195	0	
0	0	0	0	0	518	503	195	0	
1	0	0	0	0	517	503	195	0	
2	0	0	0	0	518	503	195	0	
3	0	0	0	0	515	505	194	0	
4	0	0	0	0	515	511	194	0	
5	0	0	0	0	513	510	195	0	
6	0	0	0	0	507	512	194	0	
7	0	0	0	0	502	513	194	0	
8	0	0	0	0	503	515	195	0	
9	0	0	0	0	503	514	195	0	
10	0	0	0	0	501	512	195	0	
11	0	0	0	0	503	513	194	0	
12	0	0	0	0	507	511	195	0	
13	0	0	0	0	510	509	195	0	
14	0	0	0	0	510	508	195	0	
15	0	0	0	0	513	505	195	0	
0	0	0	0	0	516	503	195	0	
1	0	0	0	0	517	503	195	0	
2	0	0	0	0	517	503	196	0	
3	0	0	0	0	517	503	196	0	
4	0	0	0	0	518	500	196	0	
5	0	0	0	0	520	501	197	0	
6	0	0	0	0	516	505	196	0	
7	0	0	0	0	510	505	196	0	
8	0	0	0	0	510	506	195	0	
9	0	0	0	0	511	513	196	0	
10	0	0	0	0	511	514	195	0	
11	0	0	0	0	511	511	197	0	
12	0	0	0	0	508	513	196	0	
13	0	0	0	0	504	515	196	0	
14	0	0	0	0	501	513	196	0	
15	0	0	0	0	497	512	196	0	
0	0	0	0	0	498	510	195	0	
1	0	0	0	0	500	508	196	0	
2	0	0	0	0	501	508	195	0	
3	0	0	0	0	504	504	196	0	
4	0	0	0	0	509	503	196	0	
5	0	0	0	0	516	503	196	0	
6	0	0	0	0	522	504	196	0	
7	0	0	0	0	521	503	195	0	
8	0	0	0	0	519	503	194	0	
9	0	0	0	0	519	505	194	0	
10	0	0	0	0	519	504	194	0	
11	0	0	0	0	515	505	195	0	
12	0	0	0	0	510	507	195	0	
13	0	0	0	0	512	510	194	0	
14	0	0	0	0	509	511	195	0	
15	0	0	0	0	508	510	195	0	
0	0	0	0	0	503	513	194	0	
1	0	0	0	0	503	515	194	0	
2	0	0	0	0	504	513	195	0	
3	0	0	0	0	504	513	195	0	
4	0	0	0	0	505	509	195	0	
5	0	0	0	0	505	508	196	0	
6	0	0	0	0	508	507	195	0	
7	0	0	0	0	512	506	195	0	
8	0	0	0	0	518	507	196	0	
9	0	0	0	0	518	505	195	0	
10	0	0	0	0	514	505	194	0	
11	0	0	0	0	519	504	194	0	
12	0	0	0	0	520	504	194	0	
13	0	0	0	0	519	504	195	0	
14	0	0	0	0	516	508	195	0	
15	0	0	0	0	512	509	195	0	
0	0	0	0	0	511	509	195	0	
1	0	0	0	0	510	511	195	0	
2	0	0	0	0	507	512	194	0	
3	0	0	0	0	503	511	195	0	
4	0	0	0	0	504	511	195	0	
5	0	0	0	0	503	511	195	0	
6	0	0	0	0	500	511	195	0	
7	0	0	0	0	504	511	195	0	
8	0	0	0	0	505	511	195	0	
9	0	0	0	0	507	509	195	0	
10	0	0	0	0	510	508	196	0	
11	0	0	0	0	514	506	195	0	
12	0	0	0	0	517	502	196	0	
13	0	0	0	0	518	505	195	0	
14	0	0	0	0	519	504	196	0	
15	0	0	0	0	519	504	196	0	
0	0	0	0	0	521	505	196	0	
1	0	0	0	0	519	503	196	0	
2	0	0	0	0	516	505	196	0	
3	0	0	0	0	516	507	196	0	
4	0	0	0	0	510	508	196	0	
5	0	0	0	0	507	508	196	0	
6	0	0	0	0	507	511	196	0	
7	0	0	0	0	506	512	197	0	
8	0	0	0	0	504	511	197	0	
9	0	0	0	0	504	509	197	0	
10	0	0	0	0	506	511	197	0	
11	0	0	0	0	507	510	196	0	
12	0	0	0	0	508	509	198	0	
13	0	0	0	0	509	509	197	0	
14	0	0	0	0	508	508	196	0	
15	0	0	0	0	508	510	196	0	
0	0	0	0	0	514	505	197	0	
1	0	0	0	0	516	505	197	0	
2	0	0	0	0	520	505	197	0	
3	0	0	0	0	519	505	196	0	
4	0	0	0	0	518	506	197	0	
5	0	0	0	0	518	505	197	0	
6	0	0	0	0	514	505	197	0	
7	0	0	0	0	515	508	198	0	
8	0	0	0	0	511	508	198	0	
9	0	0	0	0	511	508	197	0	
10	0	0	0	0	507	509	197	0	
11	0	0	0	0	505	511	198	0	
12	0	0	0	0	502	508	198	0	
13	0	0	0	0	505	509	198	0	
14	0	0	0	0	504	510	198	0	
15	0	0	0	0	503	509	197	0	
0	0	0	0	0	504	510	197	0	
1	0	0	0	0	510	508	197	0	
2	0	0	0	0	511	507	197	0	
3	0	0	0	0	515	506	197	0	
4	0	0	0	0	517	508	198	0	
5	0	0	0	0	519	508	197	0	
6	0	0	0	0	520	505	197	0	
7	0	0	0	0	518	505	198	0	
8	0	0	0	0	516	505	196	0	
9	0	0	0	0	515	504	197	0	
10	0	0	0	0	520	509	197	0	
11	0	0	0	0	515	510	197	0	
12	0	0	0	0	513	508	195	0	
13	0	0	0	0	509	506	194	0	
14	0	0	0	0	509	510	193	0	
15	0	0	0	0	505	510	193	0	
0	0	0	0	0	507	508	193	0	
1	0	0	0	0	502	509	193	0	
2	0	0	0	0	503	508	193	0	
3	0	0	0	0	505	508	193	0	
4	0	0	0	0	508	508	193	0	
5	0	0	0	0	510	509	192	0	
6	0	0	0	0	509	507	191	0	
7	0	0	0	0	510	508	191	0	
8	0	0	0	0	513	506	191	0	
9	0	0	0	0	515	507	191	0	
10	0	0	0	0	516	508	191	0	
11	0	0	0	0	518	506	191	0	
12	0	0	0	0	518	507	190	0	
13	0	0	0	0	519	507	191	0	
14	0	0	0	0	515	509	189	0	
15	0	0	0	0	510	508	190	0	
0	0	0	0	0	510	508	189	0	
1	0	0	0	0	508	511	189	0	
2	0	0	0	0	511	511	188	0	
3	0	0	0	0	504	510	190	0	
4	0	0	0	0	504	510	190	0	
5	0	0	0	0	504	510	188	0	
6	0	0	0	0	504	510	188	0	
7	0	0	0	0	504	508	190	0	
8	0	0	0	0	503	508	189	0	
9	0	0	0	0	505	509	188	0	
10	0	0	0	0	508	508	189	0	
11	0	0	0	0	511	507	188	0	
12	0	0	0	0	513	507	188	0	
13	0	0	0	0	516	508	189	0	
14	0	0	0	0	515	505	188	0	
15	0	0	0	0	516	506	189	0	
0	0	0	0	0	515	506	189	0	
1	0	0	0	0	516	506	190	0	
2	0	0	0	0	514	507	190	0	
3	0	0	0	0	512	507	190	0	
4	0	0	0	0	512	507	190	0	
5	0	0	0	0	511	507	191	0	
6	0	0	0	0	508	506	191	0	
7	0	0	0	0	504	509	191	0	
8	0	0	0	0	507	508	192	0	
9	0	0	0	0	505	508	192	0	
10	0	0	0	0	506	510	193	0	
11	0	0	0	0	504	509	193	0	
12	0	0	0	0	505	509	192	0	
13	0	0	0	0	509	507	193	0	
14	0	0	0	0	511	508	192	0	
15	0	0	0	0	512	511	192	0	
0	0	0	0	0	515	510	192	0	
1	0	0	0	0	516	508	193	0	
2	0	0	0	0	516	509	192	0	
3	0	0	0	0	516	510	192	0	
4	0	0	0	0	515	508	192	0	
5	0	0	0	0	512	509	194	0	
6	0	0	0	0	511	509	193	0	
7	0	0	0	0	513	508	192	0	
8	0	0	0	0	517	507	192	0	
9	0	0	0	0	518	506	192	0	
10	0	0	0	0	512	507	193	0	
11	0	0	0	0	508	510	193	0	
12	0	0	0	0	505	508	193	0	
13	0	0	0	0	505	507	193	0	
14	0	0	0	0	505	508	194	0	
15	0	0	0	0	505	509	194	0	
0	0	0	0	0	511	508	195	0	
1	0	0	0	0	510	507	195	0	
2	0	0	0	0	512	507	195	0	
3	0	0	0	0	512	508	194	0	
4	0	0	0	0	513	510	195	0	
5	0	0	0	0	516	508	195	0	
6	0	0	0	0	518	508	195	0	
7	0	0	0	0	518	507	197	0	
8	0	0	0	0	517	506	198	0	
9	0	0	0	0	518	507	196	0	
10	0	0	0	0	516	507	197	0	
11	0	0	0	0	511	507	198	0	
12	0	0	0	0	513	508	198	0	
13	0	0	0	0	511	509	197	0	
14	0	0	0	0	507	508	197	0	
15	0	0	0	0	504	506	196	0	
0	0	0	0	0	505	508	196	0	
1	0	0	0	0	505	507	197	0	
2	0	0	0	0	504	508	197	0	
3	0	0	0	0	505	509	196	0	
4	0	0	0	0	507	510	197	0	
5	0	0	0	0	506	508	197	0	
6	0	0	0	0	511	509	197	0	
7	0	0	0	0	515	509	198	0	
8	0	0	0	0	517	510	197	0	
9	0	0	0	0	519	507	196	0	
10	0	0	0	0	519	509	196	0	
11	0	0	0	0	519	508	195	0	
12	0	0	0	0	519	509	195	0	
13	0	0	0	0	516	508	194	0	
14	0	0	0	0	515	509	194	0	
15	0	0	0	0	512	507	194	0	
0	0	0	0	0	511	508	195	0	
1	0	0	0	0	509	507	194	0	
2	0	0	0	0	507	507	194	0	
3	0	0	0	0	504	505	194	0	
4	0	0	0	0	504	508	194	0	
5	0	0	0	0	506	507	193	0	
6	0	0	0	0	504	508	192	0	
7	0	0	0	0	506	508	193	0	
8	0	0	0	0	508	508	192	0	
9	0	0	0	0	509	507	193	0	
10	0	0	0	0	511	508	192	0	
11	0	0	0	0	513	511	193	0	
12	0	0	0	0	512	508	193	0	
13	0	0	0	0	515	509	194	0	
14	0	0	0	0	516	511	193	0	
15	0	0	0	0	516	509	194	0	
0	0	0	0	0	519	508	194	0	
1	0	0	0	0	518	507	194	0	
2	0	0	0	0	516	507	194	0	
3	0	0	0	0	513	507	195	0	
4	0	0	0	0	509	505	194	0	
5	0	0	0	0	508	507	194	0	
6	0	0	0	0	507	507	194	0	
7	0	0	0	0	505	507	194	0	
8	0	0	0	0	503	507	195	0	
9	0	0	0	0	505	510	195	0	
10	0	0	0	0	504	510	194	0	
11	0	0	0	0	500	509	195	0	
12	0	0	0	0	507	511	195	0	
13	0	0	0	0	509	509	195	0	
14	0	0	0	0	512	510	195	0	
15	0	0	0	0	512	509	195	0	
0	0	0	0	0	512	506	195	0	
1	0	0	0	0	514	506	196	0	
2	0	0	0	0	519	505	195	0	
3	0	0	0	0	517	508	196	0	
4	0	0	0	0	517	506	195	0	
5	0	0	0	0	512	505	196	0	
6	0	0	0	0	520	507	196	0	
7	0	0	0	0	516	507	198	0	
8	0	0	0	0	510	509	198	0	
9	0	0	0	0	507	506	198	0	
10	0	0	0	0	507	505	197	0	
11	0	0	0	0	503	505	199	0	
12	0	0	0	0	503	506	198	0	
13	0	0	0	0	500	508	198	0	
14	0	0	0	0	505	509	198	0	
15	0	0	0	0	499	511	198	0	
0	0	0	0	0	498	508	198	0	
1	0	0	0	0	505	511	198	0	
2	0	0	0	0	510	509	199	0	
3	0	0	0	0	513	509	199	0	
4	0	0	0	0	515	509	199	0	
5	0	0	0	0	518	508	199	0	
6	0	0	0	0	519	508	199	0	
7	0	0	0	0	519	508	199	0	
8	0	0	0	0	519	509	199	0	
9	0	0	0	0	515	507	199	0	
10	0	0	0	0	513	511	199	0	
11	0	0	0	0	512	507	198	0	
12	0	0	0	0	516	508	198	0	
13	0	0	0	0	516	506	198	0	
14	0	0	0	0	511	508	199	0	
15	0	0	0	0	506	508	199	0	
0	0	0	0	0	503	506	199	0	
1	0	0	0	0	505	506	199	0	
2	0	0	0	0	504	510	198	0	
3	0	0	0	0	504	508	199	0	
4	0	0	0	0	507	509	198	0	
5	0	0	0	0	511	509	199	0	
6	0	0	0	0	514	508	199	0	
7	0	0	0	0	516	511	199	0	
8	0	0	0	0	517	511	198	0	
9	0	0	0	0	513	510	199	0	
10	0	0	0	0	516	510	199	0	
11	0	0	0	0	516	507	199	0	
12	0	0	0	0	518	508	198	0	
13	0	0	0	0	519	507	199	0	
14	0	0	0	0	515	507	199	0	
15	0	0	0	0	515	506	199	0	
0	0	0	0	0	510	508	199	0	
1	0	0	0	0	505	506	199	0	
2	0	0	0	0	504	506	199	0	
3	0	0	0	0	502	505	199	0	
4	0	0	0	0	500	508	199	0	
5	0	0	0	0	500	510	199	0	
6	0	0	0	0	502	506	199	0	
7	0	0	0	0	502	507	199	0	
8	0	0	0	0	508	510	199	0	
9	0	0	0	0	513	510	199	0	
10	0	0	0	0	514	509	198	0	
11	0	0	0	0	513	509	199	0	
12	0	0	0	0	518	510	199	0	
13	0	0	0	0	517	509	199	0	
14	0	0	0	0	520	508	199	0	
15	0	0	0	0	521	510	199	0	
0	0	0	0	0	518	508	199	0	
1	0	0	0	0	518	507	199	0	
2	0	0	0	0	518	506	200	0	
3	0	0	0	0	513	506	199	0	
4	0	0	0	0	510	506	199	0	
5	0	0	0	0	508	506	200	0	
6	0	0	0	0	505	507	200	0	
7	0	0	0	0	503	506	200	0	
8	0	0	0	0	504	506	199	0	
9	0	0	0	0	505	505	199	0	
10	0	0	0	0	503	506	199	0	
11	0	0	0	0	503	507	199	0	
12	0	0	0	0	508	508	199	0	
13	0	0	0	0	510	510	200	0	
14	0	0	0	0	512	510	199	0	
15	0	0	0	0	514	510	200	0	
0	0	0	0	0	515	509	199	0	
1	0	0	0	0	518	510	199	0	
2	0	0	0	0	516	508	199	0	
3	0	0	0	0	519	509	200	0	
4	0	0	0	0	519	510	199	0	
5	0	0	0	0	519	510	199	0	
6	0	0	0	0	515	509	200	0	
7	0	0	0	0	515	507	200	0	
8	0	0	0	0	513	507	199	0	
9	0	0	0	0	511	505	200	0	
10	0	0	0	0	507	506	200	0	
11	0	0	0	0	503	506	200	0	
12	0	0	0	0	502	508	200	0	
13	0	0	0	0	503	507	200	0	
14	0	0	0	0	505	507	200	0	
15	0	0	0	0	507	506	200	0	
0	0	0	0	0	509	508	200	0	
1	0	0	0	0	509	510	200	0	
2	0	0	0	0	510	511	201	0	
3	0	0	0	0	510	510	200	0	
4	0	0	0	0	512	508	201	0	
5	0	0	0	0	513	509	200	0	
6	0	0	0	0	517	506	200	0	
7	0	0	0	0	518	508	201	0	
8	0	0	0	0	519	509	201	0	
9	0	0	0	0	519	509	201	0	
10	0	0	0	0	511	509	201	0	
11	0	0	0	0	512	508	201	0	
12	0	0	0	0	511	507	201	0	
13	0	0	0	0	509	508	201	0	
14	0	0	0	0	508	508	201	0	
15	0	0	0	0	507	503	201	0	
0	0	0	0	0	508	506	201	0	
1	0	0	0	0	505	504	201	0	
2	0	0	0	0	504	505	201	0	
3	0	0	0	0	504	504	202	0	
4	0	0	0	0	507	504	201	0	
5	0	0	0	0	510	508	200	0	
6	0	0	0	0	510	509	200	0	
7	0	0	0	0	515	512	201	0	
8	0	0	0	0	515	511	201	0	
9	0	0	0	0	516	510	201	0	
10	0	0	0	0	518	508	201	0	
11	0	0	0	0	517	510	201	0	
12	0	0	0	0	517	508	200	0	
13	0	0	0	0	516	509	200	0	
14	0	0	0	0	515	509	201	0	
15	0	0	0	0	513	506	201	0	
0	0	0	0	0	510	506	201	0	
1	0	0	0	0	509	506	201	0	
2	0	0	0	0	505	504	201	0	
3	0	0	0	0	507	502	201	0	
4	0	0	0	0	505	506	201	0	
5	0	0	0	0	504	505	200	0	
6	0	0	0	0	502	508	200	0	
7	0	0	0	0	503	503	201	0	
8	0	0	0	0	506	509	201	0	
9	0	0	0	0	512	512	200	0	
10	0	0	0	0	514	510	200	0	
11	0	0	0	0	515	511	200	0	
12	0	0	0	0	517	512	200	0	
13	0	0	0	0	518	512	201	0	
14	0	0	0	0	518	512	200	0	
15	0	0	0	0	519	511	200	0	
0	0	0	0	0	517	511	200	0	
1	0	0	0	0	516	511	201	0	
2	0	0	0	0	517	510	199	0	
3	0	0	0	0	509	507	201	0	
4	0	0	0	0	508	507	200	0	
5	0	0	0	0	506	506	200	0	
6	0	0	0	0	508	504	200	0	
7	0	0	0	0	507	502	201	0	
8	0	0	0	0	505	502	201	0	
9	0	0	0	0	504	503	201	0	
10	0	0	0	0	503	505	200	0	
11	0	0	0	0	507	506	200	0	
12	0	0	0	0	505	506	200	0	
13	0	0	0	0	506	508	200	0	
14	0	0	0	0	512	510	200	0	
15	0	0	0	0	516	512	200	0	
0	0	0	0	0	517	511	200	0	
1	0	0	0	0	518	511	200	0	
2	0	0	0	0	521	512	199	0	
3	0	0	0	0	517	514	199	0	
4	0	0	0	0	517	513	200	0	
5	0	0	0	0	520	513	199	0	
6	0	0	0	0	517	509	199	0	
7	0	0	0	0	515	506	200	0	
8	0	0	0	0	510	506	199	0	
9	0	0	0	0	507	505	200	0	
10	0	0	0	0	506	502	200	0	
11	0	0	0	0	503	501	200	0	
12	0	0	0	0	502	501	200	0	
13	0	0	0	0	503	500	200	0	
14	0	0	0	0	504	502	200	0	
15	0	0	0	0	503	501	200	0	
0	0	0	0	0	504	507	200	0	
1	0	0	0	0	507	510	200	0	
2	0	0	0	0	510	513	200	0	
3	0	0	0	0	512	513	200	0	
4	0	0	0	0	515	515	200	0	
5	0	0	0	0	518	515	200	0	
6	0	0	0	0	519	515	201	0	
7	0	0	0	0	521	514	200	0	
8	0	0	0	0	521	518	199	0	
9	0	0	0	0	521	514	199	0	
10	0	0	0	0	523	510	200	0	
11	0	0	0	0	517	505	201	0	
12	0	0	0	0	513	505	200	0	
13	0	0	0	0	508	500	200	0	
14	0	0	0	0	505	500	201	0	
15	0	0	0	0	502	497	200	0	
0	0	0	0	0	499	498	200	0	
1	0	0	0	0	500	498	200	0	
2	0	0	0	0	504	503	201	0	
3	0	0	0	0	505	505	200	0	
4	0	0	0	0	505	505	201	0	
5	0	0	0	0	508	510	201	0	
6	0	0	0	0	509	512	201	0	
7	0	0	0	0	511	513	201	0	
8	0	0	0	0	516	516	201	0	
9	0	0	0	0	518	517	201	0	
10	0	0	0	0	519	518	201	0	
11	0	0	0	0	518	517	201	0	
12	0	0	0	0	519	514	202	0	
13	0	0	0	0	521	514	201	0	
14	0	0	0	0	519	511	201	0	
15	0	0	0	0	514	509	202	0	
0	0	0	0	0	513	504	201	0	
1	0	0	0	0	511	500	201	0	
2	0	0	0	0	505	500	201	0	
3	0	0	0	0	504	499	201	0	
4	0	0	0	0	505	497	201	0	
5	0	0	0	0	506	501	201	0	
6	0	0	0	0	505	501	201	0	
7	0	0	0	0	502	504	201	0	
8	0	0	0	0	502	506	201	0	
9	0	0	0	0	506	510	201	0	
10	0	0	0	0	510	510	201	0	
11	0	0	0	0	515	513	201	0	
12	0	0	0	0	518	515	201	0	
13	0	0	0	0	517	516	201	0	
14	0	0	0	0	519	515	201	0	
15	0	0	0	0	520	514	200	0	
0	0	0	0	0	519	513	200	0	
1	0	0	0	0	519	511	200	0	
2	0	0	0	0	515	507	199	0	
3	0	0	0	0	514	507	200	0	
4	0	0	0	0	515	506	200	0	
5	0	0	0	0	507	505	200	0	
6	0	0	0	0	506	502	200	0	
7	0	0	0	0	503	500	200	0	
8	0	0	0	0	501	500	200	0	
9	0	0	0	0	503	504	200	0	
10	0	0	0	0	502	503	200	0	
11	0	0	0	0	503	505	200	0	
12	0	0	0	0	505	508	200	0	
13	0	0	0	0	510	509	200	0	
14	0	0	0	0	511	509	200	0	
15	0	0	0	0	510	511	201	0	
0	0	0	0	0	518	513	200	0	
1	0	0	0	0	520	515	201	0	
2	0	0	0	0	515	513	201	0	
3	0	0	0	0	518	512	200	0	
4	0	0	0	0	519	512	201	0	
5	0	0	0	0	520	512	200	0	
6	0	0	0	0	519	512	200	0	
7	0	0	0	0	513	507	201	0	
8	0	0	0	0	511	506	201	0	
9	0	0	0	0	510	502	201	0	
10	0	0	0	0	508	502	201	0	
11	0	0	0	0	507	500	201	0	
12	0	0	0	0	502	501	201	0	
13	0	0	0	0	502	504	201	0	
14	0	0	0	0	503	504	201	0	
15	0	0	0	0	507	504	201	0	
0	0	0	0	0	507	508	201	0	
1	0	0	0	0	508	510	201	0	
2	0	0	0	0	511	511	201	0	
3	0	0	0	0	512	513	200	0	
4	0	0	0	0	515	514	201	0	
5	0	0	0	0	518	515	201	0	
6	0	0	0	0	516	512	201	0	
7	0	0	0	0	519	512	201	0	
8	0	0	0	0	516	511	201	0	
9	0	0	0	0	517	510	201	0	
10	0	0	0	0	516	509	201	0	
11	0	0	0	0	513	507	201	0	
12	0	0	0	0	512	504	201	0	
13	0	0	0	0	510	505	201	0	
14	0	0	0	0	505	503	201	0	
15	0	0	0	0	504	501	201	0	
0	0	0	0	0	503	499	200	0	
1	0	0	0	0	504	501	201	0	
2	0	0	0	0	502	503	201	0	
3	0	0	0	0	502	504	201	0	
4	0	0	0	0	507	505	201	0	
5	0	0	0	0	512	509	201	0	
6	0	0	0	0	512	511	201	0	
7	0	0	0	0	515	513	201	0	
8	0	0	0	0	514	513	202	0	
9	0	0	0	0	519	516	201	0	
10	0	0	0	0	517	515	201	0	
11	0	0	0	0	519	516	201	0	
12	0	0	0	0	519	515	201	0	
13	0	0	0	0	520	515	201	0	
14	0	0	0	0	517	513	201	0	
15	0	0	0	0	513	509	201	0	
0	0	0	0	0	511	504	201	0	
1	0	0	0	0	508	506	202	0	
2	0	0	0	0	503	500	201	0	
3	0	0	0	0	503	497	202	0	
4	0	0	0	0	503	497	201	0	
5	0	0	0	0	502	498	201	0	
6	0	0	0	0	504	498	201	0	
7	0	0	0	0	504	500	202	0	
8	0	0	0	0	504	507	202	0	
9	0	0	0	0	506	509	202	0	
10	0	0	0	0	510	509	202	0	
11	0	0	0	0	512	512	201	0	
12	0	0	0	0	515	514	203	0	
13	0	0	0	0	517	516	202	0	
14	0	0	0	0	519	516	201	0	
15	0	0	0	0	519	517	204	0	
0	0	0	0	0	519	515	204	0	
1	0	0	0	0	515	516	204	0	
2	0	0	0	0	520	513	203	0	
3	0	0	0	0	515	507	201	0	
4	0	0	0	0	513	505	202	0	
5	0	0	0	0	510	501	201	0	
6	0	0	0	0	505	499	201	0	
7	0	0	0	0	503	498	202	0	
8	0	0	0	0	502	498	201	0	
9	0	0	0	0	501	497	201	0	
10	0	0	0	0	502	499	201	0	
11	0	0	0	0	504	498	200	0	
12	0	0	0	0	503	502	201	0	
13	0	0	0	0	508	505	199	0	
14	0	0	0	0	515	512	198	0	
15	0	0	0	0	514	516	199	0	
0	0	0	0	0	516	518	198	0	
1	0	0	0	0	518	518	198	0	
2	0	0	0	0	519	518	199	0	
3	0	0	0	0	519	519	198	0	
4	0	0	0	0	520	519	198	0	
5	0	0	0	0	520	516	198	0	
6	0	0	0	0	517	513	197	0	
7	0	0	0	0	517	510	197	0	
8	0	0	0	0	513	507	196	0	
9	0	0	0	0	510	499	196	0	
10	0	0	0	0	506	498	197	0	
11	0	0	0	0	502	497	197	0	
12	0	0	0	0	501	497	198	0	
13	0	0	0	0	500	497	197	0	
14	0	0	0	0	500	498	196	0	
15	0	0	0	0	503	500	196	0	
0	0	0	0	0	504	508	196	0	
1	0	0	0	0	507	509	197	0	
2	0	0	0	0	512	510	197	0	
3	0	0	0	0	514	515	196	0	
4	0	0	0	0	516	516	197	0	
5	0	0	0	0	516	517	197	0	
6	0	0	0	0	519	519	196	0	
7	0	0	0	0	517	518	198	0	
8	0	0	0	0	518	517	196	0	
9	0	0	0	0	523	515	197	0	
10	0	0	0	0	519	512	197	0	
11	0	0	0	0	515	509	197	0	
12	0	0	0	0	511	504	197	0	
13	0	0	0	0	505	501	195	0	
14	0	0	0	0	503	497	195	0	
15	0	0	0	0	504	495	194	0	
0	0	0	0	0	501	498	193	0	
1	0	0	0	0	500	501	193	0	
2	0	0	0	0	501	500	193	0	
3	0	0	0	0	504	502	192	0	
4	0	0	0	0	506	508	192	0	
5	0	0	0	0	504	511	191	0	
6	0	0	0	0	508	512	191	0	
7	0	0	0	0	511	518	189	0	
8	0	0	0	0	517	520	190	0	
9	0	0	0	0	517	519	189	0	
10	0	0	0	0	519	519	191	0	
11	0	0	0	0	518	519	189	0	
12	0	0	0	0	519	517	190	0	
13	0	0	0	0	519	515	189	0	
14	0	0	0	0	517	511	190	0	
15	0	0	0	0	515	505	187	0	
0	0	0	0	0	512	503	189	0	
1	0	0	0	0	505	498	189	0	
2	0	0	0	0	503	496	188	0	
3	0	0	0	0	503	495	188	0	
4	0	0	0	0	501	493	188	0	
5	0	0	0	0	502	495	187	0	
6	0	0	0	0	500	497	188	0	
7	0	0	0	0	502	500	190	0	
8	0	0	0	0	506	505	190	0	
9	0	0	0	0	509	509	190	0	
10	0	0	0	0	512	512	190	0	
11	0	0	0	0	516	515	190	0	
12	0	0	0	0	519	519	190	0	
13	0	0	0	0	520	519	190	0	
14	0	0	0	0	520	520	191	0	
15	0	0	0	0	520	520	191	0	
0	0	0	0	0	519	516	191	0	
1	0	0	0	0	521	515	191	0	
2	0	0	0	0	514	512	191	0	
3	0	0	0	0	510	508	192	0	
4	0	0	0	0	511	505	192	0	
5	0	0	0	0	515	499	192	0	
6	0	0	0	0	511	496	192	0	
7	0	0	0	0	503	492	192	0	
8	0	0	0	0	505	495	193	0	
9	0	0	0	0	501	494	193	0	
10	0	0	0	0	504	498	192	0	
11	0	0	0	0	503	501	193	0	
12	0	0	0	0	504	504	193	0	
13	0	0	0	0	510	511	193	0	
14	0	0	0	0	512	513	194	0	
15	0	0	0	0	515	517	195	0	
0	0	0	0	0	519	519	196	0	
1	0	0	0	0	518	520	197	0	
2	0	0	0	0	515	520	197	0	
3	0	0	0	0	518	520	197	0	
4	0	0	0	0	518	519	198	0	
5	0	0	0	0	519	515	197	0	
6	0	0	0	0	519	511	198	0	
7	0	0	0	0	513	507	200	0	
8	0	0	0	0	512	504	201	0	
9	0	0	0	0	508	501	201	0	
10	0	0	0	0	507	498	201	0	
11	0	0	0	0	503	497	202	0	
12	0	0	0	0	503	495	202	0	
13	0	0	0	0	503	496	203	0	
14	0	0	0	0	504	500	203	0	
15	0	0	0	0	504	502	202	0	
0	0	0	0	0	506	506	203	0	
1	0	0	0	0	506	509	203	0	
2	0	0	0	0	512	513	203	0	
3	0	0	0	0	515	515	202	0	
4	0	0	0	0	515	519	202	0	
5	0	0	0	0	518	518	202	0	
6	0	0	0	0	521	521	203	0	
7	0	0	0	0	521	519	204	0	
8	0	0	0	0	521	516	204	0	
9	0	0	0	0	518	517	203	0	
10	0	0	0	0	518	510	203	0	
11	0	0	0	0	515	506	204	0	
12	0	0	0	0	515	505	203	0	
13	0	0	0	0	510	500	203	0	
14	0	0	0	0	505	499	203	0	
15	0	0	0	0	506	500	204	0	
0	0	0	0	0	504	498	204	0	
1	0	0	0	0	504	502	204	0	
2	0	0	0	0	503	500	203	0	
3	0	0	0	0	505	503	204	0	
4	0	0	0	0	506	504	203	0	
5	0	0	0	0	510	509	204	0	
6	0	0	0	0	510	510	203	0	
7	0	0	0	0	514	513	203	0	
8	0	0	0	0	515	512	203	0	
9	0	0	0	0	515	514	203	0	
10	0	0	0	0	517	513	204	0	
11	0	0	0	0	523	515	204	0	
12	0	0	0	0	524	514	204	0	
13	0	0	0	0	519	512	204	0	
14	0	0	0	0	518	508	204	0	
15	0	0	0	0	516	506	203	0	
0	0	0	0	0	515	505	203	0	
1	0	0	0	0	511	502	203	0	
2	0	0	0	0	503	503	203	0	
3	0	0	0	0	501	501	203	0	
4	0	0	0	0	502	501	203	0	
5	0	0	0	0	501	501	203	0	
6	0	0	0	0	504	503	204	0	
7	0	0	0	0	505	505	204	0	
8	0	0	0	0	510	508	204	0	
9	0	0	0	0	510	511	204	0	
10	0	0	0	0	513	512	203	0	
11	0	0	0	0	513	510	204	0	
12	0	0	0	0	511	512	203	0	
13	0	0	0	0	516	512	203	0	
14	0	0	0	0	516	511	204	0	
15	0	0	0	0	517	511	203	0	
0	0	0	0	0	516	510	204	0	
1	0	0	0	0	518	510	205	0	
2	0	0	0	0	515	510	203	0	
3	0	0	0	0	515	505	204	0	
4	0	0	0	0	512	504	204	0	
5	0	0	0	0	506	504	203	0	
6	0	0	0	0	507	504	203	0	
7	0	0	0	0	502	507	203	0	
8	0	0	0	0	501	504	203	0	
9	0	0	0	0	501	506	204	0	
10	0	0	0	0	503	506	203	0	
11	0	0	0	0	501	505	203	0	
12	0	0	0	0	504	507	203	0	
13	0	0	0	0	506	509	204	0	
14	0	0	0	0	507	507	203	0	
15	0	0	0	0	514	510	203	0	
0	0	0	0	0	514	511	204	0	
1	0	0	0	0	517	513	204	0	
2	0	0	0	0	520	513	204	0	
3	0	0	0	0	519	513	204	0	
4	0	0	0	0	519	511	204	0	
5	0	0	0	0	517	508	204	0	
6	0	0	0	0	514	507	204	0	
7	0	0	0	0	514	509	204	0	
8	0	0	0	0	511	506	204	0	
9	0	0	0	0	508	507	204	0	
10	0	0	0	0	505	505	204	0	
11	0	0	0	0	503	506	204	0	
12	0	0	0	0	504	505	204	0	
13	0	0	0	0	502	505	203	0	
14	0	0	0	0	503	506	204	0	
15	0	0	0	0	503	508	204	0	
0	0	0	0	0	508	507	204	0	
1	0	0	0	0	507	508	204	0	
2	0	0	0	0	508	510	204	0	
3	0	0	0	0	513	510	204	0	
4	0	0	0	0	515	509	204	0	
5	0	0	0	0	515	511	203	0	
6	0	0	0	0	521	511	204	0	
7	0	0	0	0	523	509	204	0	
8	0	0	0	0	519	510	204	0	
9	0	0	0	0	519	510	204	0	
10	0	0	0	0	514	508	204	0	
11	0	0	0	0	510	505	204	0	
12	0	0	0	0	514	504	204	0	
13	0	0	0	0	515	508	204	0	
14	0	0	0	0	508	507	204	0	
15	0	0	0	0	503	508	204	0	
0	0	0	0	0	501	504	204	0	
1	0	0	0	0	500	506	204	0	
2	0	0	0	0	500	506	204	0	
3	0	0	0	0	499	506	204	0	
4	0	0	0	0	507	510	204	0	
5	0	0	0	0	511	508	204	0	
6	0	0	0	0	512	509	204	0	
7	0	0	0	0	512	507	203	0	
8	0	0	0	0	516	511	204	0	
9	0	0	0	0	515	511	203	0	
10	0	0	0	0	519	508	204	0	
11	0	0	0	0	519	511	203	0	
12	0	0	0	0	518	508	204	0	
13	0	0	0	0	514	508	203	0	
14	0	0	0	0	513	505	204	0	
15	0	0	0	0	513	505	203	0	
0	0	0	0	0	514	508	203	0	
1	0	0	0	0	509	508	204	0	
2	0	0	0	0	504	505	204	0	
3	0	0	0	0	502	506	204	0	
4	0	0	0	0	502	507	205	0	
5	0	0	0	0	500	507	204	0	
6	0	0	0	0	501	508	205	0	
7	0	0	0	0	501	508	204	0	
8	0	0	0	0	506	508	204	0	
9	0	0	0	0	512	509	204	0	
10	0	0	0	0	513	510	204	0	
11	0	0	0	0	515	508	205	0	
12	0	0	0	0	516	511	205	0	
13	0	0	0	0	516	512	204	0	
14	0	0	0	0	520	509	204	0	
15	0	0	0	0	520	511	204	0	
0	0	0	0	0	518	508	204	0	
1	0	0	0	0	521	507	204	0	
2	0	0	0	0	515	507	204	0	
3	0	0	0	0	512	508	204	0	
4	0	0	0	0	511	507	204	0	
5	0	0	0	0	508	505	204	0	
6	0	0	0	0	509	506	205	0	
7	0	0	0	0	507	510	204	0	
8	0	0	0	0	506	508	204	0	
9	0	0	0	0	505	507	204	0	
10	0	0	0	0	508	507	204	0	
11	0	0	0	0	505	510	204	0	
12	0	0	0	0	509	507	204	0	
13	0	0	0	0	509	508	204	0	
14	0	0	0	0	512	507	205	0	
15	0	0	0	0	515	507	204	0	
0	0	0	0	0	517	508	204	0	
1	0	0	0	0	517	509	204	0	
2	0	0	0	0	516	508	205	0	
3	0	0	0	0	516	508	204	0	
4	0	0	0	0	518	509	204	0	
5	0	0	0	0	518	508	205	0	
6	0	0	0	0	514	507	204	0	
7	0	0	0	0	512	507	205	0	
8	0	0	0	0	509	508	204	0	
9	0	0	0	0	508	510	205	0	
10	0	0	0	0	508	507	205	0	
11	0	0	0	0	505	508	205	0	
12	0	0	0	0	505	508	204	0	
13	0	0	0	0	506	508	205	0	
14	0	0	0	0	504	508	206	0	
15	0	0	0	0	505	509	206	0	
0	0	0	0	0	510	506	206	0	
1	0	0	0	0	515	507	205	0	
2	0	0	0	0	513	510	206	0	
3	0	0	0	0	511	507	205	0	
4	0	0	0	0	508	506	206	0	
5	0	0	0	0	508	507	206	0	
6	0	0	0	0	515	507	206	0	
7	0	0	0	0	520	506	205	0	
8	0	0	0	0	515	507	206	0	
9	0	0	0	0	515	508	206	0	
10	0	0	0	0	514	508	206	0	
11	0	0	0	0	513	507	205	0	
12	0	0	0	0	512	505	205	0	
13	0	0	0	0	510	509	206	0	
14	0	0	0	0	510	508	206	0	
15	0	0	0	0	507	508	206	0	
0	0	0	0	0	506	509	206	0	
1	0	0	0	0	507	510	206	0	
2	0	0	0	0	507	511	206	0	
3	0	0	0	0	506	511	207	0	
4	0	0	0	0	509	511	207	0	
5	0	0	0	0	511	509	206	0	
6	0	0	0	0	513	508	205	0	
7	0	0	0	0	513	508	206	0	
8	0	0	0	0	515	506	206	0	
9	0	0	0	0	514	505	206	0	
10	0	0	0	0	512	507	206	0	
11	0	0	0	0	519	508	206	0	
12	0	0	0	0	518	507	206	0	
13	0	0	0	0	517	505	205	0	
14	0	0	0	0	515	507	206	0	
15	0	0	0	0	513	507	206	0	
0	0	0	0	0	512	507	207	0	
1	0	0	0	0	507	509	207	0	
2	0	0	0	0	507	510	207	0	
3	0	0	0	0	503	509	207	0	
4	0	0	0	0	505	509	207	0	
5	0	0	0	0	505	507	207	0	
6	0	0	0	0	505	508	207	0	
7	0	0	0	0	509	510	207	0	
8	0	0	0	0	508	510	207	0	
9	0	0	0	0	508	508	207	0	
10	0	0	0	0	511	507	207	0	
11	0	0	0	0	512	509	207	0	
12	0	0	0	0	514	507	207	0	
13	0	0	0	0	514	507	206	0	
14	0	0	0	0	512	507	207	0	
15	0	0	0	0	513	508	206	0	
0	0	0	0	0	513	508	206	0	
1	0	0	0	0	512	508	206	0	
2	0	0	0	0	510	504	206	0	
3	0	0	0	0	508	508	205	0	
4	0	0	0	0	508	508	206	0	
5	0	0	0	0	505	508	206	0	
6	0	0	0	0	507	507	206	0	
7	0	0	0	0	506	510	207	0	
8	0	0	0	0	502	509	206	0	
9	0	0	0	0	504	510	206	0	
10	0	0	0	0	507	508	206	0	
11	0	0	0	0	510	511	206	0	
12	0	0	0	0	510	508	205	0	
13	0	0	0	0	508	509	206	0	
14	0	0	0	0	511	510	206	0	
15	0	0	0	0	509	509	206	0	
0	0	0	0	0	514	508	206	0	
1	0	0	0	0	515	505	206	0	
2	0	0	0	0	516	506	205	0	
3	0	0	0	0	516	508	206	0	
4	0	0	0	0	515	507	206	0	
5	0	0	0	0	515	507	206	0	
6	0	0	0	0	518	508	206	0	
7	0	0	0	0	513	508	206	0	
8	0	0	0	0	509	507	206	0	
9	0	0	0	0	507	504	206	0	
10	0	0	0	0	510	508	206	0	
11	0	0	0	0	510	511	207	0	
12	0	0	0	0	506	508	207	0	
13	0	0	0	0	509	509	206	0	
14	0	0	0	0	513	508	207	0	
15	0	0	0	0	510	510	205	0	
0	0	0	0	0	508	509	205	0	
1	0	0	0	0	513	508	205	0	
2	0	0	0	0	518	508	204	0	
3	0	0	0	0	516	506	204	0	
4	0	0	0	0	514	508	205	0	
5	0	0	0	0	514	508	205	0	
6	0	0	0	0	513	508	204	0	
7	0	0	0	0	511	507	203	0	
8	0	0	0	0	511	505	203	0	
9	0	0	0	0	511	505	203	0	
10	0	0	0	0	511	507	203	0	
11	0	0	0	0	510	508	203	0	
12	0	0	0	0	508	508	203	0	
13	0	0	0	0	511	508	203	0	
14	0	0	0	0	509	508	203	0	
15	0	0	0	0	510	508	203	0	
0	0	0	0	0	509	510	203	0	
1	0	0	0	0	509	510	204	0	
2	0	0	0	0	507	511	203	0	
3	0	0	0	0	510	511	203	0	
4	0	0	0	0	513	510	204	0	
5	0	0	0	0	512	508	203	0	
6	0	0	0	0	515	508	203	0	
7	0	0	0	0	517	508	203	0	
8	0	0	0	0	517	505	203	0	
9	0	0	0	0	521	505	203	0	
10	0	0	0	0	512	505	204	0	
11	0	0	0	0	506	505	204	0	
12	0	0	0	0	508	510	204	0	
13	0	0	0	0	509	510	205	0	
14	0	0	0	0	507	508	205	0	
15	0	0	0	0	500	505	205	0	
0	0	0	0	0	501	507	204	0	
1	0	0	0	0	502	507	205	0	
2	0	0	0	0	505	507	204	0	
3	0	0	0	0	510	508	204	0	
4	0	0	0	0	513	508	204	0	
5	0	0	0	0	511	507	204	0	
6	0	0	0	0	513	509	205	0	
7	0	0	0	0	512	509	205	0	
8	0	0	0	0	513	509	204	0	
9	0	0	0	0	515	507	205	0	
10	0	0	0	0	513	511	204	0	
11	0	0	0	0	513	508	204	0	
12	0	0	0	0	513	511	205	0	
13	0	0	0	0	514	506	205	0	
14	0	0	0	0	511	505	205	0	
15	0	0	0	0	510	506	205	0	
0	0	0	0	0	511	504	205	0	
1	0	0	0	0	512	505	206	0	
2	0	0	0	0	510	507	206	0	
3	0	0	0	0	509	507	206	0	
4	0	0	0	0	511	506	206	0	
5	0	0	0	0	512	508	206	0	
6	0	0	0	0	513	508	206	0	
7	0	0	0	0	512	510	205	0	
8	0	0	0	0	511	508	206	0	
9	0	0	0	0	510	511	206	0	
10	0	0	0	0	512	510	206	0	
11	0	0	0	0	513	514	205	0	
12	0	0	0	0	509	509	205	0	
13	0	0	0	0	513	508	204	0	
14	0	0	0	0	513	509	205	0	
15	0	0	0	0	510	507	204	0	
0	0	0	0	0	512	508	205	0	
1	0	0	0	0	510	507	204	0	
2	0	0	0	0	510	507	204	0	
3	0	0	0	0	511	508	205	0	
4	0	0	0	0	511	510	204	0	
5	0	0	0	0	508	510	205	0	
6	0	0	0	0	509	507	204	0	
7	0	0	0	0	507	506	204	0	
8	0	0	0	0	508	507	205	0	
9	0	0	0	0	508	508	204	0	
10	0	0	0	0	511	509	204	0	
11	0	0	0	0	510	511	204	0	
12	0	0	0	0	509	507	204	0	
13	0	0	0	0	509	506	205	0	
14	0	0	0	0	511	507	204	0	
15	0	0	0	0	508	507	204	0	
0	0	0	0	0	507	507	204	0	
1	0	0	0	0	516	510	204	0	
2	0	0	0	0	519	508	204	0	
3	0	0	0	0	517	511	204	0	
4	0	0	0	0	510	507	204	0	
5	0	0	0	0	508	508	204	0	
6	0	0	0	0	508	508	205	0	
7	0	0	0	0	508	509	204	0	
8	0	0	0	0	508	509	204	0	
9	0	0	0	0	507	507	204	0	
10	0	0	0	0	508	508	204	0	
11	0	0	0	0	509	508	204	0	
12	0	0	0	0	509	506	204	0	
13	0	0	0	0	512	509	204	0	
14	0	0	0	0	512	509	204	0	
15	0	0	0	0	510	506	204	0	
0	0	0	0	0	509	508	204	0	
1	0	0	0	0	513	505	204	0	
2	0	0	0	0	513	507	204	0	
3	0	0	0	0	513	508	204	0	
4	0	0	0	0	511	509	204	0	
5	0	0	0	0	514	507	205	0	
6	0	0	0	0	513	506	204	0	
7	0	0	0	0	511	507	205	0	
8	0	0	0	0	512	508	204	0	
9	0	0	0	0	511	508	204	0	
10	0	0	0	0	509	509	204	0	
11	0	0	0	0	510	509	204	0	
12	0	0	0	0	510	507	204	0	
13	0	0	0	0	507	508	204	0	
14	0	0	0	0	510	508	205	0	
15	0	0	0	0	509	509	204	0	
0	0	0	0	0	509	509	205	0	
1	0	0	0	0	508	506	204	0	
2	0	0	0	0	510	509	204	0	
3	0	0	0	0	511	509	204	0	
4	0	0	0	0	513	510	204	0	
5	0	0	0	0	512	510	204	0	
6	0	0	0	0	512	510	204	0	
7	0	0	0	0	513	507	204	0	
8	0	0	0	0	513	508	205	0	
9	0	0	0	0	514	508	205	0	
10	0	0	0	0	511	509	204	0	
11	0	0	0	0	511	507	204	0	
12	0	0	0	0	515	509	205	0	
13	0	0	0	0	514	510	204	0	
14	0	0	0	0	510	508	204	0	
15	0	0	0	0	506	506	204	0	
0	0	0	0	0	508	506	204	0	
1	0	0	0	0	511	507	204	0	
2	0	0	0	0	508	507	204	0	
3	0	0	0	0	509	505	204	0	
4	0	0	0	0	511	506	204	0	
5	0	0	0	0	511	507	203	0	
6	0	0	0	0	510	508	203	0	
7	0	0	0	0	511	510	203	0	
8	0	0	0	0	511	509	202	0	
9	0	0	0	0	511	508	203	0	
10	0	0	0	0	510	511	203	0	
11	0	0	0	0	508	508	202	0	
12	0	0	0	0	513	510	203	0	
13	0	0	0	0	520	507	203	0	
14	0	0	0	0	520	508	203	0	
15	0	0	0	0	519	510	203	0	
0	0	0	0	0	512	506	203	0	
1	0	0	0	0	511	508	204	0	
2	0	0	0	0	508	508	203	0	
3	0	0	0	0	505	506	204	0	
4	0	0	0	0	500	504	205	0	
5	0	0	0	0	500	509	204	0	
6	0	0	0	0	505	509	204	0	
7	0	0	0	0	505	507	203	0	
8	0	0	0	0	507	507	203	0	
9	0	0	0	0	514	508	203	0	
10	0	0	0	0	520	510	204	0	
11	0	0	0	0	519	510	203	0	
12	0	0	0	0	516	511	203	0	
13	0	0	0	0	511	507	203	0	
14	0	0	0	0	515	510	202	0	
15	0	0	0	0	519	510	202	0	
0	0	0	0	0	510	511	201	0	
1	0	0	0	0	513	510	201	0	
2	0	0	0	0	514	509	200	0	
3	0	0	0	0	516	505	200	0	
4	0	0	0	0	515	509	201	0	
5	0	0	0	0	514	507	201	0	
6	0	0	0	0	510	506	201	0	
7	0	0	0	0	510	505	202	0	
8	0	0	0	0	510	506	200	0	
9	0	0	0	0	512	508	200	0	
10	0	0	0	0	510	508	201	0	
11	0	0	0	0	512	512	200	0	
12	0	0	0	0	511	510	199	0	
13	0	0	0	0	509	509	200	0	
14	0	0	0	0	510	508	201	0	
15	0	0	0	0	513	508	201	0	
0	0	0	0	0	512	508	201	0	
1	0	0	0	0	515	508	201	0	
2	0	0	0	0	515	508	199	0	
3	0	0	0	0	511	505	200	0	
4	0	0	0	0	515	507	199	0	
5	0	0	0	0	516	510	200	0	
6	0	0	0	0	513	509	200	0	
7	0	0	0	0	511	507	200	0	
8	0	0	0	0	508	508	199	0	
9	0	0	0	0	507	506	200	0	
10	0	0	0	0	505	507	200	0	
11	0	0	0	0	506	506	198	0	
12	0	0	0	0	507	506	198	0	
13	0	0	0	0	509	506	199	0	
14	0	0	0	0	507	506	199	0	
15	0	0	0	0	507	509	199	0	
0	0	0	0	0	505	508	198	0	
1	0	0	0	0	505	506	198	0	
2	0	0	0	0	508	509	198	0	
3	0	0	0	0	510	509	197	0	
4	0	0	0	0	515	508	198	0	
5	0	0	0	0	516	511	198	0	
6	0	0	0	0	514	508	197	0	
7	0	0	0	0	513	509	197	0	
8	0	0	0	0	512	509	197	0	
9	0	0	0	0	512	511	196	0	
10	0	0	0	0	512	508	195	0	
11	0	0	0	0	513	505	196	0	
12	0	0	0	0	512	509	196	0	
13	0	0	0	0	510	509	196	0	
14	0	0	0	0	504	507	196	0	
15	0	0	0	0	506	508	196	0	
0	0	0	0	0	507	507	195	0	
1	0	0	0	0	507	506	195	0	
2	0	0	0	0	505	507	195	0	
3	0	0	0	0	506	508	195	0	
4	0	0	0	0	510	508	195	0	
5	0	0	0	0	514	508	195	0	
6	0	0	0	0	513	505	195	0	
7	0	0	0	0	514	509	195	0	
8	0	0	0	0	512	509	196	0	
9	0	0	0	0	510	507	195	0	
10	0	0	0	0	513	508	196	0	
11	0	0	0	0	515	510	196	0	
12	0	0	0	0	519	508	196	0	
13	0	0	0	0	516	509	197	0	
14	0	0	0	0	513	510	197	0	
15	0	0	0	0	511	509	197	0	
0	0	0	0	0	507	506	197	0	
1	0	0	0	0	511	508	196	0	
2	0	0	0	0	514	507	197	0	
3	0	0	0	0	506	505	196	0	
4	0	0	0	0	501	504	196	0	
5	0	0	0	0	503	508	197	0	
6	0	0	0	0	512	510	198	0	
7	0	0	0	0	515	508	197	0	
8	0	0	0	0	512	509	199	0	
9	0	0	0	0	508	507	198	0	
10	0	0	0	0	512	509	199	0	
11	0	0	0	0	515	511	198	0	
12	0	0	0	0	519	507	199	0	
13	0	0	0	0	506	509	200	0	
14	0	0	0	0	507	511	199	0	
15	0	0	0	0	508	511	199	0	
0	0	0	0	0	512	510	199	0	
1	0	0	0	0	515	511	199	0	
2	0	0	0	0	515	508	199	0	
3	0	0	0	0	512	505	199	0	
4	0	0	0	0	509	506	199	0	
5	0	0	0	0	508	505	198	0	
6	0	0	0	0	510	505	199	0	
7	0	0	0	0	505	505	199	0	
8	0	0	0	0	508	506	198	0	
9	0	0	0	0	507	505	198	0	
10	0	0	0	0	511	507	197	0	
11	0	0	0	0	515	507	196	0	
12	0	0	0	0	515	508	193	0	
13	0	0	0	0	512	508	190	0	
14	0	0	0	0	513	508	189	0	
15	0	0	0	0	513	508	188	0	
0	0	0	0	0	511	508	188	0	
1	0	0	0	0	512	507	189	0	
2	0	0	0	0	511	506	189	0	
3	0	0	0	0	514	511	188	0	
4	0	0	0	0	515	511	189	0	
5	0	0	0	0	514	508	188	0	
6	0	0	0	0	513	507	187	0	
7	0	0	0	0	510	507	186	0	
8	0	0	0	0	510	508	184	0	
9	0	0	0	0	511	508	185	0	
10	0	0	0	0	509	507	185	0	
11	0	0	0	0	505	508	186	0	
12	0	0	0	0	505	508	185	0	
13	0	0	0	0	504	508	185	0	
14	0	0	0	0	504	507	184	0	
15	0	0	0	0	508	507	183	0	
0	0	0	0	0	507	507	184	0	
1	0	0	0	0	508	511	183	0	
2	0	0	0	0	510	511	184	0	
3	0	0	0	0	511	511	184	0	
4	0	0	0	0	515	510	184	0	
5	0	0	0	0	514	509	186	0	
6	0	0	0	0	512	509	186	0	
7	0	0	0	0	514	509	187	0	
8	0	0	0	0	514	508	187	0	
9	0	0	0	0	512	507	187	0	
10	0	0	0	0	515	506	188	0	
11	0	0	0	0	511	508	188	0	
12	0	0	0	0	508	509	188	0	
13	0	0	0	0	508	506	188	0	
14	0	0	0	0	507	508	188	0	
15	0	0	0	0	505	505	188	0	
0	0	0	0	0	506	507	188	0	
1	0	0	0	0	506	508	188	0	
2	0	0	0	0	504	505	189	0	
3	0	0	0	0	508	506	189	0	
4	0	0	0	0	506	504	188	0	
5	0	0	0	0	510	507	190	0	
6	0	0	0	0	511	506	190	0	
7	0	0	0	0	512	508	190	0	
8	0	0	0	0	515	508	191	0	
9	0	0	0	0	517	512	190	0	
10	0	0	0	0	516	510	191	0	
11	0	0	0	0	516	509	192	0	
12	0	0	0	0	517	509	191	0	
13	0	0	0	0	516	507	193	0	
14	0	0	0	0	514	507	193	0	
15	0	0	0	0	513	508	193	0	
0	0	0	0	0	510	507	194	0	
1	0	0	0	0	510	505	195	0	
2	0	0	0	0	513	509	194	0	
3	0	0	0	0	508	509	193	0	
4	0	0	0	0	510	507	193	0	
5	0	0	0	0	506	506	194	0	
6	0	0	0	0	507	506	193	0	
7	0	0	0	0	508	507	193	0	
8	0	0	0	0	508	507	192	0	
9	0	0	0	0	511	507	193	0	
10	0	0	0	0	511	510	193	0	
11	0	0	0	0	512	508	194	0	
12	0	0	0	0	517	509	194	0	
13	0	0	0	0	516	508	195	0	
14	0	0	0	0	516	511	194	0	
15	0	0	0	0	516	511	194	0	
0	0	0	0	0	514	510	195	0	
1	0	0	0	0	517	509	195	0	
2	0	0	0	0	510	507	195	0	
3	0	0	0	0	510	508	195	0	
4	0	0	0	0	508	509	195	0	
5	0	0	0	0	509	507	195	0	
6	0	0	0	0	506	507	194	0	
7	0	0	0	0	507	506	195	0	
8	0	0	0	0	513	508	195	0	
9	0	0	0	0	511	508	195	0	
10	0	0	0	0	510	510	196	0	
11	0	0	0	0	508	509	196	0	
12	0	0	0	0	509	507	195	0	
13	0	0	0	0	506	510	196	0	
14	0	0	0	0	511	508	196	0	
15	0	0	0	0	512	510	196	0	
0	0	0	0	0	513	510	196	0	
1	0	0	0	0	513	510	196	0	
2	0	0	0	0	514	510	196	0	
3	0	0	0	0	515	510	197	0	
4	0	0	0	0	516	507	197	0	
5	0	0	0	0	512	509	197	0	
6	0	0	0	0	513	509	197	0	
7	0	0	0	0	512	509	197	0	
8	0	0	0	0	512	506	197	0	
9	0	0	0	0	511	506	197	0	
10	0	0	0	0	510	506	196	0	
11	0	0	0	0	509	507	196	0	
12	0	0	0	0	504	505	196	0	
13	0	0	0	0	507	507	196	0	
14	0	0	0	0	509	506	195	0	
15	0	0	0	0	510	508	195	0	
0	0	0	0	0	507	508	195	0	
1	0	0	0	0	509	506	195	0	
2	0	0	0	0	513	509	196	0	
3	0	0	0	0	515	509	197	0	
4	0	0	0	0	514	510	196	0	
5	0	0	0	0	514	511	197	0	
6	0	0	0	0	512	510	197	0	
7	0	0	0	0	521	508	196	0	
8	0	0	0	0	523	512	196	0	
9	0	0	0	0	520	509	196	0	
10	0	0	0	0	513	508	196	0	
11	0	0	0	0	510	508	197	0	
12	0	0	0	0	504	505	197	0	
13	0	0	0	0	507	505	196	0	
14	0	0	0	0	500	507	196	0	
15	0	0	0	0	503	508	197	0	
0	0	0	0	0	504	506	196	0	
1	0	0	0	0	502	505	196	0	
2	0	0	0	0	506	504	196	0	
3	0	0	0	0	509	508	195	0	
4	0	0	0	0	511	508	197	0	
5	0	0	0	0	511	510	196	0	
6	0	0	0	0	512	510	196	0	
7	0	0	0	0	515	511	196	0	
8	0	0	0	0	516	508	196	0	
9	0	0	0	0	517	509	197	0	
10	0	0	0	0	518	508	197	0	
11	0	0	0	0	515	508	197	0	
12	0	0	0	0	515	507	198	0	
13	0	0	0	0	511	509	198	0	
14	0	0	0	0	512	508	198	0	
15	0	0	0	0	512	508	197	0	
0	0	0	0	0	511	508	198	0	
1	0	0	0	0	510	508	198	0	
2	0	0	0	0	507	508	197	0	
3	0	0	0	0	506	507	197	0	
4	0	0	0	0	506	509	198	0	
5	0	0	0	0	507	508	196	0	
6	0	0	0	0	508	511	197	0	
7	0	0	0	0	509	507	199	0	
8	0	0	0	0	507	507	198	0	
9	0	0	0	0	510	508	198	0	
10	0	0	0	0	513	509	197	0	
11	0	0	0	0	511	509	198	0	
12	0	0	0	0	511	508	198	0	
13	0	0	0	0	514	510	198	0	
14	0	0	0	0	515	510	198	0	
15	0	0	0	0	513	510	199	0	
0	0	0	0	0	513	508	198	0	
1	0	0	0	0	513	508	198	0	
2	0	0	0	0	515	507	198	0	
3	0	0	0	0	514	507	199	0	
4	0	0	0	0	513	507	198	0	
5	0	0	0	0	511	507	199	0	
6	0	0	0	0	508	508	198	0	
7	0	0	0	0	510	506	198	0	
8	0	0	0	0	507	505	198	0	
9	0	0	0	0	512	507	199	0	
10	0	0	0	0	508	507	198	0	
11	0	0	0	0	507	509	199	0	
12	0	0	0	0	508	509	199	0	
13	0	0	0	0	510	508	198	0	
14	0	0	0	0	511	509	199	0	
15	0	0	0	0	511	511	199	0	
0	0	0	0	0	512	511	199	0	
1	0	0	0	0	512	509	199	0	
2	0	0	0	0	512	510	200	0	
3	0	0	0	0	512	508	199	0	
4	0	0	0	0	515	507	199	0	
5	0	0	0	0	513	508	200	0	
6	0	0	0	0	514	506	199	0	
7	0	0	0	0	511	509	199	0	
8	0	0	0	0	506	510	199	0	
9	0	0	0	0	511	509	199	0	
10	0	0	0	0	509	507	199	0	
11	0	0	0	0	504	507	199	0	
12	0	0	0	0	506	505	199	0	
13	0	0	0	0	507	508	199	0	
14	0	0	0	0	506	506	199	0	
15	0	0	0	0	504	507	199	0	
0	0	0	0	0	508	509	199	0	
1	0	0	0	0	511	511	199	0	
2	0	0	0	0	512	507	199	0	
3	0	0	0	0	513	505	199	0	
4	0	0	0	0	519	508	199	0	
5	0	0	0	0	519	508	199	0	
6	0	0	0	0	521	507	200	0	
7	0	0	0	0	521	508	200	0	
8	0	0	0	0	522	508	201	0	
9	0	0	0	0	517	508	200	0	
10	0	0	0	0	513	509	200	0	
11	0	0	0	0	511	509	200	0	
12	0	0	0	0	510	508	200	0	
13	0	0	0	0	508	508	200	0	
14	0	0	0	0	507	507	200	0	
15	0	0	0	0	509	506	200	0	
0	0	0	0	0	511	504	201	0	
1	0	0	0	0	510	505	200	0	
2	0	0	0	0	509	506	200	0	
3	0	0	0	0	504	509	200	0	
4	0	0	0	0	506	510	200	0	
5	0	0	0	0	510	509	201	0	
6	0	0	0	0	510	507	200	0	
7	0	0	0	0	512	507	200	0	
8	0	0	0	0	515	508	201	0	
9	0	0	0	0	524	508	201	0	
10	0	0	0	0	518	510	201	0	
11	0	0	0	0	516	508	201	0	
12	0	0	0	0	518	508	201	0	
13	0	0	0	0	517	509	200	0	
14	0	0	0	0	513	508	199	0	
15	0	0	0	0	506	507	199	0	
0	0	0	0	0	500	510	200	0	
1	0	0	0	0	497	507	200	0	
2	0	0	0	0	496	508	200	0	
3	0	0	0	0	501	504	200	0	
4	0	0	0	0	503	506	200	0	
5	0	0	0	0	508	508	200	0	
6	0	0	0	0	512	509	200	0	
7	0	0	0	0	511	506	200	0	
8	0	0	0	0	511	507	200	0	
9	0	0	0	0	512	509	200	0	
10	0	0	0	0	514	508	199	0	
11	0	0	0	0	516	510	199	0	
12	0	0	0	0	521	508	199	0	
13	0	0	0	0	519	510	201	0	
14	0	0	0	0	518	509	200	0	
15	0	0	0	0	520	510	200	0	
0	0	0	0	0	515	506	200	0	
1	0	0	0	0	515	506	200	0	
2	0	0	0	0	516	510	200	0	
3	0	0	0	0	510	508	200	0	
4	0	0	0	0	513	508	201	0	
5	0	0	0	0	510	508	201	0	
6	0	0	0	0	502	506	201	0	
7	0	0	0	0	505	509	202	0	
8	0	0	0	0	503	506	203	0	
9	0	0	0	0	504	505	204	0	
10	0	0	0	0	507	506	204	0	
11	0	0	0	0	511	507	204	0	
12	0	0	0	0	511	508	203	0	
13	0	0	0	0	511	506	203	0	
14	0	0	0	0	513	508	203	0	
15	0	0	0	0	511	508	203	0	
0	0	0	0	0	513	508	203	0	
1	0	0	0	0	513	510	203	0	
2	0	0	0	0	516	509	202	0	
3	0	0	0	0	515	508	202	0	
4	0	0	0	0	515	509	202	0	
5	0	0	0	0	515	510	202	0	
6	0	0	0	0	513	508	202	0	
7	0	0	0	0	510	510	202	0	
8	0	0	0	0	508	507	202	0	
9	0	0	0	0	510	508	203	0	
10	0	0	0	0	508	510	203	0	
11	0	0	0	0	508	506	204	0	
12	0	0	0	0	508	508	204	0	
13	0	0	0	0	506	507	204	0	
14	0	0	0	0	504	506	203	0	
15	0	0	0	0	508	506	203	0	
0	0	0	0	0	509	507	202	0	
1	0	0	0	0	509	506	202	0	
2	0	0	0	0	509	508	202	0	
3	0	0	0	0	512	509	202	0	
4	0	0	0	0	514	507	203	0	
5	0	0	0	0	514	509	202	0	
6	0	0	0	0	515	508	202	0	
7	0	0	0	0	517	507	202	0	
8	0	0	0	0	513	510	201	0	
9	0	0	0	0	514	512	200	0	
10	0	0	0	0	517	510	200	0	
11	0	0	0	0	511	508	201	0	
12	0	0	0	0	510	507	200	0	
13	0	0	0	0	508	506	200	0	
14	0	0	0	0	510	505	200	0	
15	0	0	0	0	507	505	201	0	
0	0	0	0	0	507	506	201	0	
1	0	0	0	0	504	507	201	0	
2	0	0	0	0	506	505	201	0	
3	0	0	0	0	508	507	201	0	
4	0	0	0	0	508	508	201	0	
5	0	0	0	0	508	508	201	0	
6	0	0	0	0	510	508	200	0	
7	0	0	0	0	513	509	202	0	
8	0	0	0	0	517	509	200	0	
9	0	0	0	0	516	509	200	0	
10	0	0	0	0	519	510	201	0	
11	0	0	0	0	518	508	202	0	
12	0	0	0	0	513	510	201	0	
13	0	0	0	0	511	509	203	0	
14	0	0	0	0	517	509	201	0	
15	0	0	0	0	516	508	202	0	
0	0	0	0	0	510	509	202	0	
1	0	0	0	0	510	508	202	0	
2	0	0	0	0	508	507	202	0	
3	0	0	0	0	506	508	201	0	
4	0	0	0	0	505	507	201	0	
5	0	0	0	0	505	506	201	0	
6	0	0	0	0	507	507	201	0	
7	0	0	0	0	508	508	201	0	
8	0	0	0	0	509	508	201	0	
9	0	0	0	0	510	509	201	0	
10	0	0	0	0	510	510	202	0	
11	0	0	0	0	513	509	202	0	
12	0	0	0	0	515	511	202	0	
13	0	0	0	0	513	510	202	0	
14	0	0	0	0	514	511	202	0	
15	0	0	0	0	516	510	203	0	
0	0	0	0	0	515	509	202	0	
1	0	0	0	0	513	508	201	0	
2	0	0	0	0	513	507	201	0	
3	0	0	0	0	511	510	202	0	
4	0	0	0	0	509	505	201	0	
5	0	0	0	0	509	505	202	0	
6	0	0	0	0	508	504	201	0	
7	0	0	0	0	509	507	201	0	
8	0	0	0	0	505	505	201	0	
9	0	0	0	0	511	509	201	0	
10	0	0	0	0	503	506	201	0	
11	0	0	0	0	504	509	201	0	
12	0	0	0	0	509	507	201	0	
13	0	0	0	0	509	509	201	0	
14	0	0	0	0	510	508	201	0	
15	0	0	0	0	511	510	201	0	
0	0	0	0	0	514	508	201	0	
1	0	0	0	0	512	507	201	0	
2	0	0	0	0	519	512	202	0	
3	0	0	0	0	517	511	202	0	
4	0	0	0	0	516	508	202	0	
5	0	0	0	0	516	507	202	0	
6	0	0	0	0	513	507	202	0	
7	0	0	0	0	511	507	202	0	
8	0	0	0	0	512	508	201	0	
9	0	0	0	0	511	507	201	0	
10	0	0	0	0	508	508	202	0	
11	0	0	0	0	506	507	202	0	
12	0	0	0	0	504	509	202	0	
13	0	0	0	0	508	507	202	0	
14	0	0	0	0	510	507	201	0	
15	0	0	0	0	512	506	202	0	
0	0	0	0	0	508	507	202	0	
1	0	0	0	0	512	506	201	0	
2	0	0	0	0	511	509	201	0	
3	0	0	0	0	510	511	203	0	
4	0	0	0	0	514	509	202	0	
5	0	0	0	0	515	510	203	0	
6	0	0	0	0	511	510	203	0	
7	0	0	0	0	515	510	203	0	
8	0	0	0	0	518	510	203	0	
9	0	0	0	0	517	508	203	0	
10	0	0	0	0	522	505	203	0	
11	0	0	0	0	518	505	203	0	
12	0	0	0	0	511	507	203	0	
13	0	0	0	0	507	508	203	0	
14	0	0	0	0	504	508	203	0	
15	0	0	0	0	503	508	203	0	
0	0	0	0	0	504	507	203	0	
1	0	0	0	0	501	508	203	0	
2	0	0	0	0	502	508	203	0	
3	0	0	0	0	500	508	203	0	
4	0	0	0	0	504	505	203	0	
5	0	0	0	0	511	507	202	0	
6	0	0	0	0	508	509	203	0	
7	0	0	0	0	515	508	203	0	
8	0	0	0	0	523	509	203	0	
9	0	0	0	0	521	509	203	0	
10	0	0	0	0	518	509	203	0	
11	0	0	0	0	518	508	203	0	
12	0	0	0	0	515	510	203	0	
13	0	0	0	0	518	509	203	0	
14	0	0	0	0	511	507	202	0	
15	0	0	0	0	505	507	202	0	
0	0	0	0	0	504	506	203	0	
1	0	0	0	0	513	507	203	0	
2	0	0	0	0	511	507	203	0	
3	0	0	0	0	512	506	203	0	
4	0	0	0	0	507	508	203	0	
5	0	0	0	0	508	508	203	0	
6	0	0	0	0	508	507	203	0	
7	0	0	0	0	506	506	203	0	
8	0	0	0	0	504	508	203	0	
9	0	0	0	0	509	507	203	0	
10	0	0	0	0	516	509	204	0	
11	0	0	0	0	515	509	203	0	
12	0	0	0	0	515	509	203	0	
13	0	0	0	0	512	509	204	0	
14	0	0	0	0	512	509	204	0	
15	0	0	0	0	516	507	204	0	
0	0	0	0	0	517	509	203	0	
1	0	0	0	0	516	509	203	0	
2	0	0	0	0	514	508	203	0	
3	0	0	0	0	511	507	203	0	
4	0	0	0	0	508	508	203	0	
5	0	0	0	0	508	506	203	0	
6	0	0	0	0	507	504	203	0	
7	0	0	0	0	506	507	204	0	
8	0	0	0	0	504	505	204	0	
9	0	0	0	0	504	509	204	0	
10	0	0	0	0	505	508	203	0	
11	0	0	0	0	505	507	203	0	
12	0	0	0	0	508	510	203	0	
13	0	0	0	0	508	510	203	0	
14	0	0	0	0	510	509	203	0	
15	0	0	0	0	515	506	203	0	
0	0	0	0	0	517	510	202	0	
1	0	0	0	0	515	509	203	0	
2	0	0	0	0	516	510	203	0	
3	0	0	0	0	515	509	201	0	
4	0	0	0	0	514	508	201	0	
5	0	0	0	0	513	509	201	0	
6	0	0	0	0	514	507	201	0	
7	0	0	0	0	513	508	201	0	
8	0	0	0	0	510	508	200	0	
9	0	0	0	0	509	507	201	0	
10	0	0	0	0	504	508	201	0	
11	0	0	0	0	504	505	201	0	
12	0	0	0	0	503	504	201	0	
13	0	0	0	0	508	506	201	0	
14	0	0	0	0	510	509	201	0	
15	0	0	0	0	509	510	201	0	
0	0	0	0	0	511	508	200	0	
1	0	0	0	0	512	507	201	0	
2	0	0	0	0	512	509	201	0	
3	0	0	0	0	510	510	201	0	
4	0	0	0	0	509	508	201	0	
5	0	0	0	0	510	512	201	0	
6	0	0	0	0	514	508	201	0	
7	0	0	0	0	519	510	202	0	
8	0	0	0	0	516	510	202	0	
9	0	0	0	0	516	508	201	0	
10	0	0	0	0	513	506	201	0	
11	0	0	0	0	512	510	201	0	
12	0	0	0	0	510	510	201	0	
13	0	0	0	0	511	507	201	0	
14	0	0	0	0	508	506	202	0	
15	0	0	0	0	506	506	202	0	
0	0	0	0	0	508	509	201	0	
1	0	0	0	0	511	508	201	0	
2	0	0	0	0	510	510	201	0	
3	0	0	0	0	509	510	201	0	
4	0	0	0	0	508	508	200	0	
5	0	0	0	0	510	509	201	0	
6	0	0	0	0	509	509	201	0	
7	0	0	0	0	512	510	201	0	
8	0	0	0	0	516	510	201	0	
9	0	0	0	0	515	510	201	0	
10	0	0	0	0	515	508	201	0	
11	0	0	0	0	516	508	201	0	
12	0	0	0	0	515	508	201	0	
13	0	0	0	0	513	508	200	0	
14	0	0	0	0	512	509	201	0	
15	0	0	0	0	511	508	201	0	
0	0	0	0	0	512	507	200	0	
1	0	0	0	0	507	504	201	0	
2	0	0	0	0	512	507	200	0	
3	0	0	0	0	511	508	200	0	
4	0	0	0	0	505	506	201	0	
5	0	0	0	0	503	504	199	0	
6	0	0	0	0	506	504	201	0	
7	0	0	0	0	506	505	200	0	
8	0	0	0	0	505	510	199	0	
9	0	0	0	0	510	508	199	0	
10	0	0	0	0	511	510	200	0	
11	0	0	0	0	515	508	199	0	
12	0	0	0	0	516	508	200	0	
13	0	0	0	0	515	510	200	0	
14	0	0	0	0	514	508	199	0	
15	0	0	0	0	516	509	199	0	
0	0	0	0	0	513	508	200	0	
1	0	0	0	0	512	508	200	0	
2	0	0	0	0	510	507	200	0	
3	0	0	0	0	511	505	200	0	
4	0	0	0	0	511	506	200	0	
5	0	0	0	0	508	508	200	0	
6	0	0	0	0	508	506	199	0	
7	0	0	0	0	512	508	200	0	
8	0	0	0	0	508	508	200	0	
9	0	0	0	0	508	509	199	0	
10	0	0	0	0	506	507	199	0	
11	0	0	0	0	506	506	199	0	
12	0	0	0	0	504	508	199	0	
13	0	0	0	0	509	507	197	0	
14	0	0	0	0	505	506	197	0	
15	0	0	0	0	508	509	197	0	
0	0	0	0	0	510	509	197	0	
1	0	0	0	0	516	510	196	0	
2	0	0	0	0	518	510	196	0	
3	0	0	0	0	520	507	196	0	
4	0	0	0	0	521	508	196	0	
5	0	0	0	0	523	507	195	0	
6	0	0	0	0	525	508	196	0	
7	0	0	0	0	519	508	195	0	
8	0	0	0	0	512	508	195	0	
9	0	0	0	0	510	508	194	0	
10	0	0	0	0	508	508	195	0	
11	0	0	0	0	507	510	194	0	
12	0	0	0	0	503	507	193	0	
13	0	0	0	0	503	505	193	0	
14	0	0	0	0	503	507	193	0	
15	0	0	0	0	507	508	192	0	
0	0	0	0	0	510	506	191	0	
1	0	0	0	0	511	508	192	0	
2	0	0	0	0	512	508	192	0	
3	0	0	0	0	515	510	192	0	
4	0	0	0	0	516	510	191	0	
5	0	0	0	0	515	511	191	0	
6	0	0	0	0	516	510	192	0	
7	0	0	0	0	518	511	192	0	
8	0	0	0	0	516	508	192	0	
9	0	0	0	0	516	507	192	0	
10	0	0	0	0	516	508	192	0	
11	0	0	0	0	512	505	192	0	
12	0	0	0	0	513	507	192	0	
13	0	0	0	0	510	506	190	0	
14	0	0	0	0	508	506	192	0	
15	0	0	0	0	507	506	192	0	
0	0	0	0	0	507	503	192	0	
1	0	0	0	0	508	507	192	0	
2	0	0	0	0	510	507	191	0	
3	0	0	0	0	507	508	192	0	
4	0	0	0	0	508	507	192	0	
5	0	0	0	0	509	508	192	0	
6	0	0	0	0	509	508	192	0	
7	0	0	0	0	510	509	192	0	
8	0	0	0	0	512	508	192	0	
9	0	0	0	0	515	509	192	0	
10	0	0	0	0	515	508	192	0	
11	0	0	0	0	513	508	192	0	
12	0	0	0	0	514	509	192	0	
13	0	0	0	0	511	508	192	0	
14	0	0	0	0	512	507	193	0	
15	0	0	0	0	510	509	192	0	
0	0	0	0	0	507	508	193	0	
1	0	0	0	0	509	507	192	0	
2	0	0	0	0	506	508	193	0	
3	0	0	0	0	508	506	192	0	
4	0	0	0	0	506	507	192	0	
5	0	0	0	0	506	507	192	0	
6	0	0	0	0	508	510	192	0	
7	0	0	0	0	508	509	192	0	
8	0	0	0	0	507	508	192	0	
9	0	0	0	0	505	507	192	0	
10	0	0	0	0	510	507	192	0	
11	0	0	0	0	513	511	192	0	
12	0	0	0	0	512	509	192	0	
13	0	0	0	0	510	510	192	0	
14	0	0	0	0	517	511	192	0	
15	0	0	0	0	513	510	193	0	
0	0	0	0	0	509	511	193	0	
1	0	0	0	0	510	511	193	0	
2	0	0	0	0	513	508	193	0	
3	0	0	0	0	509	507	193	0	
4	0	0	0	0	509	505	193	0	
5	0	0	0	0	512	507	194	0	
6	0	0	0	0	511	506	193	0	
7	0	0	0	0	507	507	193	0	
8	0	0	0	0	508	508	194	0	
9	0	0	0	0	504	505	193	0	
10	0	0	0	0	504	508	193	0	
11	0	0	0	0	504	506	193	0	
12	0	0	0	0	508	507	193	0	
13	0	0	0	0	508	507	195	0	
14	0	0	0	0	513	510	195	0	
15	0	0	0	0	514	507	195	0	
0	0	0	0	0	518	512	197	0	
1	0	0	0	0	517	511	197	0	
2	0	0	0	0	515	507	197	0	
3	0	0	0	0	516	510	196	0	
4	0	0	0	0	518	508	197	0	
5	0	0	0	0	515	508	197	0	
6	0	0	0	0	516	510	197	0	
7	0	0	0	0	512	508	198	0	
8	0	0	0	0	508	506	198	0	
9	0	0	0	0	510	506	197	0	
10	0	0	0	0	509	506	198	0	
11	0	0	0	0	507	505	197	0	
12	0	0	0	0	509	505	197	0	
13	0	0	0	0	512	507	198	0	
14	0	0	0	0	509	507	198	0	
15	0	0	0	0	509	507	198	0	
0	0	0	0	0	509	510	197	0	
1	0	0	0	0	511	507	197	0	
2	0	0	0	0	512	511	198	0	
3	0	0	0	0	511	511	198	0	
4	0	0	0	0	510	510	198	0	
5	0	0	0	0	513	508	197	0	
6	0	0	0	0	517	506	196	0	
7	0	0	0	0	517	508	195	0	
8	0	0	0	0	516	508	197	0	
9	0	0	0	0	515	508	196	0	
10	0	0	0	0	517	509	197	0	
11	0	0	0	0	515	507	196	0	
12	0	0	0	0	514	509	198	0	
13	0	0	0	0	513	511	198	0	
14	0	0	0	0	510	510	197	0	
15	0	0	0	0	511	508	197	0	
0	0	0	0	0	514	507	197	0	
1	0	0	0	0	514	508	197	0	
2	0	0	0	0	510	508	198	0	
3	0	0	0	0	509	507	198	0	
4	0	0	0	0	508	510	198	0	
5	0	0	0	0	507	510	197	0	
6	0	0	0	0	505	508	197	0	
7	0	0	0	0	503	508	197	0	
8	0	0	0	0	509	510	197	0	
9	0	0	0	0	511	512	197	0	
10	0	0	0	0	516	510	197	0	
11	0	0	0	0	518	508	197	0	
12	0	0	0	0	515	505	197	0	
13	0	0	0	0	518	508	197	0	
14	0	0	0	0	515	505	198	0	
15	0	0	0	0	512	506	198	0	
0	0	0	0	0	511	509	198	0	
1	0	0	0	0	505	507	199	0	
2	0	0	0	0	503	507	197	0	
3	0	0	0	0	504	507	198	0	
4	0	0	0	0	507	507	198	0	
5	0	0	0	0	505	510	197	0	
6	0	0	0	0	504	508	197	0	
7	0	0	0	0	504	507	196	0	
8	0	0	0	0	515	509	197	0	
9	0	0	0	0	510	509	197	0	
10	0	0	0	0	510	509	198	0	
11	0	0	0	0	512	509	198	0	
12	0	0	0	0	519	510	198	0	
13	0	0	0	0	520	508	197	0	
14	0	0	0	0	515	508	197	0	
15	0	0	0	0	512	510	197	0	
0	0	0	0	0	513	506	197	0	
1	0	0	0	0	517	507	197	0	
2	0	0	0	0	518	505	196	0	
3	0	0	0	0	513	508	197	0	
4	0	0	0	0	515	506	197	0	
5	0	0	0	0	510	507	197	0	
6	0	0	0	0	506	505	196	0	
7	0	0	0	0	505	507	198	0	
8	0	0	0	0	504	510	198	0	
9	0	0	0	0	502	505	197	0	
10	0	0	0	0	501	506	197	0	
11	0	0	0	0	504	507	196	0	
12	0	0	0	0	505	508	197	0	
13	0	0	0	0	508	507	199	0	
14	0	0	0	0	518	508	197	0	
15	0	0	0	0	519	509	198	0	
0	0	0	0	0	515	510	196	0	
1	0	0	0	0	512	510	196	0	
2	0	0	0	0	514	508	197	0	
3	0	0	0	0	516	507	197	0	
4	0	0	0	0	514	508	198	0	
5	0	0	0	0	509	511	197	0	
6	0	0	0	0	508	510	197	0	
7	0	0	0	0	509	508	198	0	
8	0	0	0	0	511	509	198	0	
9	0	0	0	0	509	509	196	0	
10	0	0	0	0	511	507	199	0	
11	0	0	0	0	512	510	198	0	
12	0	0	0	0	513	510	199	0	
13	0	0	0	0	512	508	199	0	
14	0	0	0	0	512	508	199	0	
15	0	0	0	0	510	507	198	0	
0	0	0	0	0	509	507	199	0	
1	0	0	0	0	509	507	199	0	
2	0	0	0	0	507	508	199	0	
3	0	0	0	0	508	510	200	0	
4	0	0	0	0	508	507	200	0	
5	0	0	0	0	511	506	200	0	
6	0	0	0	0	516	508	198	0	
7	0	0	0	0	517	508	199	0	
8	0	0	0	0	519	508	199	0	
9	0	0	0	0	517	509	199	0	
10	0	0	0	0	520	509	198	0	
11	0	0	0	0	518	507	199	0	
12	0	0	0	0	512	505	199	0	
13	0	0	0	0	507	507	199	0	
14	0	0	0	0	507	507	198	0	
15	0	0	0	0	504	507	199	0	
0	0	0	0	0	505	507	200	0	
1	0	0	0	0	502	505	200	0	
2	0	0	0	0	506	507	199	0	
3	0	0	0	0	509	508	199	0	
4	0	0	0	0	506	508	199	0	
5	0	0	0	0	507	509	200	0	
6	0	0	0	0	508	509	200	0	
7	0	0	0	0	512	508	201	0	
8	0	0	0	0	515	510	201	0	
9	0	0	0	0	513	510	201	0	
10	0	0	0	0	512	508	201	0	
11	0	0	0	0	514	510	200	0	
12	0	0	0	0	516	511	201	0	
13	0	0	0	0	516	508	201	0	
14	0	0	0	0	514	508	200	0	
15	0	0	0	0	510	507	200	0	
0	0	0	0	0	511	508	200	0	
1	0	0	0	0	508	509	199	0	
2	0	0	0	0	504	508	199	0	
3	0	0	0	0	508	506	198	0	
4	0	0	0	0	507	508	198	0	
5	0	0	0	0	508	508	198	0	
6	0	0	0	0	510	507	198	0	
7	0	0	0	0	510	508	198	0	
8	0	0	0	0	511	507	198	0	
9	0	0	0	0	508	509	197	0	
10	0	0	0	0	507	507	199	0	
11	0	0	0	0	512	507	198	0	
12	0	0	0	0	519	511	199	0	
13	0	0	0	0	515	507	199	0	
14	0	0	0	0	512	505	200	0	
15	0	0	0	0	516	507	200	0	
0	0	0	0	0	519	508	199	0	
1	0	0	0	0	519	508	200	0	
2	0	0	0	0	515	505	200	0	
3	0	0	0	0	511	507	200	0	
4	0	0	0	0	512	508	201	0	
5	0	0	0	0	509	507	201	0	
6	0	0	0	0	509	508	201	0	
7	0	0	0	0	504	507	201	0	
8	0	0	0	0	507	508	200	0	
9	0	0	0	0	507	508	200	0	
10	0	0	0	0	506	508	201	0	
11	0	0	0	0	506	508	201	0	
12	0	0	0	0	508	508	201	0	
13	0	0	0	0	509	509	202	0	
14	0	0	0	0	508	509	201	0	
15	0	0	0	0	512	509	203	0	
0	0	0	0	0	513	509	201	0	
1	0	0	0	0	516	511	203	0	
2	0	0	0	0	513	510	203	0	
3	0	0	0	0	513	507	203	0	
4	0	0	0	0	512	508	203	0	
5	0	0	0	0	516	510	204	0	
6	0	0	0	0	512	509	204	0	
7	0	0	0	0	510	508	205	0	
8	0	0	0	0	505	508	204	0	
9	0	0	0	0	507	507	205	0	
10	0	0	0	0	508	507	205	0	
11	0	0	0	0	507	507	206	0	
12	0	0	0	0	507	506	206	0	
13	0	0	0	0	505	506	205	0	
14	0	0	0	0	508	508	206	0	
15	0	0	0	0	507	506	206	0	
0	0	0	0	0	505	505	206	0	
1	0	0	0	0	511	508	207	0	
2	0	0	0	0	513	511	206	0	
3	0	0	0	0	510	507	206	0	
4	0	0	0	0	511	508	205	0	
5	0	0	0	0	517	509	205	0	
6	0	0	0	0	521	511	206	0	
7	0	0	0	0	519	509	205	0	
8	0	0	0	0	515	506	206	0	
9	0	0	0	0	514	508	205	0	
10	0	0	0	0	513	506	205	0	
11	0	0	0	0	514	508	204	0	
12	0	0	0	0	509	507	205	0	
13	0	0	0	0	507	508	206	0	
14	0	0	0	0	509	506	206	0	
15	0	0	0	0	506	508	206	0	
0	0	0	0	0	507	507	205	0	
1	0	0	0	0	509	507	205	0	
2	0	0	0	0	512	508	204	0	
3	0	0	0	0	511	509	205	0	
4	0	0	0	0	510	507	204	0	
5	0	0	0	0	511	507	206	0	
6	0	0	0	0	515	511	205	0	
7	0	0	0	0	511	509	205	0	
8	0	0	0	0	505	510	205	0	
9	0	0	0	0	506	511	204	0	
10	0	0	0	0	507	506	204	0	
11	0	0	0	0	508	509	204	0	
12	0	0	0	0	509	507	204	0	
13	0	0	0	0	509	508	205	0	
14	0	0	0	0	515	509	204	0	
15	0	0	0	0	515	508	205	0	
0	0	0	0	0	519	508	204	0	
1	0	0	0	0	514	509	205	0	
2	0	0	0	0	511	508	204	0	
3	0	0	0	0	509	507	204	0	
4	0	0	0	0	509	508	204	0	
5	0	0	0	0	508	508	204	0	
6	0	0	0	0	509	508	203	0	
7	0	0	0	0	507	508	204	0	
8	0	0	0	0	509	507	204	0	
9	0	0	0	0	512	509	204	0	
10	0	0	0	0	514	508	204	0	
11	0	0	0	0	522	512	204	0	
12	0	0	0	0	514	506	203	0	
13	0	0	0	0	514	507	202	0	
14	0	0	0	0	513	508	202	0	
15	0	0	0	0	515	511	202	0	
0	0	0	0	0	521	508	201	0	
1	0	0	0	0	527	507	202	0	
2	0	0	0	0	521	508	202	0	
3	0	0	0	0	515	506	201	0	
4	0	0	0	0	513	508	201	0	
5	0	0	0	0	510	507	201	0	
6	0	0	0	0	510	506	201	0	
7	0	0	0	0	508	507	201	0	
8	0	0	0	0	505	505	200	0	
9	0	0	0	0	506	507	201	0	
10	0	0	0	0	507	508	200	0	
11	0	0	0	0	506	505	201	0	
12	0	0	0	0	504	508	201	0	
13	0	0	0	0	508	507	201	0	
14	0	0	0	0	510	509	201	0	
15	0	0	0	0	515	508	201	0	
0	0	0	0	0	516	509	201	0	
1	0	0	0	0	515	510	199	0	
2	0	0	0	0	511	510	200	0	
3	0	0	0	0	507	509	200	0	
4	0	0	0	0	512	511	200	0	
5	0	0	0	0	517	509	199	0	
6	0	0	0	0	514	509	199	0	
7	0	0	0	0	510	510	199	0	
8	0	0	0	0	508	508	199	0	
9	0	0	0	0	506	507	200	0	
10	0	0	0	0	506	505	199	0	
11	0	0	0	0	507	507	199	0	
12	0	0	0	0	506	506	199	0	
13	0	0	0	0	504	505	199	0	
14	0	0	0	0	502	508	199	0	
15	0	0	0	0	505	508	199	0	
0	0	0	0	0	501	507	199	0	
1	0	0	0	0	511	507	199	0	
2	0	0	0	0	518	510	199	0	
3	0	0	0	0	514	510	199	0	
4	0	0	0	0	513	508	199	0	
5	0	0	0	0	515	507	199	0	
6	0	0	0	0	514	507	199	0	
7	0	0	0	0	514	508	198	0	
8	0	0	0	0	513	511	199	0	
9	0	0	0	0	513	508	199	0	
10	0	0	0	0	513	508	199	0	
11	0	0	0	0	512	508	200	0	
12	0	0	0	0	508	507	203	0	
13	0	0	0	0	507	508	204	0	
14	0	0	0	0	509	508	203	0	
15	0	0	0	0	513	509	204	0	
0	0	0	0	0	509	507	203	0	
1	0	0	0	0	508	509	204	0	
2	0	0	0	0	505	509	203	0	
3	0	0	0	0	503	507	204	0	
4	0	0	0	0	502	505	203	0	
5	0	0	0	0	502	508	203	0	
6	0	0	0	0	504	510	203	0	
7	0	0	0	0	515	509	202	0	
8	0	0	0	0	519	509	203	0	
9	0	0	0	0	519	508	202	0	
10	0	0	0	0	517	508	203	0	
11	0	0	0	0	512	508	203	0	
12	0	0	0	0	511	509	203	0	
13	0	0	0	0	507	507	203	0	
14	0	0	0	0	503	507	204	0	
15	0	0	0	0	505	508	204	0	
0	0	0	0	0	507	507	206	0	
1	0	0	0	0	508	508	205	0	
2	0	0	0	0	510	508	206	0	
3	0	0	0	0	509	509	206	0	
4	0	0	0	0	509	508	206	0	
5	0	0	0	0	510	508	205	0	
6	0	0	0	0	506	509	207	0	
7	0	0	0	0	510	507	206	0	
8	0	0	0	0	509	505	206	0	
9	0	0	0	0	507	502	205	0	
10	0	0	0	0	511	504	206	0	
11	0	0	0	0	513	507	206	0	
12	0	0	0	0	519	510	204	0	
13	0	0	0	0	519	508	202	0	
14	0	0	0	0	521	508	202	0	
15	0	0	0	0	528	509	202	0	
0	0	0	0	0	519	509	201	0	
1	0	0	0	0	518	511	202	0	
2	0	0	0	0	516	508	201	0	
3	0	0	0	0	513	508	201	0	
4	0	0	0	0	508	507	203	0	
5	0	0	0	0	509	507	204	0	
6	0	0	0	0	504	507	202	0	
7	0	0	0	0	505	506	203	0	
8	0	0	0	0	510	506	203	0	
9	0	0	0	0	511	508	202	0	
10	0	0	0	0	504	507	201	0	
11	0	0	0	0	503	505	201	0	
12	0	0	0	0	510	508	201	0	
13	0	0	0	0	511	510	200	0	
14	0	0	0	0	510	508	200	0	
15	0	0	0	0	508	509	200	0	
0	0	0	0	0	513	508	201	0	
1	0	0	0	0	516	506	201	0	
2	0	0	0	0	521	507	200	0	
3	0	0	0	0	524	510	200	0	
4	0	0	0	0	519	512	201	0	
5	0	0	0	0	515	511	201	0	
6	0	0	0	0	516	511	202	0	
7	0	0	0	0	519	509	200	0	
8	0	0	0	0	515	505	201	0	
9	0	0	0	0	511	507	201	0	
10	0	0	0	0	502	508	201	0	
11	0	0	0	0	504	506	201	0	
12	0	0	0	0	504	507	205	0	
13	0	0	0	0	500	505	209	0	
14	0	0	0	0	507	509	215	0	
15	0	0	0	0	510	509	215	0	
0	0	0	0	0	504	506	218	0	
1	0	0	0	0	505	506	218	0	
2	0	0	0	0	515	512	220	0	
3	0	0	0	0	513	513	220	0	
4	0	0	0	0	508	509	220	0	
5	0	0	0	0	505	509	223	0	
6	0	0	0	0	510	507	224	0	
7	0	0	0	0	517	510	226	0	
8	0	0	0	0	516	510	229	0	
9	0	0	0	0	512	509	228	0	
10	0	0	0	0	513	510	230	0	
11	0	0	0	0	507	507	230	0	
12	0	0	0	0	506	507	231	0	
13	0	0	0	0	502	507	231	0	
14	0	0	0	0	497	507	231	0	
15	0	0	0	0	498	507	230	0	
0	0	0	0	0	499	505	229	0	
1	0	0	0	0	502	505	230	0	
2	0	0	0	0	506	507	225	0	
3	0	0	0	0	508	508	226	0	
4	0	0	0	0	510	507	228	0	
5	0	0	0	0	514	507	230	0	
6	0	0	0	0	515	508	229	0	
7	0	0	0	0	515	510	230	0	
8	0	0	0	0	517	508	230	0	
9	0	0	0	0	517	508	233	0	
10	0	0	0	0	515	509	231	0	
11	0	0	0	0	517	509	233	0	
12	0	0	0	0	515	509	232	0	
13	0	0	0	0	515	509	233	0	
14	0	0	0	0	515	508	234	0	
15	0	0	0	0	514	508	237	0	
0	0	0	0	0	513	505	238	0	
1	0	0	0	0	508	506	238	0	
2	0	0	0	0	505	504	239	0	
3	0	0	0	0	503	506	241	0	
4	0	0	0	0	502	508	243	0	
5	0	0	0	0	506	508	242	0	
6	0	0	0	0	511	510	241	0	
7	0	0	0	0	515	510	246	0	
8	0	0	0	0	507	508	248	0	
9	0	0	0	0	508	510	249	0	
10	0	0	0	0	510	508	250	0	
11	0	0	0	0	511	508	249	0	
12	0	0	0	0	517	508	249	0	
13	0	0	0	0	519	508	252	0	
14	0	0	0	0	515	507	254	0	
15	0	0	0	0	514	505	255	0	
0	0	0	0	0	515	507	253	0	
1	0	0	0	0	521	510	255	0	
2	0	0	0	0	521	510	254	0	
3	0	0	0	0	517	510	251	0	
4	0	0	0	0	515	510	249	0	
5	0	0	0	0	508	508	251	0	
6	0	0	0	0	504	505	252	0	
7	0	0	0	0	504	508	251	0	
8	0	0	0	0	508	508	251	0	
9	0	0	0	0	510	507	251	0	
10	0	0	0	0	508	505	254	0	
11	0	0	0	0	505	506	255	0	
12	0	0	0	0	503	510	262	0	
13	0	0	0	0	508	508	256	0	
14	0	0	0	0	515	508	259	0	
15	0	0	0	0	520	508	259	0	
0	0	0	0	0	521	511	259	0	
1	0	0	0	0	516	509	259	0	
2	0	0	0	0	524	513	263	0	
3	0	0	0	0	525	510	264	0	
4	0	0	0	0	521	509	268	0	
5	0	0	0	0	518	506	270	0	
6	0	0	0	0	510	507	271	0	
7	0	0	0	0	511	510	273	0	
8	0	0	0	0	510	506	275	0	
9	0	0	0	0	509	505	274	0	
10	0	0	0	0	509	506	274	0	
11	0	0	0	0	520	507	273	0	
12	0	0	0	0	521	508	273	0	
13	0	0	0	0	517	508	275	0	
14	0	0	0	0	512	508	278	0	
15	0	0	0	0	509	505	279	0	
0	0	0	0	0	505	507	280	0	
1	0	0	0	0	504	510	280	0	
2	0	0	0	0	510	512	280	0	
3	0	0	0	0	494	508	281	0	
4	0	0	0	0	463	502	282	0	
5	0	0	0	0	472	504	283	0	
6	0	0	0	0	506	508	284	0	
7	0	0	0	0	521	511	287	0	
8	0	0	0	0	521	510	289	0	
9	0	0	0	0	524	510	290	0	
10	0	0	0	0	528	510	291	0	
11	0	0	0	0	524	509	290	0	
12	0	0	0	0	522	509	291	0	
13	0	0	0	0	518	509	292	0	
14	0	0	0	0	508	508	292	0	
15	0	0	0	0	512	509	293	0	
0	0	0	0	0	511	508	292	0	
1	0	0	0	0	509	507	291	0	
2	0	0	0	0	508	508	290	0	
3	0	0	0	0	507	506	292	0	
4	0	0	0	0	507	507	291	0	
5	0	0	0	0	509	506	290	0	
6	0	0	0	0	513	508	290	0	
7	0	0	0	0	514	508	292	0	
8	0	0	0	0	515	508	293	0	
9	0	0	0	0	515	509	296	0	
10	0	0	0	0	517	507	295	0	
11	0	0	0	0	514	508	297	0	
12	0	0	0	0	516	509	297	0	
13	0	0	0	0	517	509	297	0	
14	0	0	0	0	512	508	295	0	
15	0	0	0	0	510	509	299	0	
0	0	0	0	0	511	510	300	0	
1	0	0	0	0	509	509	302	0	
2	0	0	0	0	508	507	302	0	
3	0	0	0	0	507	507	300	0	
4	0	0	0	0	506	504	302	0	
5	0	0	0	0	505	505	300	0	
6	0	0	0	0	508	508	303	0	
7	0	0	0	0	508	505	303	0	
8	0	0	0	0	509	506	305	0	
9	0	0	0	0	508	505	304	0	
10	0	0	0	0	508	505	304	0	
11	0	0	0	0	515	509	304	0	
12	0	0	0	0	515	510	306	0	
13	0	0	0	0	514	510	306	0	
14	0	0	0	0	516	509	305	0	
15	0	0	0	0	512	510	304	0	
0	0	0	0	0	512	509	304	0	
1	0	0	0	0	517	510	305	0	
2	0	0	0	0	513	507	305	0	
3	0	0	0	0	510	508	307	0	
4	0	0	0	0	511	507	307	0	
5	0	0	0	0	508	508	307	0	
6	0	0	0	0	507	507	307	0	
7	0	0	0	0	512	505	308	0	
8	0	0	0	0	509	508	309	0	
9	0	0	0	0	507	508	309	0	
10	0	0	0	0	506	507	309	0	
11	0	0	0	0	507	507	309	0	
12	0	0	0	0	509	508	308	0	
13	0	0	0	0	504	506	307	0	
14	0	0	0	0	505	508	308	0	
15	0	0	0	0	507	508	308	0	
0	0	0	0	0	511	511	307	0	
1	0	0	0	0	515	510	305	0	
2	0	0	0	0	520	507	304	0	
3	0	0	0	0	519	510	306	0	
4	0	0	0	0	518	509	304	0	
5	0	0	0	0	516	508	304	0	
6	0	0	0	0	515	510	305	0	
7	0	0	0	0	512	507	306	0	
8	0	0	0	0	510	509	306	0	
9	0	0	0	0	514	507	306	0	
10	0	0	0	0	511	507	307	0	
11	0	0	0	0	508	506	306	0	
12	0	0	0	0	505	506	306	0	
13	0	0	0	0	508	506	306	0	
14	0	0	0	0	507	508	305	0	
15	0	0	0	0	502	508	304	0	
0	0	0	0	0	509	508	305	0	
1	0	0	0	0	513	510	304	0	
2	0	0	0	0	514	509	305	0	
3	0	0	0	0	513	510	305	0	
4	0	0	0	0	517	509	306	0	
5	0	0	0	0	519	511	307	0	
6	0	0	0	0	519	512	306	0	
7	0	0	0	0	519	507	306	0	
8	0	0	0	0	516	508	305	0	
9	0	0	0	0	515	510	304	0	
10	0	0	0	0	512	508	304	0	
11	0	0	0	0	512	510	304	0	
12	0	0	0	0	508	509	304	0	
13	0	0	0	0	508	509	303	0	
14	0	0	0	0	505	507	304	0	
15	0	0	0	0	506	506	304	0	
0	0	0	0	0	505	506	304	0	
1	0	0	0	0	506	508	304	0	
2	0	0	0	0	505	506	305	0	
3	0	0	0	0	506	508	305	0	
4	0	0	0	0	511	509	306	0	
5	0	0	0	0	515	507	306	0	
6	0	0	0	0	516	504	306	0	
7	0	0	0	0	514	506	306	0	
8	0	0	0	0	515	508	306	0	
9	0	0	0	0	514	510	307	0	
10	0	0	0	0	516	508	307	0	
11	0	0	0	0	508	508	307	0	
12	0	0	0	0	510	510	307	0	
13	0	0	0	0	508	509	307	0	
14	0	0	0	0	507	508	307	0	
15	0	0	0	0	509	508	307	0	
0	0	0	0	0	511	508	308	0	
1	0	0	0	0	515	507	308	0	
2	0	0	0	0	508	506	308	0	
3	0	0	0	0	506	507	309	0	
4	0	0	0	0	502	507	309	0	
5	0	0	0	0	502	505	310	0	
6	0	0	0	0	508	507	310	0	
7	0	0	0	0	505	508	310	0	
8	0	0	0	0	507	508	310	0	
9	0	0	0	0	505	507	311	0	
10	0	0	0	0	513	508	311	0	
11	0	0	0	0	518	510	310	0	
12	0	0	0	0	516	509	311	0	
13	0	0	0	0	515	510	310	0	
14	0	0	0	0	514	506	311	0	
15	0	0	0	0	516	510	310	0	
0	0	0	0	0	517	512	310	0	
1	0	0	0	0	514	510	310	0	
2	0	0	0	0	515	505	311	0	
3	0	0	0	0	511	505	311	0	
4	0	0	0	0	509	506	312	0	
5	0	0	0	0	508	505	313	0	
6	0	0	0	0	507	506	313	0	
7	0	0	0	0	507	509	312	0	
8	0	0	0	0	504	510	312	0	
9	0	0	0	0	506	510	313	0	
10	0	0	0	0	507	507	312	0	
11	0	0	0	0	506	510	312	0	
12	0	0	0	0	510	508	313	0	
13	0	0	0	0	510	508	313	0	
14	0	0	0	0	511	509	313	0	
15	0	0	0	0	517	509	313	0	
0	0	0	0	0	524	510	315	0	
1	0	0	0	0	517	509	313	0	
2	0	0	0	0	516	510	313	0	
3	0	0	0	0	514	508	313	0	
4	0	0	0	0	513	508	314	0	
5	0	0	0	0	511	509	313	0	
6	0	0	0	0	505	508	314	0	
7	0	0	0	0	499	507	314	0	
8	0	0	0	0	500	506	315	0	
9	0	0	0	0	507	505	315	0	
10	0	0	0	0	510	508	316	0	
11	0	0	0	0	512	510	315	0	
12	0	0	0	0	508	506	315	0	
13	0	0	0	0	507	507	316	0	
14	0	0	0	0	511	507	316	0	
15	0	0	0	0	512	508	316	0	
0	0	0	0	0	509	509	316	0	
1	0	0	0	0	504	507	317	0	
2	0	0	0	0	503	508	317	0	
3	0	0	0	0	510	508	318	0	
4	0	0	0	0	515	510	317	0	
5	0	0	0	0	517	509	317	0	
6	0	0	0	0	518	509	317	0	
7	0	0	0	0	521	505	317	0	
8	0	0	0	0	518	508	316	0	
9	0	0	0	0	518	509	317	0	
10	0	0	0	0	521	509	318	0	
11	0	0	0	0	521	509	317	0	
12	0	0	0	0	520	510	317	0	
13	0	0	0	0	510	508	317	0	
14	0	0	0	0	505	506	317	0	
15	0	0	0	0	504	508	317	0	
0	0	0	0	0	500	508	318	0	
1	0	0	0	0	504	510	317	0	
2	0	0	0	0	499	509	317	0	
3	0	0	0	0	502	508	318	0	
4	0	0	0	0	509	508	318	0	
5	0	0	0	0	513	508	318	0	
6	0	0	0	0	512	508	318	0	
7	0	0	0	0	512	508	318	0	
8	0	0	0	0	515	508	318	0	
9	0	0	0	0	518	507	318	0	
10	0	0	0	0	520	510	319	0	
11	0	0	0	0	519	510	319	0	
12	0	0	0	0	516	508	319	0	
13	0	0	0	0	515	507	319	0	
14	0	0	0	0	518	508	318	0	
15	0	0	0	0	515	507	318	0	
0	0	0	0	0	511	507	318	0	
1	0	0	0	0	506	509	319	0	
2	0	0	0	0	503	508	318	0	
3	0	0	0	0	507	509	319	0	
4	0	0	0	0	502	507	318	0	
5	0	0	0	0	503	506	318	0	
6	0	0	0	0	508	505	319	0	
7	0	0	0	0	505	505	318	0	
8	0	0	0	0	502	505	319	0	
9	0	0	0	0	508	509	319	0	
10	0	0	0	0	511	508	319	0	
11	0	0	0	0	512	508	319	0	
12	0	0	0	0	513	508	319	0	
13	0	0	0	0	515	509	318	0	
14	0	0	0	0	515	509	319	0	
15	0	0	0	0	512	509	319	0	
0	0	0	0	0	519	511	319	0	
1	0	0	0	0	519	509	318	0	
2	0	0	0	0	515	509	319	0	
3	0	0	0	0	511	507	318	0	
4	0	0	0	0	510	509	319	0	
5	0	0	0	0	508	506	319	0	
6	0	0	0	0	509	507	319	0	
7	0	0	0	0	507	506	319	0	
8	0	0	0	0	507	506	319	0	
9	0	0	0	0	508	506	319	0	
10	0	0	0	0	507	507	318	0	
11	0	0	0	0	507	508	319	0	
12	0	0	0	0	506	505	319	0	
13	0	0	0	0	507	507	319	0	
14	0	0	0	0	510	510	319	0	
15	0	0	0	0	513	510	319	0	
0	0	0	0	0	515	511	319	0	
1	0	0	0	0	518	511	320	0	
2	0	0	0	0	517	510	319	0	
3	0	0	0	0	515	508	319	0	
4	0	0	0	0	512	508	319	0	
5	0	0	0	0	514	506	319	0	
6	0	0	0	0	515	507	319	0	
7	0	0	0	0	515	508	319	0	
8	0	0	0	0	511	508	318	0	
9	0	0	0	0	508	507	318	0	
10	0	0	0	0	508	505	318	0	
11	0	0	0	0	505	506	317	0	
12	0	0	0	0	505	509	317	0	
13	0	0	0	0	511	508	318	0	
14	0	0	0	0	511	507	317	0	
15	0	0	0	0	509	505	318	0	
0	0	0	0	0	515	510	318	0	
1	0	0	0	0	511	508	318	0	
2	0	0	0	0	514	511	318	0	
3	0	0	0	0	516	512	319	0	
4	0	0	0	0	518	511	319	0	
5	0	0	0	0	516	510	319	0	
6	0	0	0	0	515	510	320	0	
7	0	0	0	0	515	508	319	0	
8	0	0	0	0	512	510	319	0	
9	0	0	0	0	513	510	319	0	
10	0	0	0	0	510	510	318	0	
11	0	0	0	0	509	509	319	0	
12	0	0	0	0	508	506	319	0	
13	0	0	0	0	507	509	318	0	
14	0	0	0	0	508	508	319	0	
15	0	0	0	0	510	507	319	0	
0	0	0	0	0	509	508	319	0	
1	0	0	0	0	507	508	319	0	
2	0	0	0	0	506	505	318	0	
3	0	0	0	0	508	507	318	0	
4	0	0	0	0	509	505	318	0	
5	0	0	0	0	511	508	318	0	
6	0	0	0	0	511	507	318	0	
7	0	0	0	0	516	510	319	0	
8	0	0	0	0	517	508	318	0	
9	0	0	0	0	519	509	319	0	
10	0	0	0	0	518	508	319	0	
11	0	0	0	0	515	506	319	0	
12	0	0	0	0	513	508	319	0	
13	0	0	0	0	512	510	319	0	
14	0	0	0	0	513	508	318	0	
15	0	0	0	0	513	508	317	0	
0	0	0	0	0	509	505	317	0	
1	0	0	0	0	504	505	318	0	
2	0	0	0	0	504	506	319	0	
3	0	0	0	0	509	509	318	0	
4	0	0	0	0	507	507	319	0	
5	0	0	0	0	505	507	319	0	
6	0	0	0	0	504	508	319	0	
7	0	0	0	0	504	507	319	0	
8	0	0	0	0	506	509	318	0	
9	0	0	0	0	509	510	319	0	
10	0	0	0	0	510	508	319	0	
11	0	0	0	0	512	507	319	0	
12	0	0	0	0	513	505	319	0	
13	0	0	0	0	515	507	319	0	
14	0	0	0	0	515	508	318	0	
15	0	0	0	0	517	508	318	0	
0	0	0	0	0	515	510	317	0	
1	0	0	0	0	513	509	318	0	
2	0	0	0	0	518	510	317	0	
3	0	0	0	0	518	508	317	0	
4	0	0	0	0	519	506	316	0	
5	0	0	0	0	514	508	316	0	
6	0	0	0	0	502	506	316	0	
7	0	0	0	0	500	507	316	0	
8	0	0	0	0	502	507	316	0	
9	0	0	0	0	499	504	316	0	
10	0	0	0	0	500	504	316	0	
11	0	0	0	0	498	505	316	0	
12	0	0	0	0	507	507	317	0	
13	0	0	0	0	517	507	316	0	
14	0	0	0	0	518	508	316	0	
15	0	0	0	0	521	508	316	0	
0	0	0	0	0	522	511	315	0	
1	0	0	0	0	519	510	315	0	
2	0	0	0	0	520	508	315	0	
3	0	0	0	0	521	507	315	0	
4	0	0	0	0	519	508	315	0	
5	0	0	0	0	520	508	313	0	
6	0	0	0	0	521	509	314	0	
7	0	0	0	0	518	507	315	0	
8	0	0	0	0	512	508	315	0	
9	0	0	0	0	510	508	314	0	
10	0	0	0	0	506	508	314	0	
11	0	0	0	0	506	508	313	0	
12	0	0	0	0	506	508	313	0	
13	0	0	0	0	507	508	313	0	
14	0	0	0	0	504	508	313	0	
15	0	0	0	0	506	508	312	0	
0	0	0	0	0	505	510	311	0	
1	0	0	0	0	505	510	311	0	
2	0	0	0	0	510	509	310	0	
3	0	0	0	0	512	511	309	0	
4	0	0	0	0	515	511	308	0	
5	0	0	0	0	515	509	307	0	
6	0	0	0	0	515	508	305	0	
7	0	0	0	0	517	508	303	0	
8	0	0	0	0	516	508	302	0	
9	0	0	0	0	514	511	302	0	
10	0	0	0	0	511	507	303	0	
11	0	0	0	0	505	507	303	0	
12	0	0	0	0	513	508	302	0	
13	0	0	0	0	507	508	303	0	
14	0	0	0	0	504	508	301	0	
15	0	0	0	0	503	506	301	0	
0	0	0	0	0	499	503	299	0	
1	0	0	0	0	504	507	297	0	
2	0	0	0	0	512	509	296	0	
3	0	0	0	0	514	510	295	0	
4	0	0	0	0	511	509	294	0	
5	0	0	0	0	513	508	292	0	
6	0	0	0	0	515	508	290	0	
7	0	0	0	0	512	504	287	0	
8	0	0	0	0	513	507	285	0	
9	0	0	0	0	513	510	284	0	
10	0	0	0	0	516	510	283	0	
11	0	0	0	0	516	507	283	0	
12	0	0	0	0	512	508	281	0	
13	0	0	0	0	509	510	280	0	
14	0	0	0	0	515	508	279	0	
15	0	0	0	0	517	512	277	0	
0	0	0	0	0	511	508	275	0	
1	0	0	0	0	508	508	273	0	
2	0	0	0	0	508	506	272	0	
3	0	0	0	0	508	504	271	0	
4	0	0	0	0	510	505	269	0	
5	0	0	0	0	503	506	267	0	
6	0	0	0	0	499	507	266	0	
7	0	0	0	0	506	507	265	0	
8	0	0	0	0	510	507	263	0	
9	0	0	0	0	512	508	260	0	
10	0	0	0	0	515	511	257	0	
11	0	0	0	0	517	509	256	0	
12	0	0	0	0	517	511	255	0	
13	0	0	0	0	518	509	255	0	
14	0	0	0	0	519	510	254	0	
15	0	0	0	0	517	510	255	0	
0	0	0	0	0	516	510	252	0	
1	0	0	0	0	513	509	243	0	
2	0	0	0	0	515	511	239	0	
3	0	0	0	0	512	508	236	0	
4	0	0	0	0	509	509	234	0	
5	0	0	0	0	507	506	229	0	
6	0	0	0	0	507	508	226	0	
7	0	0	0	0	504	507	224	0	
8	0	0	0	0	508	508	224	0	
9	0	0	0	0	508	509	223	0	
10	0	0	0	0	505	505	220	0	
11	0	0	0	0	509	508	218	0	
12	0	0	0	0	512	510	209	0	
13	0	0	0	0	515	509	205	0	
14	0	0	0	0	514	508	201	0	
15	0	0	0	0	512	509	201	0	
0	0	0	0	0	514	506	200	0	
1	0	0	0	0	513	506	197	0	
2	0	0	0	0	515	509	196	0	
3	0	0	0	0	518	510	196	0	
4	0	0	0	0	516	507	196	0	
5	0	0	0	0	519	507	196	0	
6	0	0	0	0	513	509	195	0	
7	0	0	0	0	511	507	194	0	
8	0	0	0	0	510	507	194	0	
9	0	0	0	0	508	507	193	0	
10	0	0	0	0	506	507	193	0	
11	0	0	0	0	504	507	190	0	
12	0	0	0	0	505	508	190	0	
13	0	0	0	0	505	508	189	0	
14	0	0	0	0	508	507	190	0	
15	0	0	0	0	506	507	190	0	
0	0	0	0	0	505	508	190	0	
1	0	0	0	0	510	507	190	0	
2	0	0	0	0	509	508	190	0	
3	0	0	0	0	513	510	188	0	
4	0	0	0	0	515	508	188	0	
5	0	0	0	0	515	508	187	0	
6	0	0	0	0	515	511	187	0	
7	0	0	0	0	513	510	185	0	
8	0	0	0	0	514	511	185	0	
9	0	0	0	0	515	508	182	0	
10	0	0	0	0	512	508	182	0	
11	0	0	0	0	510	507	183	0	
12	0	0	0	0	511	507	182	0	
13	0	0	0	0	509	506	181	0	
14	0	0	0	0	508	508	183	0	
15	0	0	0	0	507	507	183	0	
0	0	0	0	0	505	508	182	0	
1	0	0	0	0	502	504	182	0	
2	0	0	0	0	518	510	180	0	
3	0	0	0	0	512	508	179	0	
4	0	0	0	0	508	508	179	0	
5	0	0	0	0	510	509	177	0	
6	0	0	0	0	511	504	177	0	
7	0	0	0	0	515	508	177	0	
8	0	0	0	0	516	509	179	0	
9	0	0	0	0	515	508	179	0	
10	0	0	0	0	513	508	177	0	
11	0	0	0	0	516	510	176	0	
12	0	0	0	0	518	507	175	0	
13	0	0	0	0	514	508	174	0	
14	0	0	0	0	514	507	174	0	
15	0	0	0	0	513	509	171	0	
0	0	0	0	0	509	507	172	0	
1	0	0	0	0	508	506	170	0	
2	0	0	0	0	508	507	172	0	
3	0	0	0	0	510	505	172	0	
4	0	0	0	0	506	507	172	0	
5	0	0	0	0	507	507	172	0	
6	0	0	0	0	506	508	172	0	
7	0	0	0	0	507	508	173	0	
8	0	0	0	0	512	509	174	0	
9	0	0	0	0	511	514	175	0	
10	0	0	0	0	511	511	176	0	
11	0	0	0	0	513	510	175	0	
12	0	0	0	0	515	511	175	0	
13	0	0	0	0	514	511	175	0	
14	0	0	0	0	517	510	176	0	
15	0	0	0	0	518	508	176	0	
0	0	0	0	0	516	508	176	0	
1	0	0	0	0	514	508	175	0	
2	0	0	0	0	513	508	176	0	
3	0	0	0	0	511	505	176	0	
4	0	0	0	0	512	504	176	0	
5	0	0	0	0	511	508	176	0	
6	0	0	0	0	506	505	176	0	
7	0	0	0	0	501	505	176	0	
8	0	0	0	0	508	505	175	0	
9	0	0	0	0	506	507	176	0	
10	0	0	0	0	505	508	176	0	
11	0	0	0	0	505	508	176	0	
12	0	0	0	0	509	508	176	0	
13	0	0	0	0	509	509	176	0	
14	0	0	0	0	511	507	176	0	
15	0	0	0	0	514	508	176	0	
0	0	0	0	0	513	509	174	0	
1	0	0	0	0	512	508	173	0	
2	0	0	0	0	508	508	173	0	
3	0	0	0	0	515	510	174	0	
4	0	0	0	0	519	510	174	0	
5	0	0	0	0	514	507	175	0	
6	0	0	0	0	511	507	174	0	
7	0	0	0	0	510	507	173	0	
8	0	0	0	0	510	508	172	0	
9	0	0	0	0	507	508	171	0	
10	0	0	0	0	509	505	170	0	
11	0	0	0	0	510	508	168	0	
12	0	0	0	0	514	510	169	0	
13	0	0	0	0	521	507	169	0	
14	0	0	0	0	515	508	168	0	
15	0	0	0	0	510	508	168	0	
0	0	0	0	0	508	508	168	0	
1	0	0	0	0	506	508	168	0	
2	0	0	0	0	505	510	169	0	
3	0	0	0	0	511	511	169	0	
4	0	0	0	0	502	509	169	0	
5	0	0	0	0	508	508	170	0	
6	0	0	0	0	510	509	169	0	
7	0	0	0	0	513	509	170	0	
8	0	0	0	0	517	510	169	0	
9	0	0	0	0	516	507	169	0	
10	0	0	0	0	515	507	170	0	
11	0	0	0	0	511	507	170	0	
12	0	0	0	0	512	506	170	0	
13	0	0	0	0	509	505	169	0	
14	0	0	0	0	508	506	170	0	
15	0	0	0	0	505	505	170	0	
0	0	0	0	0	507	508	169	0	
1	0	0	0	0	509	508	170	0	
2	0	0	0	0	510	509	170	0	
3	0	0	0	0	512	508	169	0	
4	0	0	0	0	512	506	170	0	
5	0	0	0	0	518	509	169	0	
6	0	0	0	0	514	511	169	0	
7	0	0	0	0	512	509	170	0	
8	0	0	0	0	512	508	171	0	
9	0	0	0	0	516	513	169	0	
10	0	0	0	0	517	510	169	0	
11	0	0	0	0	514	510	168	0	
12	0	0	0	0	511	509	168	0	
13	0	0	0	0	511	508	167	0	
14	0	0	0	0	511	507	167	0	
15	0	0	0	0	511	508	167	0	
0	0	0	0	0	508	507	167	0	
1	0	0	0	0	504	507	165	0	
2	0	0	0	0	505	507	164	0	
3	0	0	0	0	502	506	161	0	
4	0	0	0	0	503	505	163	0	
5	0	0	0	0	507	507	163	0	
6	0	0	0	0	510	506	160	0	
7	0	0	0	0	509	508	161	0	
8	0	0	0	0	510	509	160	0	
9	0	0	0	0	514	508	159	0	
10	0	0	0	0	513	509	160	0	
11	0	0	0	0	516	507	162	0	
12	0	0	0	0	514	509	161	0	
13	0	0	0	0	513	511	160	0	
14	0	0	0	0	511	510	158	0	
15	0	0	0	0	516	507	155	0	
0	0	0	0	0	516	508	156	0	
1	0	0	0	0	515	508	153	0	
2	0	0	0	0	515	509	152	0	
3	0	0	0	0	513	504	155	0	
4	0	0	0	0	512	505	155	0	
5	0	0	0	0	510	509	152	0	
6	0	0	0	0	506	509	154	0	
7	0	0	0	0	507	508	154	0	
8	0	0	0	0	505	508	154	0	
9	0	0	0	0	507	509	155	0	
10	0	0	0	0	506	507	156	0	
11	0	0	0	0	505	509	158	0	
12	0	0	0	0	510	507	157	0	
13	0	0	0	0	511	508	158	0	
14	0	0	0	0	511	509	157	0	
15	0	0	0	0	514	508	157	0	
0	0	0	0	0	515	509	157	0	
1	0	0	0	0	515	508	157	0	
2	0	0	0	0	518	508	156	0	
3	0	0	0	0	518	509	158	0	
4	0	0	0	0	517	510	157	0	
5	0	0	0	0	515	508	157	0	
6	0	0	0	0	514	508	157	0	
7	0	0	0	0	510	508	158	0	
8	0	0	0	0	508	509	158	0	
9	0	0	0	0	507	508	158	0	
10	0	0	0	0	509	507	159	0	
11	0	0	0	0	506	508	159	0	
12	0	0	0	0	504	507	159	0	
13	0	0	0	0	503	505	159	0	
14	0	0	0	0	502	506	160	0	
15	0	0	0	0	505	505	160	0	
0	0	0	0	0	513	507	161	0	
1	0	0	0	0	518	509	161	0	
2	0	0	0	0	515	511	162	0	
3	0	0	0	0	515	508	161	0	
4	0	0	0	0	517	509	160	0	
5	0	0	0	0	516	506	162	0	
6	0	0	0	0	516	507	162	0	
7	0	0	0	0	519	510	162	0	
8	0	0	0	0	514	508	161	0	
9	0	0	0	0	515	508	162	0	
10	0	0	0	0	516	508	162	0	
11	0	0	0	0	512	507	162	0	
12	0	0	0	0	511	508	163	0	
13	0	0	0	0	507	507	163	0	
14	0	0	0	0	507	507	163	0	
15	0	0	0	0	508	508	164	0	
0	0	0	0	0	505	508	164	0	
1	0	0	0	0	507	508	164	0	
2	0	0	0	0	508	507	164	0	
3	0	0	0	0	510	508	165	0	
4	0	0	0	0	511	510	165	0	
5	0	0	0	0	512	510	165	0	
6	0	0	0	0	514	509	164	0	
7	0	0	0	0	515	510	165	0	
8	0	0	0	0	519	507	165	0	
9	0	0	0	0	522	508	165	0	
10	0	0	0	0	520	508	165	0	
11	0	0	0	0	515	509	165	0	
12	0	0	0	0	512	507	165	0	
13	0	0	0	0	511	508	165	0	
14	0	0	0	0	512	508	165	0	
15	0	0	0	0	508	507	165	0	
0	0	0	0	0	501	506	165	0	
1	0	0	0	0	499	504	165	0	
2	0	0	0	0	505	504	165	0	
3	0	0	0	0	509	505	165	0	
4	0	0	0	0	512	505	165	0	
5	0	0	0	0	510	505	166	0	
6	0	0	0	0	508	504	166	0	
7	0	0	0	0	509	507	166	0	
8	0	0	0	0	508	507	166	0	
9	0	0	0	0	510	510	166	0	
10	0	0	0	0	510	506	166	0	
11	0	0	0	0	514	508	166	0	
12	0	0	0	0	511	509	165	0	
13	0	0	0	0	519	510	165	0	
14	0	0	0	0	517	512	166	0	
15	0	0	0	0	511	510	166	0	
0	0	0	0	0	513	511	166	0	
1	0	0	0	0	513	511	166	0	
2	0	0	0	0	512	507	166	0	
3	0	0	0	0	508	508	165	0	
4	0	0	0	0	508	505	165	0	
5	0	0	0	0	507	507	165	0	
6	0	0	0	0	505	507	165	0	
7	0	0	0	0	505	508	166	0	
8	0	0	0	0	507	507	166	0	
9	0	0	0	0	509	506	166	0	
10	0	0	0	0	507	507	166	0	
11	0	0	0	0	509	508	166	0	
12	0	0	0	0	509	510	166	0	
13	0	0	0	0	511	510	166	0	
14	0	0	0	0	513	510	166	0	
15	0	0	0	0	514	509	166	0	
0	0	0	0	0	514	511	166	0	
1	0	0	0	0	514	510	166	0	
2	0	0	0	0	516	509	166	0	
3	0	0	0	0	518	512	166	0	
4	0	0	0	0	511	508	165	0	
5	0	0	0	0	512	509	165	0	
6	0	0	0	0	511	507	166	0	
7	0	0	0	0	509	506	166	0	
8	0	0	0	0	507	507	166	0	
9	0	0	0	0	504	507	166	0	
10	0	0	0	0	504	504	167	0	
11	0	0	0	0	504	507	167	0	
12	0	0	0	0	504	507	167	0	
13	0	0	0	0	505	508	167	0	
14	0	0	0	0	508	507	167	0	
15	0	0	0	0	507	506	167	0	
0	0	0	0	0	508	507	167	0	
1	0	0	0	0	511	509	166	0	
2	0	0	0	0	517	509	167	0	
3	0	0	0	0	514	510	166	0	
4	0	0	0	0	516	509	167	0	
5	0	0	0	0	514	509	165	0	
6	0	0	0	0	512	507	165	0	
7	0	0	0	0	511	509	166	0	
8	0	0	0	0	515	508	165	0	
9	0	0	0	0	513	510	164	0	
10	0	0	0	0	512	508	164	0	
11	0	0	0	0	510	505	164	0	
12	0	0	0	0	509	505	165	0	
13	0	0	0	0	509	507	163	0	
14	0	0	0	0	502	506	164	0	
15	0	0	0	0	504	506	163	0	
0	0	0	0	0	503	508	161	0	
1	0	0	0	0	505	508	161	0	
2	0	0	0	0	507	508	160	0	
3	0	0	0	0	504	509	161	0	
4	0	0	0	0	506	509	161	0	
5	0	0	0	0	507	505	159	0	
6	0	0	0	0	506	506	159	0	
7	0	0	0	0	510	508	159	0	
8	0	0	0	0	513	509	159	0	
9	0	0	0	0	509	507	160	0	
10	0	0	0	0	512	508	159	0	
11	0	0	0	0	515	508	158	0	
12	0	0	0	0	516	508	160	0	
13	0	0	0	0	512	508	160	0	
14	0	0	0	0	512	508	158	0	
15	0	0	0	0	511	509	158	0	
0	0	0	0	0	506	508	161	0	
1	0	0	0	0	511	508	161	0	
2	0	0	0	0	506	509	162	0	
3	0	0	0	0	503	508	162	0	
4	0	0	0	0	505	509	162	0	
5	0	0	0	0	504	507	162	0	
6	0	0	0	0	506	508	162	0	
7	0	0	0	0	506	508	162	0	
8	0	0	0	0	507	508	162	0	
9	0	0	0	0	508	507	163	0	
10	0	0	0	0	512	508	163	0	
11	0	0	0	0	515	509	163	0	
12	0	0	0	0	517	510	163	0	
13	0	0	0	0	514	509	163	0	
14	0	0	0	0	514	509	164	0	
15	0	0	0	0	514	508	164	0	
0	0	0	0	0	515	511	165	0	
1	0	0	0	0	513	510	165	0	
2	0	0	0	0	513	508	165	0	
3	0	0	0	0	509	508	164	0	
4	0	0	0	0	508	508	165	0	
5	0	0	0	0	508	507	166	0	
6	0	0	0	0	507	506	166	0	
7	0	0	0	0	507	507	167	0	
8	0	0	0	0	506	507	167	0	
9	0	0	0	0	506	507	167	0	
10	0	0	0	0	508	508	167	0	
11	0	0	0	0	508	509	167	0	
12	0	0	0	0	511	507	167	0	
13	0	0	0	0	513	508	167	0	
14	0	0	0	0	518	510	168	0	
15	0	0	0	0	519	507	168	0	
0	0	0	0	0	517	507	169	0	
1	0	0	0	0	518	508	168	0	
2	0	0	0	0	519	508	169	0	
3	0	0	0	0	519	507	169	0	
4	0	0	0	0	515	509	169	0	
5	0	0	0	0	515	508	170	0	
6	0	0	0	0	511	507	169	0	
7	0	0	0	0	516	510	169	0	
8	0	0	0	0	512	508	170	0	
9	0	0	0	0	511	509	171	0	
10	0	0	0	0	506	508	169	0	
11	0	0	0	0	505	508	169	0	
12	0	0	0	0	509	505	169	0	
13	0	0	0	0	509	509	169	0	
14	0	0	0	0	509	507	169	0	
15	0	0	0	0	509	506	169	0	
0	0	0	0	0	507	506	169	0	
1	0	0	0	0	508	506	169	0	
2	0	0	0	0	513	510	169	0	
3	0	0	0	0	512	508	169	0	
4	0	0	0	0	516	509	169	0	
5	0	0	0	0	516	508	169	0	
6	0	0	0	0	513	507	169	0	
7	0	0	0	0	515	506	169	0	
8	0	0	0	0	513	512	169	0	
9	0	0	0	0	513	509	169	0	
10	0	0	0	0	512	508	169	0	
11	0	0	0	0	512	507	168	0	
12	0	0	0	0	510	505	169	0	
13	0	0	0	0	508	506	168	0	
14	0	0	0	0	507	506	169	0	
15	0	0	0	0	508	507	169	0	
0	0	0	0	0	511	506	169	0	
1	0	0	0	0	508	505	169	0	
2	0	0	0	0	509	506	169	0	
3	0	0	0	0	507	507	169	0	
4	0	0	0	0	511	508	169	0	
5	0	0	0	0	515	509	169	0	
6	0	0	0	0	513	508	170	0	
7	0	0	0	0	513	509	170	0	
8	0	0	0	0	518	508	170	0	
9	0	0	0	0	518	511	170	0	
10	0	0	0	0	517	510	170	0	
11	0	0	0	0	515	508	170	0	
12	0	0	0	0	514	507	170	0	
13	0	0	0	0	513	508	169	0	
14	0	0	0	0	506	510	170	0	
15	0	0	0	0	504	507	171	0	
0	0	0	0	0	509	509	171	0	
1	0	0	0	0	513	510	171	0	
2	0	0	0	0	509	506	171	0	
3	0	0	0	0	505	504	171	0	
4	0	0	0	0	506	503	172	0	
5	0	0	0	0	505	507	172	0	
6	0	0	0	0	505	507	172	0	
7	0	0	0	0	504	507	172	0	
8	0	0	0	0	515	510	172	0	
9	0	0	0	0	511	508	172	0	
10	0	0	0	0	513	508	172	0	
11	0	0	0	0	517	509	172	0	
12	0	0	0	0	516	510	171	0	
13	0	0	0	0	516	509	172	0	
14	0	0	0	0	516	512	172	0	
15	0	0	0	0	514	510	172	0	
0	0	0	0	0	514	508	171	0	
1	0	0	0	0	516	509	172	0	
2	0	0	0	0	512	507	172	0	
3	0	0	0	0	508	508	172	0	
4	0	0	0	0	513	508	172	0	
5	0	0	0	0	509	507	172	0	
6	0	0	0	0	506	508	172	0	
7	0	0	0	0	506	505	171	0	
8	0	0	0	0	505	508	171	0	
9	0	0	0	0	507	506	171	0	
10	0	0	0	0	508	508	171	0	
11	0	0	0	0	508	508	169	0	
12	0	0	0	0	511	508	168	0	
13	0	0	0	0	513	508	167	0	
14	0	0	0	0	515	509	167	0	
15	0	0	0	0	517	508	167	0	
0	0	0	0	0	515	509	166	0	
1	0	0	0	0	518	508	166	0	
2	0	0	0	0	518	510	165	0	
3	0	0	0	0	517	509	165	0	
4	0	0	0	0	517	509	164	0	
5	0	0	0	0	513	508	163	0	
6	0	0	0	0	513	509	163	0	
7	0	0	0	0	510	509	160	0	
8	0	0	0	0	510	508	159	0	
9	0	0	0	0	509	507	158	0	
10	0	0	0	0	507	506	156	0	
11	0	0	0	0	508	507	154	0	
12	0	0	0	0	507	507	154	0	
13	0	0	0	0	504	508	153	0	
14	0	0	0	0	507	508	153	0	
15	0	0	0	0	508	508	152	0	
0	0	0	0	0	510	510	150	0	
1	0	0	0	0	515	508	149	0	
2	0	0	0	0	512	507	150	0	
3	0	0	0	0	514	508	149	0	
4	0	0	0	0	516	508	150	0	
5	0	0	0	0	515	509	149	0	
6	0	0	0	0	516	509	149	0	
7	0	0	0	0	516	509	148	0	
8	0	0	0	0	516	507	146	0	
9	0	0	0	0	517	508	146	0	
10	0	0	0	0	514	508	145	0	
11	0	0	0	0	510	508	144	0	
12	0	0	0	0	508	507	145	0	
13	0	0	0	0	510	507	144	0	
14	0	0	0	0	507	509	144	0	
15	0	0	0	0	505	507	143	0	
0	0	0	0	0	504	508	145	0	
1	0	0	0	0	504	508	144	0	
2	0	0	0	0	501	508	142	0	
3	0	0	0	0	504	506	142	0	
4	0	0	0	0	508	508	143	0	
5	0	0	0	0	512	508	143	0	
6	0	0	0	0	512	507	142	0	
7	0	0	0	0	514	508	143	0	
8	0	0	0	0	512	507	142	0	
9	0	0	0	0	514	508	143	0	
10	0	0	0	0	514	513	143	0	
11	0	0	0	0	518	510	143	0	
12	0	0	0	0	517	507	143	0	
13	0	0	0	0	518	507	142	0	
14	0	0	0	0	510	505	142	0	
15	0	0	0	0	515	508	142	0	
0	0	0	0	0	511	508	142	0	
1	0	0	0	0	510	506	143	0	
2	0	0	0	0	507	507	142	0	
3	0	0	0	0	505	506	143	0	
4	0	0	0	0	505	505	143	0	
5	0	0	0	0	505	508	144	0	
6	0	0	0	0	507	507	145	0	
7	0	0	0	0	504	507	144	0	
8	0	0	0	0	507	507	144	0	
9	0	0	0	0	511	509	143	0	
10	0	0	0	0	512	508	144	0	
11	0	0	0	0	515	510	143	0	
12	0	0	0	0	513	510	143	0	
13	0	0	0	0	515	510	143	0	
14	0	0	0	0	514	512	143	0	
15	0	0	0	0	515	511	143	0	
0	0	0	0	0	511	511	143	0	
1	0	0	0	0	513	508	142	0	
2	0	0	0	0	512	510	143	0	
3	0	0	0	0	511	508	143	0	
4	0	0	0	0	507	507	142	0	
5	0	0	0	0	505	506	142	0	
6	0	0	0	0	506	506	142	0	
7	0	0	0	0	505	506	141	0	
8	0	0	0	0	504	508	142	0	
9	0	0	0	0	505	507	142	0	
10	0	0	0	0	506	507	142	0	
11	0	0	0	0	507	507	142	0	
12	0	0	0	0	510	507	142	0	
13	0	0	0	0	509	509	143	0	
14	0	0	0	0	511	510	143	0	
15	0	0	0	0	515	509	142	0	
0	0	0	0	0	517	508	142	0	
1	0	0	0	0	518	511	141	0	
2	0	0	0	0	518	509	141	0	
3	0	0	0	0	516	507	141	0	
4	0	0	0	0	517	508	141	0	
5	0	0	0	0	513	509	141	0	
6	0	0	0	0	511	508	141	0	
7	0	0	0	0	511	507	140	0	
8	0	0	0	0	508	507	140	0	
9	0	0	0	0	507	508	140	0	
10	0	0	0	0	504	504	140	0	
11	0	0	0	0	503	505	140	0	
12	0	0	0	0	510	508	140	0	
13	0	0	0	0	511	510	140	0	
14	0	0	0	0	511	509	140	0	
15	0	0	0	0	506	507	140	0	
0	0	0	0	0	510	507	140	0	
1	0	0	0	0	514	509	140	0	
2	0	0	0	0	512	509	140	0	
3	0	0	0	0	512	508	140	0	
4	0	0	0	0	513	508	140	0	
5	0	0	0	0	519	510	138	0	
6	0	0	0	0	519	511	139	0	
7	0	0	0	0	514	509	139	0	
8	0	0	0	0	513	510	137	0	
9	0	0	0	0	511	510	137	0	
10	0	0	0	0	511	509	135	0	
11	0	0	0	0	510	510	135	0	
12	0	0	0	0	510	507	135	0	
13	0	0	0	0	507	508	134	0	
14	0	0	0	0	505	506	135	0	
15	0	0	0	0	506	506	135	0	
0	0	0	0	0	504	506	135	0	
1	0	0	0	0	511	509	135	0	
2	0	0	0	0	509	506	135	0	
3	0	0	0	0	511	508	135	0	
4	0	0	0	0	511	507	135	0	
5	0	0	0	0	512	508	135	0	
6	0	0	0	0	514	509	135	0	
7	0	0	0	0	515	510	135	0	
8	0	0	0	0	515	508	133	0	
9	0	0	0	0	516	509	134	0	
10	0	0	0	0	515	511	134	0	
11	0	0	0	0	515	508	135	0	
12	0	0	0	0	518	508	133	0	
13	0	0	0	0	515	510	132	0	
14	0	0	0	0	511	507	133	0	
15	0	0	0	0	511	507	132	0	
0	0	0	0	0	511	504	133	0	
1	0	0	0	0	508	507	132	0	
2	0	0	0	0	505	505	133	0	
3	0	0	0	0	505	505	134	0	
4	0	0	0	0	507	507	134	0	
5	0	0	0	0	505	507	132	0	
6	0	0	0	0	507	505	133	0	
7	0	0	0	0	508	506	132	0	
8	0	0	0	0	509	508	132	0	
9	0	0	0	0	510	510	132	0	
10	0	0	0	0	511	507	132	0	
11	0	0	0	0	514	508	132	0	
12	0	0	0	0	515	508	132	0	
13	0	0	0	0	517	509	132	0	
14	0	0	0	0	516	510	133	0	
15	0	0	0	0	515	510	133	0	
0	0	0	0	0	515	509	132	0	
1	0	0	0	0	515	509	131	0	
2	0	0	0	0	515	509	131	0	
3	0	0	0	0	511	507	131	0	
4	0	0	0	0	508	507	132	0	
5	0	0	0	0	508	507	132	0	
6	0	0	0	0	508	506	131	0	
7	0	0	0	0	508	508	131	0	
8	0	0	0	0	508	507	132	0	
9	0	0	0	0	508	506	131	0	
10	0	0	0	0	507	507	131	0	
11	0	0	0	0	506	510	130	0	
12	0	0	0	0	508	506	130	0	
13	0	0	0	0	512	511	129	0	
14	0	0	0	0	512	507	130	0	
15	0	0	0	0	514	509	130	0	
0	0	0	0	0	514	509	130	0	
1	0	0	0	0	512	511	130	0	
2	0	0	0	0	515	509	129	0	
3	0	0	0	0	517	509	129	0	
4	0	0	0	0	517	506	130	0	
5	0	0	0	0	520	506	129	0	
6	0	0	0	0	516	506	129	0	
7	0	0	0	0	510	505	128	0	
8	0	0	0	0	508	508	128	0	
9	0	0	0	0	511	507	129	0	
10	0	0	0	0	508	508	129	0	
11	0	0	0	0	506	505	129	0	
12	0	0	0	0	504	507	128	0	
13	0	0	0	0	506	505	128	0	
14	0	0	0	0	511	509	128	0	
15	0	0	0	0	511	511	129	0	
0	0	0	0	0	508	508	128	0	
1	0	0	0	0	508	508	128	0	
2	0	0	0	0	508	509	128	0	
3	0	0	0	0	511	509	127	0	
4	0	0	0	0	513	510	127	0	
5	0	0	0	0	513	509	127	0	
6	0	0	0	0	514	511	127	0	
7	0	0	0	0	515	507	127	0	
8	0	0	0	0	513	508	127	0	
9	0	0	0	0	512	508	126	0	
10	0	0	0	0	512	507	126	0	
11	0	0	0	0	512	508	127	0	
12	0	0	0	0	509	507	127	0	
13	0	0	0	0	507	508	127	0	
14	0	0	0	0	504	508	127	0	
15	0	0	0	0	505	508	127	0	
0	0	0	0	0	505	507	127	0	
1	0	0	0	0	505	508	126	0	
2	0	0	0	0	505	507	126	0	
3	0	0	0	0	506	507	126	0	
4	0	0	0	0	507	508	127	0	
5	0	0	0	0	509	505	126	0	
6	0	0	0	0	511	507	126	0	
7	0	0	0	0	514	508	125	0	
8	0	0	0	0	511	507	125	0	
9	0	0	0	0	515	507	125	0	
10	0	0	0	0	516	509	124	0	
11	0	0	0	0	515	510	124	0	
12	0	0	0	0	515	506	125	0	
13	0	0	0	0	514	507	124	0	
14	0	0	0	0	511	506	123	0	
15	0	0	0	0	511	509	123	0	
0	0	0	0	0	511	510	123	0	
1	0	0	0	0	508	508	123	0	
2	0	0	0	0	511	509	123	0	
3	0	0	0	0	508	505	123	0	
4	0	0	0	0	506	507	123	0	
5	0	0	0	0	506	509	123	0	
6	0	0	0	0	504	508	123	0	
7	0	0	0	0	508	507	122	0	
8	0	0	0	0	515	508	123	0	
9	0	0	0	0	511	509	122	0	
10	0	0	0	0	516	509	123	0	
11	0	0	0	0	512	511	122	0	
12	0	0	0	0	511	511	122	0	
13	0	0	0	0	514	509	121	0	
14	0	0	0	0	514	510	121	0	
15	0	0	0	0	513	507	120	0	
0	0	0	0	0	514	507	120	0	
1	0	0	0	0	514	508	121	0	
2	0	0	0	0	511	508	121	0	
3	0	0	0	0	511	508	120	0	
4	0	0	0	0	510	508	120	0	
5	0	0	0	0	508	506	121	0	
6	0	0	0	0	506	508	120	0	
7	0	0	0	0	505	507	120	0	
8	0	0	0	0	506	504	119	0	
9	0	0	0	0	508	505	119	0	
10	0	0	0	0	507	505	117	0	
11	0	0	0	0	507	507	117	0	
12	0	0	0	0	509	507	118	0	
13	0	0	0	0	513	508	117	0	
14	0	0	0	0	513	508	116	0	
15	0	0	0	0	515	510	116	0	
0	0	0	0	0	516	509	116	0	
1	0	0	0	0	515	510	115	0	
2	0	0	0	0	516	511	116	0	
3	0	0	0	0	516	509	116	0	
4	0	0	0	0	515	508	115	0	
5	0	0	0	0	514	509	115	0	
6	0	0	0	0	513	506	115	0	
7	0	0	0	0	513	507	115	0	
8	0	0	0	0	511	508	114	0	
9	0	0	0	0	508	506	114	0	
10	0	0	0	0	506	507	115	0	
11	0	0	0	0	503	507	115	0	
12	0	0	0	0	504	508	113	0	
13	0	0	0	0	507	507	114	0	
14	0	0	0	0	510	506	114	0	
15	0	0	0	0	508	508	113	0	
0	0	0	0	0	509	507	115	0	
1	0	0	0	0	510	509	115	0	
2	0	0	0	0	510	507	114	0	
3	0	0	0	0	514	508	114	0	
4	0	0	0	0	517	508	115	0	
5	0	0	0	0	515	509	115	0	
6	0	0	0	0	514	509	113	0	
7	0	0	0	0	515	509	114	0	
8	0	0	0	0	519	508	114	0	
9	0	0	0	0	517	507	114	0	
10	0	0	0	0	514	508	115	0	
11	0	0	0	0	512	506	115	0	
12	0	0	0	0	510	505	116	0	
13	0	0	0	0	508	508	115	0	
14	0	0	0	0	505	509	115	0	
15	0	0	0	0	504	508	115	0	
0	0	0	0	0	505	508	116	0	
1	0	0	0	0	505	508	115	0	
2	0	0	0	0	508	507	116	0	
3	0	0	0	0	508	507	116	0	
4	0	0	0	0	511	508	117	0	
5	0	0	0	0	513	509	115	0	
6	0	0	0	0	508	505	117	0	
7	0	0	0	0	518	508	117	0	
8	0	0	0	0	521	511	117	0	
9	0	0	0	0	518	511	116	0	
10	0	0	0	0	516	510	115	0	
11	0	0	0	0	515	509	116	0	
12	0	0	0	0	515	508	116	0	
13	0	0	0	0	513	508	115	0	
14	0	0	0	0	513	508	115	0	
15	0	0	0	0	510	508	116	0	
0	0	0	0	0	510	507	116	0	
1	0	0	0	0	511	508	116	0	
2	0	0	0	0	511	507	117	0	
3	0	0	0	0	508	507	116	0	
4	0	0	0	0	507	508	117	0	
5	0	0	0	0	507	507	116	0	
6	0	0	0	0	508	507	115	0	
7	0	0	0	0	507	508	115	0	
8	0	0	0	0	509	506	115	0	
9	0	0	0	0	513	507	115	0	
10	0	0	0	0	514	508	115	0	
11	0	0	0	0	516	509	114	0	
12	0	0	0	0	515	510	115	0	
13	0	0	0	0	516	510	115	0	
14	0	0	0	0	516	508	116	0	
15	0	0	0	0	518	511	116	0	
0	0	0	0	0	517	509	115	0	
1	0	0	0	0	512	510	115	0	
2	0	0	0	0	512	509	114	0	
3	0	0	0	0	510	509	114	0	
4	0	0	0	0	508	508	115	0	
5	0	0	0	0	506	507	115	0	
6	0	0	0	0	506	507	113	0	
7	0	0	0	0	504	508	114	0	
8	0	0	0	0	503	508	113	0	
9	0	0	0	0	504	507	113	0	
10	0	0	0	0	505	505	111	0	
11	0	0	0	0	504	508	111	0	
12	0	0	0	0	509	507	111	0	
13	0	0	0	0	511	508	112	0	
14	0	0	0	0	513	508	112	0	
15	0	0	0	0	515	510	111	0	
0	0	0	0	0	514	506	111	0	
1	0	0	0	0	513	508	113	0	
2	0	0	0	0	515	508	112	0	
3	0	0	0	0	518	508	110	0	
4	0	0	0	0	514	508	109	0	
5	0	0	0	0	515	508	110	0	
6	0	0	0	0	512	508	110	0	
7	0	0	0	0	512	507	110	0	
8	0	0	0	0	510	506	108	0	
9	0	0	0	0	508	506	109	0	
10	0	0	0	0	505	509	108	0	
11	0	0	0	0	503	510	109	0	
12	0	0	0	0	507	509	108	0	
13	0	0	0	0	506	509	108	0	
14	0	0	0	0	508	508	108	0	
15	0	0	0	0	507	509	109	0	
0	0	0	0	0	509	510	108	0	
1	0	0	0	0	509	509	109	0	
2	0	0	0	0	514	508	108	0	
3	0	0	0	0	513	509	111	0	
4	0	0	0	0	517	509	108	0	
5	0	0	0	0	519	508	106	0	
6	0	0	0	0	516	511	108	0	
7	0	0	0	0	515	510	108	0	
8	0	0	0	0	514	510	107	0	
9	0	0	0	0	515	506	106	0	
10	0	0	0	0	513	508	106	0	
11	0	0	0	0	509	507	106	0	
12	0	0	0	0	507	507	108	0	
13	0	0	0	0	508	505	105	0	
14	0	0	0	0	507	505	107	0	
15	0	0	0	0	502	507	107	0	
0	0	0	0	0	503	506	108	0	
1	0	0	0	0	507	506	108	0	
2	0	0	0	0	506	508	108	0	
3	0	0	0	0	507	506	107	0	
4	0	0	0	0	512	506	108	0	
5	0	0	0	0	514	507	107	0	
6	0	0	0	0	511	511	108	0	
7	0	0	0	0	512	509	107	0	
8	0	0	0	0	519	513	106	0	
9	0	0	0	0	518	510	106	0	
10	0	0	0	0	518	508	107	0	
11	0	0	0	0	516	507	107	0	
12	0	0	0	0	518	507	107	0	
13	0	0	0	0	515	508	106	0	
14	0	0	0	0	515	508	107	0	
15	0	0	0	0	513	508	108	0	
0	0	0	0	0	512	508	105	0	
1	0	0	0	0	510	507	106	0	
2	0	0	0	0	509	505	106	0	
3	0	0	0	0	507	508	107	0	
4	0	0	0	0	504	506	108	0	
5	0	0	0	0	506	507	108	0	
6	0	0	0	0	506	508	108	0	
7	0	0	0	0	504	508	108	0	
8	0	0	0	0	509	508	108	0	
9	0	0	0	0	511	508	108	0	
10	0	0	0	0	513	509	108	0	
11	0	0	0	0	516	511	108	0	
12	0	0	0	0	515	510	109	0	
13	0	0	0	0	514	508	108	0	
14	0	0	0	0	514	509	108	0	
15	0	0	0	0	515	508	108	0	
0	0	0	0	0	513	508	108	0	
1	0	0	0	0	513	508	108	0	
2	0	0	0	0	512	507	108	0	
3	0	0	0	0	514	507	107	0	
4	0	0	0	0	508	507	106	0	
5	0	0	0	0	506	505	107	0	
6	0	0	0	0	505	505	107	0	
7	0	0	0	0	508	507	108	0	
8	0	0	0	0	508	506	108	0	
9	0	0	0	0	509	507	107	0	
10	0	0	0	0	507	508	108	0	
11	0	0	0	0	510	508	108	0	
12	0	0	0	0	512	508	108	0	
13	0	0	0	0	513	507	109	0	
14	0	0	0	0	513	508	109	0	
15	0	0	0	0	515	513	110	0	
0	0	0	0	0	512	509	109	0	
1	0	0	0	0	513	510	110	0	
2	0	0	0	0	514	510	109	0	
3	0	0	0	0	514	510	109	0	
4	0	0	0	0	518	509	111	0	
5	0	0	0	0	515	507	109	0	
6	0	0	0	0	512	507	109	0	
7	0	0	0	0	508	508	108	0	
8	0	0	0	0	507	508	108	0	
9	0	0	0	0	506	506	109	0	
10	0	0	0	0	507	508	110	0	
11	0	0	0	0	508	507	111	0	
12	0	0	0	0	504	508	110	0	
13	0	0	0	0	504	505	110	0	
14	0	0	0	0	506	508	110	0	
15	0	0	0	0	508	508	110	0	
0	0	0	0	0	510	508	109	0	
1	0	0	0	0	512	508	109	0	
2	0	0	0	0	512	511	108	0	
3	0	0	0	0	515	510	109	0	
4	0	0	0	0	518	508	108	0	
5	0	0	0	0	518	511	109	0	
6	0	0	0	0	517	508	109	0	
7	0	0	0	0	515	510	108	0	
8	0	0	0	0	521	508	109	0	
9	0	0	0	0	518	508	108	0	
10	0	0	0	0	511	507	108	0	
11	0	0	0	0	509	507	108	0	
12	0	0	0	0	508	506	107	0	
13	0	0	0	0	508	506	107	0	
14	0	0	0	0	507	505	109	0	
15	0	0	0	0	506	508	110	0	
0	0	0	0	0	507	508	108	0	
1	0	0	0	0	505	508	106	0	
2	0	0	0	0	507	507	105	0	
3	0	0	0	0	509	512	107	0	
4	0	0	0	0	511	511	107	0	
5	0	0	0	0	512	508	106	0	
6	0	0	0	0	510	509	107	0	
7	0	0	0	0	512	508	105	0	
8	0	0	0	0	514	510	106	0	
9	0	0	0	0	518	508	104	0	
10	0	0	0	0	516	509	104	0	
11	0	0	0	0	516	508	107	0	
12	0	0	0	0	514	509	106	0	
13	0	0	0	0	511	508	107	0	
14	0	0	0	0	512	508	106	0	
15	0	0	0	0	511	506	106	0	
0	0	0	0	0	508	505	107	0	
1	0	0	0	0	506	507	105	0	
2	0	0	0	0	508	508	105	0	
3	0	0	0	0	504	509	107	0	
4	0	0	0	0	506	506	107	0	
5	0	0	0	0	508	506	107	0	
6	0	0	0	0	505	505	107	0	
7	0	0	0	0	507	507	107	0	
8	0	0	0	0	511	508	106	0	
9	0	0	0	0	513	509	105	0	
10	0	0	0	0	513	510	106	0	
11	0	0	0	0	515	509	107	0	
12	0	0	0	0	514	508	107	0	
13	0	0	0	0	514	508	107	0	
14	0	0	0	0	513	508	105	0	
15	0	0	0	0	513	507	106	0	
0	0	0	0	0	514	509	106	0	
1	0	0	0	0	516	507	107	0	
2	0	0	0	0	511	507	105	0	
3	0	0	0	0	508	509	107	0	
4	0	0	0	0	506	507	107	0	
5	0	0	0	0	506	507	107	0	
6	0	0	0	0	504	508	106	0	
7	0	0	0	0	502	505	107	0	
8	0	0	0	0	504	506	108	0	
9	0	0	0	0	506	508	107	0	
10	0	0	0	0	507	508	108	0	
11	0	0	0	0	502	506	107	0	
12	0	0	0	0	505	508	105	0	
13	0	0	0	0	511	508	107	0	
14	0	0	0	0	518	508	109	0	
15	0	0	0	0	516	507	108	0	
0	0	0	0	0	515	510	108	0	
1	0	0	0	0	516	511	107	0	
2	0	0	0	0	515	511	108	0	
3	0	0	0	0	513	508	109	0	
4	0	0	0	0	515	508	112	0	
5	0	0	0	0	513	511	109	0	
6	0	0	0	0	512	507	108	0	
7	0	0	0	0	509	508	109	0	
8	0	0	0	0	510	507	109	0	
9	0	0	0	0	507	506	109	0	
10	0	0	0	0	508	507	108	0	
11	0	0	0	0	508	504	108	0	
12	0	0	0	0	510	507	108	0	
13	0	0	0	0	510	511	111	0	
14	0	0	0	0	511	510	110	0	
15	0	0	0	0	510	508	110	0	
0	0	0	0	0	509	509	111	0	
1	0	0	0	0	512	507	110	0	
2	0	0	0	0	513	508	110	0	
3	0	0	0	0	516	509	110	0	
4	0	0	0	0	516	509	111	0	
5	0	0	0	0	518	509	112	0	
6	0	0	0	0	515	510	111	0	
7	0	0	0	0	515	511	111	0	
8	0	0	0	0	514	509	111	0	
9	0	0	0	0	515	509	111	0	
10	0	0	0	0	513	508	111	0	
11	0	0	0	0	511	507	111	0	
12	0	0	0	0	511	506	111	0	
13	0	0	0	0	509	507	110	0	
14	0	0	0	0	506	508	111	0	
15	0	0	0	0	507	505	111	0	
0	0	0	0	0	509	507	110	0	
1	0	0	0	0	508	507	113	0	
2	0	0	0	0	508	506	111	0	
3	0	0	0	0	508	508	112	0	
4	0	0	0	0	509	508	112	0	
5	0	0	0	0	513	509	112	0	
6	0	0	0	0	512	508	111	0	
7	0	0	0	0	513	509	111	0	
8	0	0	0	0	514	510	113	0	
9	0	0	0	0	515	510	112	0	
10	0	0	0	0	515	509	113	0	
11	0	0	0	0	515	509	113	0	
12	0	0	0	0	515	507	113	0	
13	0	0	0	0	515	506	112	0	
14	0	0	0	0	511	506	112	0	
15	0	0	0	0	510	505	111	0	
0	0	0	0	0	509	506	112	0	
1	0	0	0	0	509	507	112	0	
2	0	0	0	0	509	507	111	0	
3	0	0	0	0	508	508	112	0	
4	0	0	0	0	504	507	112	0	
5	0	0	0	0	506	506	110	0	
6	0	0	0	0	507	506	112	0	
7	0	0	0	0	508	506	109	0	
8	0	0	0	0	507	509	109	0	
9	0	0	0	0	511	509	109	0	
10	0	0	0	0	516	510	108	0	
11	0	0	0	0	515	509	109	0	
12	0	0	0	0	513	510	111	0	
13	0	0	0	0	514	509	111	0	
14	0	0	0	0	515	509	111	0	
15	0	0	0	0	512	509	109	0	
0	0	0	0	0	515	510	108	0	
1	0	0	0	0	516	509	108	0	
2	0	0	0	0	512	510	110	0	
3	0	0	0	0	510	508	110	0	
4	0	0	0	0	511	505	109	0	
5	0	0	0	0	507	504	108	0	
6	0	0	0	0	508	508	109	0	
7	0	0	0	0	508	508	108	0	
8	0	0	0	0	510	506	109	0	
9	0	0	0	0	508	507	108	0	
10	0	0	0	0	509	506	107	0	
11	0	0	0	0	509	507	108	0	
12	0	0	0	0	510	508	108	0	
13	0	0	0	0	509	508	108	0	
14	0	0	0	0	515	511	108	0	
15	0	0	0	0	519	511	109	0	
0	0	0	0	0	515	509	108	0	
1	0	0	0	0	515	510	110	0	
2	0	0	0	0	518	509	109	0	
3	0	0	0	0	519	510	109	0	
4	0	0	0	0	513	507	112	0	
5	0	0	0	0	512	505	111	0	
6	0	0	0	0	508	508	112	0	
7	0	0	0	0	509	509	111	0	
8	0	0	0	0	509	508	110	0	
9	0	0	0	0	507	505	109	0	
10	0	0	0	0	506	505	107	0	
11	0	0	0	0	507	508	108	0	
12	0	0	0	0	506	507	109	0	
13	0	0	0	0	503	506	110	0	
14	0	0	0	0	501	507	110	0	
15	0	0	0	0	507	507	110	0	
0	0	0	0	0	513	508	110	0	
1	0	0	0	0	518	509	109	0	
2	0	0	0	0	516	508	108	0	
3	0	0	0	0	515	511	110	0	
4	0	0	0	0	514	511	110	0	
5	0	0	0	0	516	509	110	0	
6	0	0	0	0	515	511	109	0	
7	0	0	0	0	515	511	111	0	
8	0	0	0	0	514	510	111	0	
9	0	0	0	0	514	508	110	0	
10	0	0	0	0	514	507	110	0	
11	0	0	0	0	509	505	111	0	
12	0	0	0	0	508	506	110	0	
13	0	0	0	0	506	505	110	0	
14	0	0	0	0	508	507	108	0	
15	0	0	0	0	506	504	111	0	
0	0	0	0	0	505	508	111	0	
1	0	0	0	0	503	507	111	0	
2	0	0	0	0	507	507	110	0	
3	0	0	0	0	505	510	107	0	
4	0	0	0	0	509	510	110	0	
5	0	0	0	0	511	509	110	0	
6	0	0	0	0	513	507	109	0	
7	0	0	0	0	516	510	110	0	
8	0	0	0	0	518	509	110	0	
9	0	0	0	0	519	508	111	0	
10	0	0	0	0	516	508	109	0	
11	0	0	0	0	516	508	110	0	
12	0	0	0	0	517	507	111	0	
13	0	0	0	0	513	507	111	0	
14	0	0	0	0	510	508	108	0	
15	0	0	0	0	511	510	109	0	
0	0	0	0	0	508	508	108	0	
1	0	0	0	0	505	509	109	0	
2	0	0	0	0	504	509	109	0	
3	0	0	0	0	505	506	110	0	
4	0	0	0	0	504	505	111	0	
5	0	0	0	0	504	509	108	0	
6	0	0	0	0	511	512	111	0	
7	0	0	0	0	509	507	106	0	
8	0	0	0	0	510	507	108	0	
9	0	0	0	0	513	506	112	0	
10	0	0	0	0	515	508	110	0	
11	0	0	0	0	515	507	110	0	
12	0	0	0	0	518	507	109	0	
13	0	0	0	0	519	508	111	0	
14	0	0	0	0	516	508	109	0	
15	0	0	0	0	516	506	111	0	
0	0	0	0	0	516	510	112	0	
1	0	0	0	0	515	507	111	0	
2	0	0	0	0	510	508	110	0	
3	0	0	0	0	509	508	110	0	
4	0	0	0	0	507	506	110	0	
5	0	0	0	0	507	504	111	0	
6	0	0	0	0	507	506	110	0	
7	0	0	0	0	504	505	109	0	
8	0	0	0	0	507	509	109	0	
9	0	0	0	0	509	508	108	0	
10	0	0	0	0	508	507	109	0	
11	0	0	0	0	507	507	108	0	
12	0	0	0	0	509	509	110	0	
13	0	0	0	0	510	508	106	0	
14	0	0	0	0	513	508	108	0	
15	0	0	0	0	515	509	110	0	
0	0	0	0	0	514	509	108	0	
1	0	0	0	0	515	509	110	0	
2	0	0	0	0	517	511	110	0	
3	0	0	0	0	518	510	109	0	
4	0	0	0	0	515	508	109	0	
5	0	0	0	0	515	509	105	0	
6	0	0	0	0	511	508	103	0	
7	0	0	0	0	509	508	107	0	
8	0	0	0	0	511	507	105	0	
9	0	0	0	0	506	508	104	0	
10	0	0	0	0	507	506	105	0	
11	0	0	0	0	508	509	105	0	
12	0	0	0	0	509	507	103	0	
13	0	0	0	0	508	508	100	0	
14	0	0	0	0	507	508	104	0	
15	0	0	0	0	509	509	102	0	
0	0	0	0	0	511	507	102	0	
1	0	0	0	0	511	509	102	0	
2	0	0	0	0	511	507	103	0	
3	0	0	0	0	518	508	102	0	
4	0	0	0	0	515	508	103	0	
5	0	0	0	0	515	511	105	0	
6	0	0	0	0	517	509	105	0	
7	0	0	0	0	514	508	104	0	
8	0	0	0	0	519	510	100	0	
9	0	0	0	0	515	507	99	0	
10	0	0	0	0	513	508	98	0	
11	0	0	0	0	510	508	99	0	
12	0	0	0	0	508	508	99	0	
13	0	0	0	0	505	506	98	0	
14	0	0	0	0	507	507	97	0	
15	0	0	0	0	510	508	98	0	
0	0	0	0	0	508	509	96	0	
1	0	0	0	0	510	509	96	0	
2	0	0	0	0	508	510	97	0	
3	0	0	0	0	512	508	95	0	
4	0	0	0	0	514	507	94	0	
5	0	0	0	0	513	510	94	0	
6	0	0	0	0	514	508	96	0	
7	0	0	0	0	515	509	95	0	
8	0	0	0	0	515	507	95	0	
9	0	0	0	0	514	507	96	0	
10	0	0	0	0	518	510	95	0	
11	0	0	0	0	517	509	95	0	
12	0	0	0	0	515	507	93	0	
13	0	0	0	0	511	508	93	0	
14	0	0	0	0	510	509	95	0	
15	0	0	0	0	507	507	96	0	
0	0	0	0	0	502	504	93	0	
1	0	0	0	0	502	506	97	0	
2	0	0	0	0	504	506	97	0	
3	0	0	0	0	504	507	98	0	
4	0	0	0	0	501	508	97	0	
5	0	0	0	0	505	507	94	0	
6	0	0	0	0	505	510	94	0	
7	0	0	0	0	507	508	95	0	
8	0	0	0	0	508	508	93	0	
9	0	0	0	0	509	508	92	0	
10	0	0	0	0	510	506	93	0	
11	0	0	0	0	512	511	94	0	
12	0	0	0	0	514	510	96	0	
13	0	0	0	0	515	510	93	0	
14	0	0	0	0	512	510	94	0	
15	0	0	0	0	518	509	92	0	
0	0	0	0	0	512	510	90	0	
1	0	0	0	0	513	509	90	0	
2	0	0	0	0	511	509	85	0	
3	0	0	0	0	512	506	86	0	
4	0	0	0	0	511	507	89	0	
5	0	0	0	0	508	507	86	0	
6	0	0	0	0	507	505	86	0	
7	0	0	0	0	507	506	86	0	
8	0	0	0	0	507	505	88	0	
9	0	0	0	0	510	509	88	0	
10	0	0	0	0	509	508	88	0	
11	0	0	0	0	508	508	87	0	
12	0	0	0	0	510	508	88	0	
13	0	0	0	0	510	508	87	0	
14	0	0	0	0	512	506	89	0	
15	0	0	0	0	515	508	86	0	
0	0	0	0	0	518	508	88	0	
1	0	0	0	0	519	508	88	0	
2	0	0	0	0	516	511	89	0	
3	0	0	0	0	514	508	88	0	
4	0	0	0	0	514	507	90	0	
5	0	0	0	0	514	508	90	0	
6	0	0	0	0	512	509	89	0	
7	0	0	0	0	511	509	90	0	
8	0	0	0	0	509	507	92	0	
9	0	0	0	0	507	509	93	0	
10	0	0	0	0	506	510	93	0	
11	0	0	0	0	505	509	93	0	
12	0	0	0	0	505	505	93	0	
13	0	0	0	0	507	507	93	0	
14	0	0	0	0	507	508	93	0	
15	0	0	0	0	508	507	94	0	
0	0	0	0	0	509	507	95	0	
1	0	0	0	0	511	511	94	0	
2	0	0	0	0	512	508	96	0	
3	0	0	0	0	516	508	95	0	
4	0	0	0	0	516	507	96	0	
5	0	0	0	0	517	505	97	0	
6	0	0	0	0	516	508	96	0	
7	0	0	0	0	516	507	96	0	
8	0	0	0	0	516	509	95	0	
9	0	0	0	0	516	509	95	0	
10	0	0	0	0	508	508	94	0	
11	0	0	0	0	511	507	95	0	
12	0	0	0	0	514	508	94	0	
13	0	0	0	0	507	508	94	0	
14	0	0	0	0	505	508	92	0	
15	0	0	0	0	504	508	94	0	
0	0	0	0	0	509	508	91	0	
1	0	0	0	0	508	506	91	0	
2	0	0	0	0	510	508	92	0	
3	0	0	0	0	510	508	93	0	
4	0	0	0	0	511	506	90	0	
5	0	0	0	0	511	507	93	0	
6	0	0	0	0	511	508	90	0	
7	0	0	0	0	512	510	89	0	
8	0	0	0	0	515	509	88	0	
9	0	0	0	0	515	508	87	0	
10	0	0	0	0	516	511	88	0	
11	0	0	0	0	515	509	88	0	
12	0	0	0	0	514	510	88	0	
13	0	0	0	0	513	508	88	0	
14	0	0	0	0	512	510	89	0	
15	0	0	0	0	509	509	90	0	
0	0	0	0	0	505	508	89	0	
1	0	0	0	0	503	505	88	0	
2	0	0	0	0	500	508	90	0	
3	0	0	0	0	504	508	90	0	
4	0	0	0	0	507	506	89	0	
5	0	0	0	0	507	505	90	0	
6	0	0	0	0	509	506	90	0	
7	0	0	0	0	505	506	93	0	
8	0	0	0	0	507	507	93	0	
9	0	0	0	0	509	510	91	0	
10	0	0	0	0	514	509	91	0	
11	0	0	0	0	515	508	90	0	
12	0	0	0	0	515	509	92	0	
13	0	0	0	0	516	506	92	0	
14	0	0	0	0	516	508	95	0	
15	0	0	0	0	516	510	96	0	
0	0	0	0	0	517	508	95	0	
1	0	0	0	0	513	508	95	0	
2	0	0	0	0	515	510	96	0	
3	0	0	0	0	512	510	96	0	
4	0	0	0	0	512	507	96	0	
5	0	0	0	0	508	508	97	0	
6	0	0	0	0	508	506	97	0	
7	0	0	0	0	507	507	96	0	
8	0	0	0	0	505	509	96	0	
9	0	0	0	0	507	508	97	0	
10	0	0	0	0	508	509	97	0	
11	0	0	0	0	510	508	96	0	
12	0	0	0	0	513	509	97	0	
13	0	0	0	0	515	511	97	0	
14	0	0	0	0	516	510	97	0	
15	0	0	0	0	516	506	97	0	
0	0	0	0	0	517	510	98	0	
1	0	0	0	0	519	508	98	0	
2	0	0	0	0	516	510	98	0	
3	0	0	0	0	516	512	99	0	
4	0	0	0	0	519	506	97	0	
5	0	0	0	0	516	507	98	0	
6	0	0	0	0	512	507	99	0	
7	0	0	0	0	513	506	101	0	
8	0	0	0	0	508	508	101	0	
9	0	0	0	0	509	508	101	0	
10	0	0	0	0	510	508	100	0	
11	0	0	0	0	508	507	100	0	
12	0	0	0	0	511	506	101	0	
13	0	0	0	0	508	508	102	0	
14	0	0	0	0	506	508	103	0	
15	0	0	0	0	508	506	102	0	
0	0	0	0	0	509	506	101	0	
1	0	0	0	0	508	508	101	0	
2	0	0	0	0	516	506	101	0	
3	0	0	0	0	518	506	102	0	
4	0	0	0	0	517	508	102	0	
5	0	0	0	0	517	507	101	0	
6	0	0	0	0	514	508	101	0	
7	0	0	0	0	514	510	101	0	
8	0	0	0	0	513	508	100	0	
9	0	0	0	0	511	508	101	0	
10	0	0	0	0	510	509	102	0	
11	0	0	0	0	509	508	100	0	
12	0	0	0	0	510	508	100	0	
13	0	0	0	0	509	507	100	0	
14	0	0	0	0	505	506	101	0	
15	0	0	0	0	507	507	99	0	
0	0	0	0	0	507	507	100	0	
1	0	0	0	0	508	509	99	0	
2	0	0	0	0	508	506	100	0	
3	0	0	0	0	510	507	100	0	
4	0	0	0	0	508	508	101	0	
5	0	0	0	0	510	508	103	0	
6	0	0	0	0	511	508	104	0	
7	0	0	0	0	516	508	105	0	
8	0	0	0	0	515	510	106	0	
9	0	0	0	0	513	510	105	0	
10	0	0	0	0	514	510	106	0	
11	0	0	0	0	513	509	107	0	
12	0	0	0	0	513	507	107	0	
13	0	0	0	0	513	507	105	0	
14	0	0	0	0	510	508	107	0	
15	0	0	0	0	509	508	108	0	
0	0	0	0	0	509	510	112	0	
1	0	0	0	0	510	506	112	0	
2	0	0	0	0	505	508	112	0	
3	0	0	0	0	506	507	112	0	
4	0	0	0	0	507	509	108	0	
