# OpenSignals Text File Format. Version 1
# {"20:18:06:13:21:78": {"position": 0, "device": "bitalino_rev", "device name": "20:18:06:13:21:78", "device connection": "BTH20:18:06:13:21:78", "sampling rate": 1000, "resolution": [4, 1, 1, 1, 1, 10, 10, 10, 10], "firmware version": 1281, "comments": "", "keywords": "", "mode": 0, "sync interval": 2, "date": "2023-5-30", "time": "19:14:1.610", "channels": [1, 2, 3, 4], "sensor": ["EMGBITREV", "EMGBITREV", "RAW", "RAW"], "label": ["A1", "A2", "A3", "A4"], "column": ["nSeq", "I1", "I2", "O1", "O2", "A1", "A2", "A3", "A4"], "special": [{}, {}, {}, {}], "digital IO": [0, 0, 1, 1]}}
# EndOfHeader
0	0	0	0	0	510	508	0	0	
1	0	0	0	0	511	508	0	0	
2	0	0	0	0	511	505	0	0	
3	0	0	0	0	510	509	0	0	
4	0	0	0	0	512	507	0	0	
5	0	0	0	0	512	507	0	0	
6	0	0	0	0	511	509	0	0	
7	0	0	0	0	512	508	0	0	
8	0	0	0	0	510	509	0	0	
9	0	0	0	0	511	507	0	0	
10	0	0	0	0	509	508	0	0	
11	0	0	0	0	512	510	0	0	
12	0	0	0	0	510	509	0	0	
13	0	0	0	0	511	507	0	0	
14	0	0	0	0	511	508	0	0	
15	0	0	0	0	512	507	0	0	
0	0	0	0	0	511	511	0	0	
1	0	0	0	0	515	508	0	0	
2	0	0	0	0	513	509	0	0	
3	0	0	0	0	513	509	0	0	
4	0	0	0	0	510	508	0	0	
5	0	0	0	0	512	509	0	0	
6	0	0	0	0	512	510	0	0	
7	0	0	0	0	511	508	0	0	
8	0	0	0	0	514	510	0	0	
9	0	0	0	0	509	507	0	0	
10	0	0	0	0	509	508	0	0	
11	0	0	0	0	509	509	0	0	
12	0	0	0	0	510	509	0	0	
13	0	0	0	0	509	507	0	0	
14	0	0	0	0	511	509	0	0	
15	0	0	0	0	512	507	0	0	
0	0	0	0	0	511	507	0	0	
1	0	0	0	0	511	505	0	0	
2	0	0	0	0	509	507	0	0	
3	0	0	0	0	510	509	0	0	
4	0	0	0	0	515	508	0	0	
5	0	0	0	0	511	509	0	0	
6	0	0	0	0	512	511	0	0	
7	0	0	0	0	513	510	0	0	
8	0	0	0	0	511	508	0	0	
9	0	0	0	0	511	507	0	0	
10	0	0	0	0	514	512	0	0	
11	0	0	0	0	511	508	0	0	
12	0	0	0	0	510	509	0	0	
13	0	0	0	0	511	508	0	0	
14	0	0	0	0	512	508	0	0	
15	0	0	0	0	510	509	0	0	
0	0	0	0	0	512	508	0	0	
1	0	0	0	0	508	507	0	0	
2	0	0	0	0	508	509	0	0	
3	0	0	0	0	510	507	0	0	
4	0	0	0	0	510	507	0	0	
5	0	0	0	0	511	508	0	0	
6	0	0	0	0	511	507	0	0	
7	0	0	0	0	511	509	0	0	
8	0	0	0	0	513	508	0	0	
9	0	0	0	0	514	507	0	0	
10	0	0	0	0	512	508	0	0	
11	0	0	0	0	511	508	0	0	
12	0	0	0	0	508	508	0	0	
13	0	0	0	0	510	507	0	0	
14	0	0	0	0	511	511	0	0	
15	0	0	0	0	511	509	0	0	
0	0	0	0	0	511	508	0	0	
1	0	0	0	0	511	510	0	0	
2	0	0	0	0	511	510	0	0	
3	0	0	0	0	511	507	0	0	
4	0	0	0	0	510	508	0	0	
5	0	0	0	0	510	508	0	0	
6	0	0	0	0	511	511	0	0	
7	0	0	0	0	513	507	0	0	
8	0	0	0	0	511	509	0	0	
9	0	0	0	0	511	508	0	0	
10	0	0	0	0	513	511	0	0	
11	0	0	0	0	511	510	0	0	
12	0	0	0	0	513	509	0	0	
13	0	0	0	0	512	507	0	0	
14	0	0	0	0	512	508	0	0	
15	0	0	0	0	510	510	0	0	
0	0	0	0	0	511	508	0	0	
1	0	0	0	0	511	508	0	0	
2	0	0	0	0	510	507	0	0	
3	0	0	0	0	510	508	0	0	
4	0	0	0	0	511	508	0	0	
5	0	0	0	0	511	510	0	0	
6	0	0	0	0	508	508	0	0	
7	0	0	0	0	512	509	0	0	
8	0	0	0	0	513	507	0	0	
9	0	0	0	0	510	508	0	0	
10	0	0	0	0	511	503	0	0	
11	0	0	0	0	511	509	0	0	
12	0	0	0	0	512	508	0	0	
13	0	0	0	0	510	511	0	0	
14	0	0	0	0	511	508	0	0	
15	0	0	0	0	512	510	0	0	
0	0	0	0	0	512	509	0	0	
1	0	0	0	0	512	508	0	0	
2	0	0	0	0	511	507	0	0	
3	0	0	0	0	512	507	0	0	
4	0	0	0	0	513	507	0	0	
5	0	0	0	0	515	509	0	0	
6	0	0	0	0	513	508	0	0	
7	0	0	0	0	510	508	0	0	
8	0	0	0	0	510	508	0	0	
9	0	0	0	0	510	508	0	0	
10	0	0	0	0	511	510	0	0	
11	0	0	0	0	511	508	0	0	
12	0	0	0	0	511	508	0	0	
13	0	0	0	0	510	507	0	0	
14	0	0	0	0	510	508	0	0	
15	0	0	0	0	512	508	0	0	
0	0	0	0	0	511	507	0	0	
1	0	0	0	0	509	511	0	0	
2	0	0	0	0	510	507	0	0	
3	0	0	0	0	511	508	0	0	
4	0	0	0	0	510	510	0	0	
5	0	0	0	0	513	508	0	0	
6	0	0	0	0	512	508	0	0	
7	0	0	0	0	510	507	0	0	
8	0	0	0	0	511	508	0	0	
9	0	0	0	0	513	509	0	0	
10	0	0	0	0	509	505	0	0	
11	0	0	0	0	512	509	0	0	
12	0	0	0	0	511	509	0	0	
13	0	0	0	0	511	508	0	0	
14	0	0	0	0	511	508	0	0	
15	0	0	0	0	508	508	0	0	
0	0	0	0	0	509	508	0	0	
1	0	0	0	0	510	508	0	0	
2	0	0	0	0	509	506	0	0	
3	0	0	0	0	511	510	0	0	
4	0	0	0	0	511	508	0	0	
5	0	0	0	0	511	509	0	0	
6	0	0	0	0	509	508	0	0	
7	0	0	0	0	515	508	0	0	
8	0	0	0	0	513	510	0	0	
9	0	0	0	0	511	504	0	0	
10	0	0	0	0	513	508	0	0	
11	0	0	0	0	511	506	0	0	
12	0	0	0	0	508	509	0	0	
13	0	0	0	0	510	508	0	0	
14	0	0	0	0	511	507	0	0	
15	0	0	0	0	511	509	0	0	
0	0	0	0	0	510	508	0	0	
1	0	0	0	0	512	506	0	0	
2	0	0	0	0	511	510	0	0	
3	0	0	0	0	514	508	0	0	
4	0	0	0	0	510	508	0	0	
5	0	0	0	0	508	506	0	0	
6	0	0	0	0	511	511	0	0	
7	0	0	0	0	511	508	0	0	
8	0	0	0	0	510	507	0	0	
9	0	0	0	0	511	509	0	0	
10	0	0	0	0	510	506	0	0	
11	0	0	0	0	513	510	0	0	
12	0	0	0	0	511	510	0	0	
13	0	0	0	0	511	507	0	0	
14	0	0	0	0	511	509	0	0	
15	0	0	0	0	510	508	0	0	
0	0	0	0	0	511	507	0	0	
1	0	0	0	0	515	510	0	0	
2	0	0	0	0	512	510	0	0	
3	0	0	0	0	514	507	0	0	
4	0	0	0	0	510	506	0	0	
5	0	0	0	0	510	509	0	0	
6	0	0	0	0	512	509	0	0	
7	0	0	0	0	507	506	0	0	
8	0	0	0	0	511	507	0	0	
9	0	0	0	0	510	508	0	0	
10	0	0	0	0	508	508	0	0	
11	0	0	0	0	511	508	0	0	
12	0	0	0	0	512	509	0	0	
13	0	0	0	0	512	509	0	0	
14	0	0	0	0	509	509	0	0	
15	0	0	0	0	511	506	0	0	
0	0	0	0	0	512	508	0	0	
1	0	0	0	0	515	507	0	0	
2	0	0	0	0	513	506	0	0	
3	0	0	0	0	511	508	0	0	
4	0	0	0	0	513	508	0	0	
5	0	0	0	0	512	509	0	0	
6	0	0	0	0	509	506	0	0	
7	0	0	0	0	510	506	0	0	
8	0	0	0	0	513	510	0	0	
9	0	0	0	0	511	508	0	0	
10	0	0	0	0	511	509	0	0	
11	0	0	0	0	510	508	0	0	
12	0	0	0	0	509	511	0	0	
13	0	0	0	0	509	507	0	0	
14	0	0	0	0	512	507	0	0	
15	0	0	0	0	513	509	0	0	
0	0	0	0	0	511	511	0	0	
1	0	0	0	0	509	508	0	0	
2	0	0	0	0	508	508	0	0	
3	0	0	0	0	511	511	0	0	
4	0	0	0	0	511	508	0	0	
5	0	0	0	0	512	509	0	0	
6	0	0	0	0	511	510	0	0	
7	0	0	0	0	512	508	0	0	
8	0	0	0	0	514	505	0	0	
9	0	0	0	0	513	507	0	0	
10	0	0	0	0	511	507	0	0	
11	0	0	0	0	513	508	0	0	
12	0	0	0	0	510	508	0	0	
13	0	0	0	0	515	507	0	0	
14	0	0	0	0	511	509	0	0	
15	0	0	0	0	511	510	0	0	
0	0	0	0	0	509	508	0	0	
1	0	0	0	0	510	509	0	0	
2	0	0	0	0	512	508	0	0	
3	0	0	0	0	510	508	0	0	
4	0	0	0	0	510	507	0	0	
5	0	0	0	0	511	509	0	0	
6	0	0	0	0	510	510	0	0	
7	0	0	0	0	512	506	0	0	
8	0	0	0	0	511	507	0	0	
9	0	0	0	0	509	508	0	0	
10	0	0	0	0	512	507	0	0	
11	0	0	0	0	510	508	0	0	
12	0	0	0	0	509	506	0	0	
13	0	0	0	0	512	510	0	0	
14	0	0	0	0	513	510	0	0	
15	0	0	0	0	512	508	0	0	
0	0	0	0	0	512	508	0	0	
1	0	0	0	0	514	508	0	0	
2	0	0	0	0	511	509	0	0	
3	0	0	0	0	511	510	0	0	
4	0	0	0	0	512	507	0	0	
5	0	0	0	0	510	505	0	0	
6	0	0	0	0	513	508	0	0	
7	0	0	0	0	511	508	0	0	
8	0	0	0	0	511	506	0	0	
9	0	0	0	0	513	508	0	0	
10	0	0	0	0	512	506	0	0	
11	0	0	0	0	511	508	0	0	
12	0	0	0	0	510	510	0	0	
13	0	0	0	0	511	508	0	0	
14	0	0	0	0	511	507	0	0	
15	0	0	0	0	513	508	0	0	
0	0	0	0	0	511	508	0	0	
1	0	0	0	0	510	510	0	0	
2	0	0	0	0	508	509	0	0	
3	0	0	0	0	513	510	0	0	
4	0	0	0	0	511	505	0	0	
5	0	0	0	0	512	508	0	0	
6	0	0	0	0	511	508	0	0	
7	0	0	0	0	511	507	0	0	
8	0	0	0	0	511	510	0	0	
9	0	0	0	0	511	510	0	0	
10	0	0	0	0	511	508	0	0	
11	0	0	0	0	508	508	0	0	
12	0	0	0	0	512	506	0	0	
13	0	0	0	0	510	508	0	0	
14	0	0	0	0	511	509	0	0	
15	0	0	0	0	513	509	0	0	
0	0	0	0	0	512	508	0	0	
1	0	0	0	0	510	508	0	0	
2	0	0	0	0	511	508	0	0	
3	0	0	0	0	510	508	0	0	
4	0	0	0	0	510	508	0	0	
5	0	0	0	0	510	508	0	0	
6	0	0	0	0	512	508	0	0	
7	0	0	0	0	512	510	0	0	
8	0	0	0	0	511	508	0	0	
9	0	0	0	0	511	506	0	0	
10	0	0	0	0	509	508	0	0	
11	0	0	0	0	511	512	0	0	
12	0	0	0	0	511	508	0	0	
13	0	0	0	0	511	509	0	0	
14	0	0	0	0	510	506	0	0	
15	0	0	0	0	509	508	0	0	
0	0	0	0	0	513	508	0	0	
1	0	0	0	0	511	507	0	0	
2	0	0	0	0	510	507	0	0	
3	0	0	0	0	510	508	0	0	
4	0	0	0	0	509	509	0	0	
5	0	0	0	0	511	509	0	0	
6	0	0	0	0	511	508	0	0	
7	0	0	0	0	512	510	0	0	
8	0	0	0	0	512	509	0	0	
9	0	0	0	0	511	509	0	0	
10	0	0	0	0	512	507	0	0	
11	0	0	0	0	510	507	0	0	
12	0	0	0	0	508	505	0	0	
13	0	0	0	0	510	507	0	0	
14	0	0	0	0	513	507	0	0	
15	0	0	0	0	511	507	0	0	
0	0	0	0	0	512	508	0	0	
1	0	0	0	0	510	507	0	0	
2	0	0	0	0	510	508	0	0	
3	0	0	0	0	510	507	0	0	
4	0	0	0	0	511	505	0	0	
5	0	0	0	0	510	509	0	0	
6	0	0	0	0	513	506	0	0	
7	0	0	0	0	512	508	0	0	
8	0	0	0	0	512	509	0	0	
9	0	0	0	0	510	507	0	0	
10	0	0	0	0	515	508	0	0	
11	0	0	0	0	515	507	0	0	
12	0	0	0	0	513	510	0	0	
13	0	0	0	0	509	509	0	0	
14	0	0	0	0	497	511	0	0	
15	0	0	0	0	504	510	0	0	
0	0	0	0	0	512	508	0	0	
1	0	0	0	0	513	508	0	0	
2	0	0	0	0	511	509	0	0	
3	0	0	0	0	515	505	0	0	
4	0	0	0	0	515	509	0	0	
5	0	0	0	0	510	506	0	0	
6	0	0	0	0	511	508	0	0	
7	0	0	0	0	511	510	0	0	
8	0	0	0	0	512	507	0	0	
9	0	0	0	0	509	508	0	0	
10	0	0	0	0	511	509	0	0	
11	0	0	0	0	510	508	0	0	
12	0	0	0	0	509	508	0	0	
13	0	0	0	0	511	508	0	0	
14	0	0	0	0	513	510	0	0	
15	0	0	0	0	510	508	0	0	
0	0	0	0	0	513	509	0	0	
1	0	0	0	0	510	509	0	0	
2	0	0	0	0	511	509	0	0	
3	0	0	0	0	511	505	0	0	
4	0	0	0	0	509	506	0	0	
5	0	0	0	0	512	507	0	0	
6	0	0	0	0	511	508	0	0	
7	0	0	0	0	513	507	0	0	
8	0	0	0	0	514	508	0	0	
9	0	0	0	0	511	508	0	0	
10	0	0	0	0	511	510	0	0	
11	0	0	0	0	510	508	0	0	
12	0	0	0	0	514	512	0	0	
13	0	0	0	0	512	506	0	0	
14	0	0	0	0	512	507	0	0	
15	0	0	0	0	511	509	0	0	
0	0	0	0	0	511	508	0	0	
1	0	0	0	0	515	509	0	0	
2	0	0	0	0	513	508	0	0	
3	0	0	0	0	509	505	0	0	
4	0	0	0	0	513	507	0	0	
5	0	0	0	0	512	509	0	0	
6	0	0	0	0	511	509	0	0	
7	0	0	0	0	511	509	0	0	
8	0	0	0	0	509	508	0	0	
9	0	0	0	0	510	506	0	0	
10	0	0	0	0	513	509	0	0	
11	0	0	0	0	513	509	0	0	
12	0	0	0	0	511	507	0	0	
13	0	0	0	0	510	507	0	0	
14	0	0	0	0	511	508	0	0	
15	0	0	0	0	511	508	0	0	
0	0	0	0	0	511	508	0	0	
1	0	0	0	0	509	508	0	0	
2	0	0	0	0	508	508	0	0	
3	0	0	0	0	508	508	0	0	
4	0	0	0	0	509	511	0	0	
5	0	0	0	0	511	510	0	0	
6	0	0	0	0	512	508	0	0	
7	0	0	0	0	512	508	0	0	
8	0	0	0	0	512	508	0	0	
9	0	0	0	0	514	507	0	0	
10	0	0	0	0	513	509	0	0	
11	0	0	0	0	511	508	0	0	
12	0	0	0	0	512	506	0	0	
13	0	0	0	0	511	506	0	0	
14	0	0	0	0	512	507	0	0	
15	0	0	0	0	511	510	0	0	
0	0	0	0	0	511	510	0	0	
1	0	0	0	0	507	508	0	0	
2	0	0	0	0	509	509	0	0	
3	0	0	0	0	510	510	0	0	
4	0	0	0	0	512	509	0	0	
5	0	0	0	0	511	507	0	0	
6	0	0	0	0	511	507	0	0	
7	0	0	0	0	510	507	0	0	
8	0	0	0	0	511	505	0	0	
9	0	0	0	0	512	510	0	0	
10	0	0	0	0	510	507	0	0	
11	0	0	0	0	509	505	0	0	
12	0	0	0	0	510	508	0	0	
13	0	0	0	0	510	511	0	0	
14	0	0	0	0	513	508	0	0	
15	0	0	0	0	512	508	0	0	
0	0	0	0	0	510	506	0	0	
1	0	0	0	0	510	508	0	0	
2	0	0	0	0	513	508	0	0	
3	0	0	0	0	514	511	0	0	
4	0	0	0	0	511	510	0	0	
5	0	0	0	0	511	507	0	0	
6	0	0	0	0	515	507	0	0	
7	0	0	0	0	516	510	0	0	
8	0	0	0	0	513	510	0	0	
9	0	0	0	0	515	510	0	0	
10	0	0	0	0	512	511	0	0	
11	0	0	0	0	510	508	0	0	
12	0	0	0	0	511	507	0	0	
13	0	0	0	0	511	510	0	0	
14	0	0	0	0	512	507	0	0	
15	0	0	0	0	512	511	0	0	
0	0	0	0	0	510	508	0	0	
1	0	0	0	0	513	508	0	0	
2	0	0	0	0	510	507	0	0	
3	0	0	0	0	510	508	0	0	
4	0	0	0	0	508	508	0	0	
5	0	0	0	0	513	508	0	0	
6	0	0	0	0	511	508	0	0	
7	0	0	0	0	512	508	0	0	
8	0	0	0	0	511	506	0	0	
9	0	0	0	0	512	506	0	0	
10	0	0	0	0	510	507	0	0	
11	0	0	0	0	511	509	0	0	
12	0	0	0	0	512	506	0	0	
13	0	0	0	0	511	510	0	0	
14	0	0	0	0	510	509	0	0	
15	0	0	0	0	512	508	0	0	
0	0	0	0	0	514	509	0	0	
1	0	0	0	0	516	508	0	0	
2	0	0	0	0	513	507	0	0	
3	0	0	0	0	505	506	0	0	
4	0	0	0	0	495	508	0	0	
5	0	0	0	0	507	506	0	0	
6	0	0	0	0	512	511	0	0	
7	0	0	0	0	512	508	0	0	
8	0	0	0	0	513	508	0	0	
9	0	0	0	0	511	508	0	0	
10	0	0	0	0	512	508	0	0	
11	0	0	0	0	513	510	0	0	
12	0	0	0	0	510	509	0	0	
13	0	0	0	0	510	508	0	0	
14	0	0	0	0	510	507	0	0	
15	0	0	0	0	512	510	0	0	
0	0	0	0	0	512	509	0	0	
1	0	0	0	0	512	508	0	0	
2	0	0	0	0	512	507	0	0	
3	0	0	0	0	511	509	0	0	
4	0	0	0	0	511	508	0	0	
5	0	0	0	0	511	506	0	0	
6	0	0	0	0	513	508	0	0	
7	0	0	0	0	511	508	0	0	
8	0	0	0	0	512	508	0	0	
9	0	0	0	0	511	509	0	0	
10	0	0	0	0	513	509	0	0	
11	0	0	0	0	510	508	0	0	
12	0	0	0	0	511	508	0	0	
13	0	0	0	0	512	504	0	0	
14	0	0	0	0	510	509	0	0	
15	0	0	0	0	511	507	0	0	
0	0	0	0	0	511	507	0	0	
1	0	0	0	0	511	508	0	0	
2	0	0	0	0	511	508	0	0	
3	0	0	0	0	509	508	0	0	
4	0	0	0	0	512	509	0	0	
5	0	0	0	0	510	509	0	0	
6	0	0	0	0	509	508	0	0	
7	0	0	0	0	508	507	0	0	
8	0	0	0	0	511	506	0	0	
9	0	0	0	0	512	511	0	0	
10	0	0	0	0	512	508	0	0	
11	0	0	0	0	519	511	0	0	
12	0	0	0	0	515	508	0	0	
13	0	0	0	0	511	508	0	0	
14	0	0	0	0	511	509	0	0	
15	0	0	0	0	511	508	0	0	
0	0	0	0	0	512	506	0	0	
1	0	0	0	0	512	508	0	0	
2	0	0	0	0	510	511	0	0	
3	0	0	0	0	511	508	0	0	
4	0	0	0	0	508	507	0	0	
5	0	0	0	0	508	507	0	0	
6	0	0	0	0	511	506	0	0	
7	0	0	0	0	509	508	0	0	
8	0	0	0	0	508	507	0	0	
9	0	0	0	0	509	508	0	0	
10	0	0	0	0	507	507	0	0	
11	0	0	0	0	510	507	0	0	
12	0	0	0	0	510	510	0	0	
13	0	0	0	0	514	510	0	0	
14	0	0	0	0	513	509	0	0	
15	0	0	0	0	518	508	0	0	
0	0	0	0	0	515	508	0	0	
1	0	0	0	0	515	508	0	0	
2	0	0	0	0	515	508	0	0	
3	0	0	0	0	511	508	0	0	
4	0	0	0	0	512	509	0	0	
5	0	0	0	0	507	507	0	0	
6	0	0	0	0	501	507	0	0	
7	0	0	0	0	494	510	0	0	
8	0	0	0	0	506	511	0	0	
9	0	0	0	0	512	510	0	0	
10	0	0	0	0	510	507	0	0	
11	0	0	0	0	512	505	0	0	
12	0	0	0	0	515	510	0	0	
13	0	0	0	0	512	505	0	0	
14	0	0	0	0	512	508	0	0	
15	0	0	0	0	513	509	0	0	
0	0	0	0	0	512	509	0	0	
1	0	0	0	0	515	511	0	0	
2	0	0	0	0	512	508	0	0	
3	0	0	0	0	512	509	0	0	
4	0	0	0	0	512	507	0	0	
5	0	0	0	0	512	508	0	0	
6	0	0	0	0	508	509	0	0	
7	0	0	0	0	513	508	0	0	
8	0	0	0	0	508	507	0	0	
9	0	0	0	0	513	510	0	0	
10	0	0	0	0	513	509	0	0	
11	0	0	0	0	513	507	0	0	
12	0	0	0	0	516	509	0	0	
13	0	0	0	0	514	508	0	0	
14	0	0	0	0	513	505	0	0	
15	0	0	0	0	509	507	0	0	
0	0	0	0	0	511	508	0	0	
1	0	0	0	0	510	507	0	0	
2	0	0	0	0	510	507	0	0	
3	0	0	0	0	509	510	0	0	
4	0	0	0	0	511	507	0	0	
5	0	0	0	0	512	508	0	0	
6	0	0	0	0	511	507	0	0	
7	0	0	0	0	512	509	0	0	
8	0	0	0	0	509	508	0	0	
9	0	0	0	0	511	508	0	0	
10	0	0	0	0	510	506	0	0	
11	0	0	0	0	510	508	0	0	
12	0	0	0	0	511	509	0	0	
13	0	0	0	0	512	508	0	0	
14	0	0	0	0	508	509	0	0	
15	0	0	0	0	513	511	0	0	
0	0	0	0	0	511	508	0	0	
1	0	0	0	0	511	508	0	0	
2	0	0	0	0	510	508	0	0	
3	0	0	0	0	512	508	0	0	
4	0	0	0	0	509	507	0	0	
5	0	0	0	0	512	510	0	0	
6	0	0	0	0	511	511	0	0	
7	0	0	0	0	510	508	0	0	
8	0	0	0	0	511	509	0	0	
9	0	0	0	0	512	509	0	0	
10	0	0	0	0	514	508	0	0	
11	0	0	0	0	512	508	0	0	
12	0	0	0	0	511	506	0	0	
13	0	0	0	0	510	507	0	0	
14	0	0	0	0	512	510	0	0	
15	0	0	0	0	512	508	0	0	
0	0	0	0	0	511	507	0	0	
1	0	0	0	0	510	506	0	0	
2	0	0	0	0	511	507	0	0	
3	0	0	0	0	510	508	0	0	
4	0	0	0	0	510	510	0	0	
5	0	0	0	0	512	509	0	0	
6	0	0	0	0	509	508	0	0	
7	0	0	0	0	508	508	0	0	
8	0	0	0	0	510	510	0	0	
9	0	0	0	0	511	509	0	0	
10	0	0	0	0	510	506	0	0	
11	0	0	0	0	509	508	0	0	
12	0	0	0	0	511	505	0	0	
13	0	0	0	0	512	508	0	0	
14	0	0	0	0	513	508	0	0	
15	0	0	0	0	515	507	0	0	
0	0	0	0	0	511	508	0	0	
1	0	0	0	0	510	507	0	0	
2	0	0	0	0	512	508	0	0	
3	0	0	0	0	510	508	0	0	
4	0	0	0	0	515	508	0	0	
5	0	0	0	0	513	508	0	0	
6	0	0	0	0	514	508	0	0	
7	0	0	0	0	511	508	0	0	
8	0	0	0	0	513	508	0	0	
9	0	0	0	0	511	507	0	0	
10	0	0	0	0	516	508	0	0	
11	0	0	0	0	513	509	0	0	
12	0	0	0	0	512	508	0	0	
13	0	0	0	0	510	510	0	0	
14	0	0	0	0	499	508	0	0	
15	0	0	0	0	512	509	0	0	
0	0	0	0	0	515	510	0	0	
1	0	0	0	0	513	509	0	0	
2	0	0	0	0	514	510	0	0	
3	0	0	0	0	512	508	0	0	
4	0	0	0	0	498	510	0	0	
5	0	0	0	0	500	510	0	0	
6	0	0	0	0	508	507	0	0	
7	0	0	0	0	509	508	0	0	
8	0	0	0	0	511	508	0	0	
9	0	0	0	0	513	505	0	0	
10	0	0	0	0	513	507	0	0	
11	0	0	0	0	516	509	0	0	
12	0	0	0	0	511	508	0	0	
13	0	0	0	0	514	507	0	0	
14	0	0	0	0	513	509	0	0	
15	0	0	0	0	510	510	0	0	
0	0	0	0	0	506	511	0	0	
1	0	0	0	0	512	508	0	0	
2	0	0	0	0	512	509	0	0	
3	0	0	0	0	512	508	0	0	
4	0	0	0	0	509	508	0	0	
5	0	0	0	0	511	508	0	0	
6	0	0	0	0	512	507	0	0	
7	0	0	0	0	514	506	0	0	
8	0	0	0	0	513	508	0	0	
9	0	0	0	0	513	509	0	0	
10	0	0	0	0	513	508	0	0	
11	0	0	0	0	510	509	0	0	
12	0	0	0	0	508	507	0	0	
13	0	0	0	0	511	507	0	0	
14	0	0	0	0	513	508	0	0	
15	0	0	0	0	512	508	0	0	
0	0	0	0	0	512	508	0	0	
1	0	0	0	0	512	511	0	0	
2	0	0	0	0	508	508	0	0	
3	0	0	0	0	508	507	0	0	
4	0	0	0	0	515	510	0	0	
5	0	0	0	0	512	506	0	0	
6	0	0	0	0	510	508	0	0	
7	0	0	0	0	512	509	0	0	
8	0	0	0	0	511	510	0	0	
9	0	0	0	0	511	510	0	0	
10	0	0	0	0	512	508	0	0	
11	0	0	0	0	512	508	0	0	
12	0	0	0	0	512	506	0	0	
13	0	0	0	0	511	510	0	0	
14	0	0	0	0	512	508	0	0	
15	0	0	0	0	511	507	0	0	
0	0	0	0	0	510	505	0	0	
1	0	0	0	0	512	507	0	0	
2	0	0	0	0	511	507	0	0	
3	0	0	0	0	511	509	0	0	
4	0	0	0	0	508	507	0	0	
5	0	0	0	0	509	506	0	0	
6	0	0	0	0	508	508	0	0	
7	0	0	0	0	506	509	0	0	
8	0	0	0	0	510	510	0	0	
9	0	0	0	0	509	510	0	0	
10	0	0	0	0	509	509	0	0	
11	0	0	0	0	510	509	0	0	
12	0	0	0	0	515	511	0	0	
13	0	0	0	0	520	510	0	0	
14	0	0	0	0	515	509	0	0	
15	0	0	0	0	511	506	0	0	
0	0	0	0	0	512	508	0	0	
1	0	0	0	0	512	508	0	0	
2	0	0	0	0	512	509	0	0	
3	0	0	0	0	508	508	0	0	
4	0	0	0	0	511	508	0	0	
5	0	0	0	0	513	508	0	0	
6	0	0	0	0	512	509	0	0	
7	0	0	0	0	512	508	0	0	
8	0	0	0	0	513	506	0	0	
9	0	0	0	0	511	507	0	0	
10	0	0	0	0	508	506	0	0	
11	0	0	0	0	511	509	0	0	
12	0	0	0	0	497	510	0	0	
13	0	0	0	0	498	507	0	0	
14	0	0	0	0	511	508	0	0	
15	0	0	0	0	512	506	0	0	
0	0	0	0	0	515	507	0	0	
1	0	0	0	0	516	511	0	0	
2	0	0	0	0	511	508	0	0	
3	0	0	0	0	512	506	0	0	
4	0	0	0	0	508	508	0	0	
5	0	0	0	0	499	510	0	0	
6	0	0	0	0	498	509	0	0	
7	0	0	0	0	511	506	0	0	
8	0	0	0	0	515	507	0	0	
9	0	0	0	0	522	509	0	0	
10	0	0	0	0	523	509	0	0	
11	0	0	0	0	520	507	0	0	
12	0	0	0	0	516	507	0	0	
13	0	0	0	0	514	508	0	0	
14	0	0	0	0	515	507	0	0	
15	0	0	0	0	512	507	0	0	
0	0	0	0	0	512	509	0	0	
1	0	0	0	0	512	508	0	0	
2	0	0	0	0	509	506	0	0	
3	0	0	0	0	500	505	0	0	
4	0	0	0	0	503	511	0	0	
5	0	0	0	0	510	508	0	0	
6	0	0	0	0	513	509	0	0	
7	0	0	0	0	511	508	0	0	
8	0	0	0	0	511	508	0	0	
9	0	0	0	0	508	510	0	0	
10	0	0	0	0	508	510	0	0	
11	0	0	0	0	510	507	0	0	
12	0	0	0	0	509	509	0	0	
13	0	0	0	0	504	509	0	0	
14	0	0	0	0	507	507	0	0	
15	0	0	0	0	512	508	0	0	
0	0	0	0	0	513	507	0	0	
1	0	0	0	0	516	505	0	0	
2	0	0	0	0	514	505	0	0	
3	0	0	0	0	518	507	0	0	
4	0	0	0	0	522	510	0	0	
5	0	0	0	0	515	508	0	0	
6	0	0	0	0	512	511	0	0	
7	0	0	0	0	497	508	0	0	
8	0	0	0	0	498	509	0	0	
9	0	0	0	0	511	510	0	0	
10	0	0	0	0	512	507	0	0	
11	0	0	0	0	512	510	0	0	
12	0	0	0	0	512	508	0	0	
13	0	0	0	0	513	509	0	0	
14	0	0	0	0	513	508	0	0	
15	0	0	0	0	512	506	0	0	
0	0	0	0	0	513	508	0	0	
1	0	0	0	0	512	508	0	0	
2	0	0	0	0	511	510	0	0	
3	0	0	0	0	513	511	0	0	
4	0	0	0	0	510	508	0	0	
5	0	0	0	0	511	508	0	0	
6	0	0	0	0	511	507	0	0	
7	0	0	0	0	512	508	0	0	
8	0	0	0	0	511	508	0	0	
9	0	0	0	0	511	509	0	0	
10	0	0	0	0	511	508	0	0	
11	0	0	0	0	514	508	0	0	
12	0	0	0	0	513	508	0	0	
13	0	0	0	0	511	507	0	0	
14	0	0	0	0	511	508	0	0	
15	0	0	0	0	512	508	0	0	
0	0	0	0	0	510	508	0	0	
1	0	0	0	0	512	510	0	0	
2	0	0	0	0	511	509	0	0	
3	0	0	0	0	511	508	0	0	
4	0	0	0	0	513	508	0	0	
5	0	0	0	0	511	509	0	0	
6	0	0	0	0	510	509	0	0	
7	0	0	0	0	511	509	0	0	
8	0	0	0	0	511	508	0	0	
9	0	0	0	0	511	507	0	0	
10	0	0	0	0	510	507	0	0	
11	0	0	0	0	510	507	0	0	
12	0	0	0	0	513	510	0	0	
13	0	0	0	0	511	507	0	0	
14	0	0	0	0	512	508	0	0	
15	0	0	0	0	511	507	0	0	
0	0	0	0	0	510	507	0	0	
1	0	0	0	0	510	509	0	0	
2	0	0	0	0	511	509	0	0	
3	0	0	0	0	513	506	0	0	
4	0	0	0	0	512	508	0	0	
5	0	0	0	0	514	509	0	0	
6	0	0	0	0	511	506	0	0	
7	0	0	0	0	513	508	0	0	
8	0	0	0	0	511	509	0	0	
9	0	0	0	0	511	507	0	0	
10	0	0	0	0	510	509	0	0	
11	0	0	0	0	511	506	0	0	
12	0	0	0	0	511	508	0	0	
13	0	0	0	0	511	505	0	0	
14	0	0	0	0	508	507	0	0	
15	0	0	0	0	511	508	0	0	
0	0	0	0	0	512	509	0	0	
1	0	0	0	0	509	509	0	0	
2	0	0	0	0	510	507	0	0	
3	0	0	0	0	510	506	0	0	
4	0	0	0	0	512	510	0	0	
5	0	0	0	0	512	509	0	0	
6	0	0	0	0	513	512	0	0	
7	0	0	0	0	510	507	0	0	
8	0	0	0	0	513	508	0	0	
9	0	0	0	0	511	509	0	0	
10	0	0	0	0	510	506	0	0	
11	0	0	0	0	512	508	0	0	
12	0	0	0	0	507	508	0	0	
13	0	0	0	0	511	511	0	0	
14	0	0	0	0	512	510	0	0	
15	0	0	0	0	509	508	0	0	
0	0	0	0	0	511	508	0	0	
1	0	0	0	0	510	508	0	0	
2	0	0	0	0	512	509	0	0	
3	0	0	0	0	511	508	0	0	
4	0	0	0	0	511	506	0	0	
5	0	0	0	0	515	508	0	0	
6	0	0	0	0	512	506	0	0	
7	0	0	0	0	513	505	0	0	
8	0	0	0	0	511	507	0	0	
9	0	0	0	0	511	507	0	0	
10	0	0	0	0	511	507	0	0	
11	0	0	0	0	510	506	0	0	
12	0	0	0	0	511	508	0	0	
13	0	0	0	0	511	509	0	0	
14	0	0	0	0	511	509	0	0	
15	0	0	0	0	511	508	0	0	
0	0	0	0	0	507	507	0	0	
1	0	0	0	0	509	510	0	0	
2	0	0	0	0	511	508	0	0	
3	0	0	0	0	512	508	0	0	
4	0	0	0	0	510	508	0	0	
5	0	0	0	0	509	509	0	0	
6	0	0	0	0	509	509	0	0	
7	0	0	0	0	512	509	0	0	
8	0	0	0	0	510	508	0	0	
9	0	0	0	0	513	511	0	0	
10	0	0	0	0	511	507	0	0	
11	0	0	0	0	513	511	0	0	
12	0	0	0	0	511	508	0	0	
13	0	0	0	0	511	509	1	0	
14	0	0	0	0	511	508	0	0	
15	0	0	0	0	513	509	0	0	
0	0	0	0	0	511	507	0	0	
1	0	0	0	0	512	505	0	0	
2	0	0	0	0	511	508	0	0	
3	0	0	0	0	511	508	0	0	
4	0	0	0	0	510	507	0	0	
5	0	0	0	0	510	506	0	0	
6	0	0	0	0	513	508	0	0	
7	0	0	0	0	512	509	0	0	
8	0	0	0	0	511	510	0	0	
9	0	0	0	0	510	508	0	0	
10	0	0	0	0	512	507	0	0	
11	0	0	0	0	513	506	0	0	
12	0	0	0	0	516	508	0	0	
13	0	0	0	0	516	509	0	0	
14	0	0	0	0	512	508	0	0	
15	0	0	0	0	510	510	0	0	
0	0	0	0	0	507	510	0	0	
1	0	0	0	0	489	507	0	0	
2	0	0	0	0	504	511	0	0	
3	0	0	0	0	511	510	0	0	
4	0	0	0	0	510	507	0	0	
5	0	0	0	0	515	507	0	0	
6	0	0	0	0	512	510	0	0	
7	0	0	0	0	514	509	0	0	
8	0	0	0	0	512	507	0	0	
9	0	0	0	0	513	508	0	0	
10	0	0	0	0	512	508	0	0	
11	0	0	0	0	515	508	0	0	
12	0	0	0	0	511	509	0	0	
13	0	0	0	0	511	507	0	0	
14	0	0	0	0	510	507	0	0	
15	0	0	0	0	511	509	0	0	
0	0	0	0	0	511	508	0	0	
1	0	0	0	0	511	506	0	0	
2	0	0	0	0	512	507	0	0	
3	0	0	0	0	511	507	0	0	
4	0	0	0	0	511	508	0	0	
5	0	0	0	0	511	509	0	0	
6	0	0	0	0	511	507	0	0	
7	0	0	0	0	516	508	0	0	
8	0	0	0	0	516	510	0	0	
9	0	0	0	0	514	506	0	0	
10	0	0	0	0	514	510	0	0	
11	0	0	0	0	511	509	0	0	
12	0	0	0	0	512	509	0	0	
13	0	0	0	0	514	510	0	0	
14	0	0	0	0	512	509	0	0	
15	0	0	0	0	511	509	0	0	
0	0	0	0	0	510	508	0	0	
1	0	0	0	0	509	507	0	0	
2	0	0	0	0	508	507	0	0	
3	0	0	0	0	510	510	0	0	
4	0	0	0	0	510	507	0	0	
5	0	0	0	0	511	509	0	0	
6	0	0	0	0	513	509	0	0	
7	0	0	0	0	512	507	0	0	
8	0	0	0	0	511	508	0	0	
9	0	0	0	0	510	508	0	0	
10	0	0	0	0	509	510	0	0	
11	0	0	0	0	511	505	0	0	
12	0	0	0	0	513	508	0	0	
13	0	0	0	0	512	506	0	0	
14	0	0	0	0	514	510	0	0	
15	0	0	0	0	509	509	0	0	
0	0	0	0	0	512	508	0	0	
1	0	0	0	0	511	507	0	0	
2	0	0	0	0	510	508	0	0	
3	0	0	0	0	510	509	0	0	
4	0	0	0	0	511	509	0	0	
5	0	0	0	0	513	507	0	0	
6	0	0	0	0	510	508	0	0	
7	0	0	0	0	509	507	0	0	
8	0	0	0	0	512	508	0	0	
9	0	0	0	0	508	507	0	0	
10	0	0	0	0	509	507	0	0	
11	0	0	0	0	510	507	0	0	
12	0	0	0	0	510	508	0	0	
13	0	0	0	0	511	508	0	0	
14	0	0	0	0	510	507	0	0	
15	0	0	0	0	511	507	0	0	
0	0	0	0	0	511	509	0	0	
1	0	0	0	0	509	508	0	0	
2	0	0	0	0	511	507	0	0	
3	0	0	0	0	510	506	0	0	
4	0	0	0	0	512	506	0	0	
5	0	0	0	0	510	506	0	0	
6	0	0	0	0	511	510	0	0	
7	0	0	0	0	512	510	0	0	
8	0	0	0	0	511	508	0	0	
9	0	0	0	0	511	507	0	0	
10	0	0	0	0	510	509	0	0	
11	0	0	0	0	512	509	0	0	
12	0	0	0	0	511	509	0	0	
13	0	0	0	0	513	509	0	0	
14	0	0	0	0	511	509	0	0	
15	0	0	0	0	511	509	0	0	
0	0	0	0	0	511	508	0	0	
1	0	0	0	0	514	511	0	0	
2	0	0	0	0	511	508	0	0	
3	0	0	0	0	510	511	0	0	
4	0	0	0	0	512	507	0	0	
5	0	0	0	0	511	507	0	0	
6	0	0	0	0	513	508	0	0	
7	0	0	0	0	511	509	0	0	
8	0	0	0	0	510	507	0	0	
9	0	0	0	0	510	507	0	0	
10	0	0	0	0	513	509	0	0	
11	0	0	0	0	511	507	0	0	
12	0	0	0	0	511	509	0	0	
13	0	0	0	0	511	508	0	0	
14	0	0	0	0	511	506	0	0	
15	0	0	0	0	512	507	0	0	
0	0	0	0	0	511	508	0	0	
1	0	0	0	0	511	510	0	0	
2	0	0	0	0	511	508	0	0	
3	0	0	0	0	511	508	0	0	
4	0	0	0	0	511	510	0	0	
5	0	0	0	0	513	511	0	0	
6	0	0	0	0	513	508	0	0	
7	0	0	0	0	511	507	0	0	
8	0	0	0	0	512	508	0	0	
9	0	0	0	0	511	508	0	0	
10	0	0	0	0	511	509	0	0	
11	0	0	0	0	509	508	0	0	
12	0	0	0	0	510	507	0	0	
13	0	0	0	0	511	507	0	0	
14	0	0	0	0	511	508	0	0	
15	0	0	0	0	512	511	0	0	
0	0	0	0	0	511	508	0	0	
1	0	0	0	0	510	508	0	0	
2	0	0	0	0	508	507	0	0	
3	0	0	0	0	509	510	0	0	
4	0	0	0	0	511	509	1	0	
5	0	0	0	0	508	510	0	0	
6	0	0	0	0	512	508	0	0	
7	0	0	0	0	512	508	0	0	
8	0	0	0	0	513	508	0	0	
9	0	0	0	0	512	508	0	0	
10	0	0	0	0	512	508	0	0	
11	0	0	0	0	513	507	0	0	
12	0	0	0	0	511	510	0	0	
13	0	0	0	0	511	509	0	0	
14	0	0	0	0	512	508	0	0	
15	0	0	0	0	514	508	0	0	
0	0	0	0	0	514	507	0	0	
1	0	0	0	0	517	507	0	0	
2	0	0	0	0	519	508	0	0	
3	0	0	0	0	516	509	0	0	
4	0	0	0	0	508	509	0	0	
5	0	0	0	0	501	508	0	0	
6	0	0	0	0	486	507	0	0	
7	0	0	0	0	490	508	0	0	
8	0	0	0	0	508	512	0	0	
9	0	0	0	0	517	507	0	0	
10	0	0	0	0	521	510	0	0	
11	0	0	0	0	524	508	0	0	
12	0	0	0	0	517	510	0	0	
13	0	0	0	0	513	510	0	0	
14	0	0	0	0	511	507	0	0	
15	0	0	0	0	511	507	0	0	
0	0	0	0	0	512	508	0	0	
1	0	0	0	0	512	507	0	0	
2	0	0	0	0	512	509	0	0	
3	0	0	0	0	511	509	0	0	
4	0	0	0	0	511	508	0	0	
5	0	0	0	0	512	509	0	0	
6	0	0	0	0	510	508	0	0	
7	0	0	0	0	511	509	0	0	
8	0	0	0	0	509	506	0	0	
9	0	0	0	0	507	507	0	0	
10	0	0	0	0	510	504	0	0	
11	0	0	0	0	512	508	0	0	
12	0	0	0	0	513	511	0	0	
13	0	0	0	0	511	508	0	0	
14	0	0	0	0	510	509	0	0	
15	0	0	0	0	508	509	0	0	
0	0	0	0	0	513	508	0	0	
1	0	0	0	0	516	508	0	0	
2	0	0	0	0	513	508	0	0	
3	0	0	0	0	516	510	0	0	
4	0	0	0	0	519	507	0	0	
5	0	0	0	0	519	510	0	0	
6	0	0	0	0	512	508	0	0	
7	0	0	0	0	514	508	0	0	
8	0	0	0	0	508	508	0	0	
9	0	0	0	0	499	509	0	0	
10	0	0	0	0	492	510	0	0	
11	0	0	0	0	507	509	0	0	
12	0	0	0	0	513	509	0	0	
13	0	0	0	0	511	508	0	0	
14	0	0	0	0	511	508	0	0	
15	0	0	0	0	512	507	0	0	
0	0	0	0	0	513	507	0	0	
1	0	0	0	0	510	507	0	0	
2	0	0	0	0	511	507	0	0	
3	0	0	0	0	510	505	0	0	
4	0	0	0	0	512	507	0	0	
5	0	0	0	0	515	509	0	0	
6	0	0	0	0	512	510	0	0	
7	0	0	0	0	515	510	0	0	
8	0	0	0	0	513	509	0	0	
9	0	0	0	0	513	509	0	0	
10	0	0	0	0	511	506	0	0	
11	0	0	0	0	511	508	0	0	
12	0	0	0	0	511	506	0	0	
13	0	0	0	0	513	506	0	0	
14	0	0	0	0	510	510	0	0	
15	0	0	0	0	510	507	1	0	
0	0	0	0	0	512	509	0	0	
1	0	0	0	0	509	507	0	0	
2	0	0	0	0	508	507	0	0	
3	0	0	0	0	509	509	0	0	
4	0	0	0	0	511	509	0	0	
5	0	0	0	0	511	505	0	0	
6	0	0	0	0	517	505	0	0	
7	0	0	0	0	514	506	0	0	
8	0	0	0	0	511	510	0	0	
9	0	0	0	0	511	508	0	0	
10	0	0	0	0	512	507	0	0	
11	0	0	0	0	511	510	0	0	
12	0	0	0	0	511	508	0	0	
13	0	0	0	0	512	509	0	0	
14	0	0	0	0	509	508	0	0	
15	0	0	0	0	506	507	0	0	
0	0	0	0	0	504	507	0	0	
1	0	0	0	0	509	506	0	0	
2	0	0	0	0	518	507	0	0	
3	0	0	0	0	515	510	0	0	
4	0	0	0	0	512	507	0	0	
5	0	0	0	0	509	507	0	0	
6	0	0	0	0	502	508	0	0	
7	0	0	0	0	510	509	0	0	
8	0	0	0	0	512	510	0	0	
9	0	0	0	0	515	510	0	0	
10	0	0	0	0	510	508	0	0	
11	0	0	0	0	511	505	0	0	
12	0	0	0	0	515	506	0	0	
13	0	0	0	0	516	511	0	0	
14	0	0	0	0	514	508	0	0	
15	0	0	0	0	515	508	0	0	
0	0	0	0	0	512	508	0	0	
1	0	0	0	0	507	509	0	0	
2	0	0	0	0	505	511	0	0	
3	0	0	0	0	497	509	0	0	
4	0	0	0	0	508	509	0	0	
5	0	0	0	0	512	509	0	0	
6	0	0	0	0	514	508	0	0	
7	0	0	0	0	513	507	1	0	
8	0	0	0	0	511	508	0	0	
9	0	0	0	0	512	505	0	0	
10	0	0	0	0	512	507	0	0	
11	0	0	0	0	512	506	0	0	
12	0	0	0	0	510	509	0	0	
13	0	0	0	0	513	506	0	0	
14	0	0	0	0	513	509	0	0	
15	0	0	0	0	512	508	0	0	
0	0	0	0	0	512	507	0	0	
1	0	0	0	0	513	507	0	0	
2	0	0	0	0	511	508	0	0	
3	0	0	0	0	511	507	0	0	
4	0	0	0	0	510	508	0	0	
5	0	0	0	0	510	509	0	0	
6	0	0	0	0	512	507	0	0	
7	0	0	0	0	510	510	0	0	
8	0	0	0	0	509	508	0	0	
9	0	0	0	0	511	509	0	0	
10	0	0	0	0	513	508	0	0	
11	0	0	0	0	510	507	0	0	
12	0	0	0	0	513	510	0	0	
13	0	0	0	0	510	508	0	0	
14	0	0	0	0	511	511	0	0	
15	0	0	0	0	511	507	0	0	
0	0	0	0	0	514	506	0	0	
1	0	0	0	0	513	506	0	0	
2	0	0	0	0	511	507	0	0	
3	0	0	0	0	511	508	0	0	
4	0	0	0	0	511	511	0	0	
5	0	0	0	0	511	508	0	0	
6	0	0	0	0	512	505	0	0	
7	0	0	0	0	510	507	0	0	
8	0	0	0	0	510	507	0	0	
9	0	0	0	0	510	508	0	0	
10	0	0	0	0	511	509	0	0	
11	0	0	0	0	508	509	0	0	
12	0	0	0	0	504	507	0	0	
13	0	0	0	0	508	508	0	0	
14	0	0	0	0	510	508	0	0	
15	0	0	0	0	511	507	0	0	
0	0	0	0	0	509	508	0	0	
1	0	0	0	0	510	507	0	0	
2	0	0	0	0	509	506	0	0	
3	0	0	0	0	511	508	0	0	
4	0	0	0	0	514	509	0	0	
5	0	0	0	0	515	509	0	0	
6	0	0	0	0	512	508	0	0	
7	0	0	0	0	511	508	0	0	
8	0	0	0	0	511	505	0	0	
9	0	0	0	0	512	511	0	0	
10	0	0	0	0	511	508	0	0	
11	0	0	0	0	510	508	0	0	
12	0	0	0	0	513	508	0	0	
13	0	0	0	0	511	509	0	0	
14	0	0	0	0	512	512	0	0	
15	0	0	0	0	513	508	0	0	
0	0	0	0	0	512	512	0	0	
1	0	0	0	0	511	510	0	0	
2	0	0	0	0	511	507	0	0	
3	0	0	0	0	512	508	0	0	
4	0	0	0	0	511	507	0	0	
5	0	0	0	0	511	508	0	0	
6	0	0	0	0	511	509	0	0	
7	0	0	0	0	510	507	0	0	
8	0	0	0	0	510	509	1	0	
9	0	0	0	0	512	508	0	0	
10	0	0	0	0	512	508	0	0	
11	0	0	0	0	509	505	0	0	
12	0	0	0	0	512	508	0	0	
13	0	0	0	0	513	510	0	0	
14	0	0	0	0	513	509	0	0	
15	0	0	0	0	510	507	0	0	
0	0	0	0	0	511	507	0	0	
1	0	0	0	0	511	509	0	0	
2	0	0	0	0	512	508	0	0	
3	0	0	0	0	509	511	0	0	
4	0	0	0	0	509	506	0	0	
5	0	0	0	0	509	506	0	0	
6	0	0	0	0	510	508	0	0	
7	0	0	0	0	513	509	0	0	
8	0	0	0	0	513	508	0	0	
9	0	0	0	0	512	508	0	0	
10	0	0	0	0	509	508	0	0	
11	0	0	0	0	512	507	0	0	
12	0	0	0	0	514	511	0	0	
13	0	0	0	0	513	507	0	0	
14	0	0	0	0	515	509	0	0	
15	0	0	0	0	516	506	0	0	
0	0	0	0	0	516	507	0	0	
1	0	0	0	0	512	508	0	0	
2	0	0	0	0	507	510	0	0	
3	0	0	0	0	492	509	0	0	
4	0	0	0	0	506	507	0	0	
5	0	0	0	0	510	508	0	0	
6	0	0	0	0	512	508	0	0	
7	0	0	0	0	511	508	0	0	
8	0	0	0	0	512	505	0	0	
9	0	0	0	0	512	509	0	0	
10	0	0	0	0	512	508	0	0	
11	0	0	0	0	512	509	0	0	
12	0	0	0	0	511	507	0	0	
13	0	0	0	0	509	505	0	0	
14	0	0	0	0	510	510	0	0	
15	0	0	0	0	512	510	0	0	
0	0	0	0	0	510	510	0	0	
1	0	0	0	0	511	508	0	0	
2	0	0	0	0	513	508	0	0	
3	0	0	0	0	512	506	0	0	
4	0	0	0	0	513	508	0	0	
5	0	0	0	0	513	508	0	0	
6	0	0	0	0	513	507	0	0	
7	0	0	0	0	510	507	0	0	
8	0	0	0	0	513	509	0	0	
9	0	0	0	0	512	509	0	0	
10	0	0	0	0	511	508	0	0	
11	0	0	0	0	511	508	0	0	
12	0	0	0	0	511	508	0	0	
13	0	0	0	0	511	507	0	0	
14	0	0	0	0	513	509	0	0	
15	0	0	0	0	513	508	1	0	
0	0	0	0	0	511	508	0	0	
1	0	0	0	0	512	511	0	0	
2	0	0	0	0	512	508	0	0	
3	0	0	0	0	509	510	0	0	
4	0	0	0	0	510	508	1	0	
5	0	0	0	0	511	508	0	0	
6	0	0	0	0	508	508	0	0	
7	0	0	0	0	507	505	0	0	
8	0	0	0	0	509	507	0	0	
9	0	0	0	0	515	509	0	0	
10	0	0	0	0	517	509	0	0	
11	0	0	0	0	511	507	0	0	
12	0	0	0	0	512	508	0	0	
13	0	0	0	0	513	506	0	0	
14	0	0	0	0	514	510	0	0	
15	0	0	0	0	514	509	0	0	
0	0	0	0	0	509	508	0	0	
1	0	0	0	0	512	507	0	0	
2	0	0	0	0	510	507	0	0	
3	0	0	0	0	510	509	0	0	
4	0	0	0	0	511	508	0	0	
5	0	0	0	0	508	506	0	0	
6	0	0	0	0	509	507	0	0	
7	0	0	0	0	511	507	0	0	
8	0	0	0	0	509	507	0	0	
9	0	0	0	0	509	508	0	0	
10	0	0	0	0	511	509	0	0	
11	0	0	0	0	511	509	0	0	
12	0	0	0	0	508	508	0	0	
13	0	0	0	0	510	509	0	0	
14	0	0	0	0	511	508	0	0	
15	0	0	0	0	511	507	0	0	
0	0	0	0	0	511	506	0	0	
1	0	0	0	0	510	510	0	0	
2	0	0	0	0	514	511	0	0	
3	0	0	0	0	513	507	0	0	
4	0	0	0	0	511	508	0	0	
5	0	0	0	0	509	505	0	0	
6	0	0	0	0	511	505	0	0	
7	0	0	0	0	513	510	0	0	
8	0	0	0	0	512	506	0	0	
9	0	0	0	0	510	508	0	0	
10	0	0	0	0	513	509	0	0	
11	0	0	0	0	512	510	0	0	
12	0	0	0	0	511	506	1	0	
13	0	0	0	0	512	509	0	0	
14	0	0	0	0	511	510	0	0	
15	0	0	0	0	510	506	0	0	
0	0	0	0	0	513	506	0	0	
1	0	0	0	0	512	510	0	0	
2	0	0	0	0	512	508	0	0	
3	0	0	0	0	512	506	0	0	
4	0	0	0	0	512	507	0	0	
5	0	0	0	0	510	509	0	0	
6	0	0	0	0	509	508	0	0	
7	0	0	0	0	511	508	0	0	
8	0	0	0	0	508	507	0	0	
9	0	0	0	0	511	509	0	0	
10	0	0	0	0	512	509	0	0	
11	0	0	0	0	511	508	0	0	
12	0	0	0	0	511	506	0	0	
13	0	0	0	0	511	507	0	0	
14	0	0	0	0	510	509	0	0	
15	0	0	0	0	512	508	0	0	
0	0	0	0	0	512	507	0	0	
1	0	0	0	0	511	509	0	0	
2	0	0	0	0	510	508	0	0	
3	0	0	0	0	513	507	0	0	
4	0	0	0	0	512	510	0	0	
5	0	0	0	0	511	505	1	0	
6	0	0	0	0	511	507	0	0	
7	0	0	0	0	510	508	0	0	
8	0	0	0	0	509	508	0	0	
9	0	0	0	0	512	509	0	0	
10	0	0	0	0	511	508	0	0	
11	0	0	0	0	510	508	0	0	
12	0	0	0	0	510	509	0	0	
13	0	0	0	0	515	507	0	0	
14	0	0	0	0	518	509	0	0	
15	0	0	0	0	515	508	0	0	
0	0	0	0	0	518	508	0	0	
1	0	0	0	0	515	509	0	0	
2	0	0	0	0	509	507	0	0	
3	0	0	0	0	507	509	0	0	
4	0	0	0	0	489	510	0	0	
5	0	0	0	0	502	510	0	0	
6	0	0	0	0	509	505	0	0	
7	0	0	0	0	512	508	0	0	
8	0	0	0	0	512	508	0	0	
9	0	0	0	0	511	505	0	0	
10	0	0	0	0	514	507	0	0	
11	0	0	0	0	512	506	0	0	
12	0	0	0	0	513	507	0	0	
13	0	0	0	0	512	507	0	0	
14	0	0	0	0	511	507	1	0	
15	0	0	0	0	512	510	0	0	
0	0	0	0	0	509	507	0	0	
1	0	0	0	0	511	507	0	0	
2	0	0	0	0	513	508	0	0	
3	0	0	0	0	513	510	0	0	
4	0	0	0	0	515	509	0	0	
5	0	0	0	0	511	509	0	0	
6	0	0	0	0	509	508	0	0	
7	0	0	0	0	512	509	0	0	
8	0	0	0	0	512	508	0	0	
9	0	0	0	0	511	506	0	0	
10	0	0	0	0	507	506	0	0	
11	0	0	0	0	509	507	0	0	
12	0	0	0	0	508	511	0	0	
13	0	0	0	0	511	508	0	0	
14	0	0	0	0	512	509	0	0	
15	0	0	0	0	510	507	0	0	
0	0	0	0	0	512	509	0	0	
1	0	0	0	0	515	511	0	0	
2	0	0	0	0	513	510	1	0	
3	0	0	0	0	513	510	0	0	
4	0	0	0	0	508	507	0	0	
5	0	0	0	0	510	509	0	0	
6	0	0	0	0	510	509	0	0	
7	0	0	0	0	511	509	0	0	
8	0	0	0	0	512	505	0	0	
9	0	0	0	0	510	506	0	0	
10	0	0	0	0	514	508	0	0	
11	0	0	0	0	513	510	0	0	
12	0	0	0	0	512	509	0	0	
13	0	0	0	0	512	507	0	0	
14	0	0	0	0	508	505	0	0	
15	0	0	0	0	506	508	0	0	
0	0	0	0	0	511	511	0	0	
1	0	0	0	0	508	505	0	0	
2	0	0	0	0	511	508	0	0	
3	0	0	0	0	516	509	0	0	
4	0	0	0	0	516	508	0	0	
5	0	0	0	0	518	506	0	0	
6	0	0	0	0	512	510	0	0	
7	0	0	0	0	509	509	0	0	
8	0	0	0	0	508	507	0	0	
9	0	0	0	0	508	507	0	0	
10	0	0	0	0	511	507	0	0	
11	0	0	0	0	513	512	0	0	
12	0	0	0	0	514	508	0	0	
13	0	0	0	0	512	508	0	0	
14	0	0	0	0	511	509	0	0	
15	0	0	0	0	518	509	0	0	
0	0	0	0	0	516	508	1	0	
1	0	0	0	0	519	507	0	0	
2	0	0	0	0	518	506	0	0	
3	0	0	0	0	517	508	0	0	
4	0	0	0	0	511	508	0	0	
5	0	0	0	0	495	509	0	0	
6	0	0	0	0	472	507	0	0	
7	0	0	0	0	498	507	0	0	
8	0	0	0	0	511	508	0	0	
9	0	0	0	0	514	508	0	0	
10	0	0	0	0	511	506	0	0	
11	0	0	0	0	511	510	0	0	
12	0	0	0	0	511	508	0	0	
13	0	0	0	0	513	507	0	0	
14	0	0	0	0	516	507	0	0	
15	0	0	0	0	514	509	0	0	
0	0	0	0	0	514	505	0	0	
1	0	0	0	0	513	507	0	0	
2	0	0	0	0	511	507	0	0	
3	0	0	0	0	511	507	0	0	
4	0	0	0	0	511	511	0	0	
5	0	0	0	0	515	511	0	0	
6	0	0	0	0	513	510	0	0	
7	0	0	0	0	511	508	0	0	
8	0	0	0	0	515	508	0	0	
9	0	0	0	0	515	508	1	0	
10	0	0	0	0	513	508	0	0	
11	0	0	0	0	512	508	0	0	
12	0	0	0	0	512	508	0	0	
13	0	0	0	0	512	507	0	0	
14	0	0	0	0	510	508	0	0	
15	0	0	0	0	510	509	0	0	
0	0	0	0	0	511	509	0	0	
1	0	0	0	0	510	507	0	0	
2	0	0	0	0	510	510	0	0	
3	0	0	0	0	508	508	0	0	
4	0	0	0	0	508	508	0	0	
5	0	0	0	0	514	508	0	0	
6	0	0	0	0	516	506	0	0	
7	0	0	0	0	520	511	0	0	
8	0	0	0	0	515	509	0	0	
9	0	0	0	0	515	508	0	0	
10	0	0	0	0	511	508	0	0	
11	0	0	0	0	499	508	0	0	
12	0	0	0	0	496	508	0	0	
13	0	0	0	0	508	509	0	0	
14	0	0	0	0	510	507	0	0	
15	0	0	0	0	515	510	0	0	
0	0	0	0	0	516	508	0	0	
1	0	0	0	0	510	509	0	0	
2	0	0	0	0	507	508	1	0	
3	0	0	0	0	511	508	0	0	
4	0	0	0	0	514	509	0	0	
5	0	0	0	0	514	508	0	0	
6	0	0	0	0	519	507	0	0	
7	0	0	0	0	519	510	0	0	
8	0	0	0	0	508	510	0	0	
9	0	0	0	0	509	507	0	0	
10	0	0	0	0	511	507	0	0	
11	0	0	0	0	515	507	0	0	
12	0	0	0	0	512	510	0	0	
13	0	0	0	0	512	511	0	0	
14	0	0	0	0	510	506	0	0	
15	0	0	0	0	508	506	0	0	
0	0	0	0	0	507	509	0	0	
1	0	0	0	0	503	508	0	0	
2	0	0	0	0	502	509	0	0	
3	0	0	0	0	507	506	0	0	
4	0	0	0	0	512	507	0	0	
5	0	0	0	0	517	508	0	0	
6	0	0	0	0	524	509	0	0	
7	0	0	0	0	526	510	0	0	
8	0	0	0	0	525	507	0	0	
9	0	0	0	0	516	507	0	0	
10	0	0	0	0	503	508	0	0	
11	0	0	0	0	502	510	0	0	
12	0	0	0	0	510	507	0	0	
13	0	0	0	0	509	505	0	0	
14	0	0	0	0	510	508	0	0	
15	0	0	0	0	511	508	0	0	
0	0	0	0	0	505	509	0	0	
1	0	0	0	0	493	510	0	0	
2	0	0	0	0	503	507	0	0	
3	0	0	0	0	498	508	0	0	
4	0	0	0	0	508	507	0	0	
5	0	0	0	0	513	510	0	0	
6	0	0	0	0	512	508	0	0	
7	0	0	0	0	515	509	0	0	
8	0	0	0	0	515	510	0	0	
9	0	0	0	0	516	508	0	0	
10	0	0	0	0	515	506	0	0	
11	0	0	0	0	518	510	0	0	
12	0	0	0	0	514	507	0	0	
13	0	0	0	0	515	509	0	0	
14	0	0	0	0	513	507	0	0	
15	0	0	0	0	511	505	0	0	
0	0	0	0	0	511	509	0	0	
1	0	0	0	0	504	508	0	0	
2	0	0	0	0	498	509	0	0	
3	0	0	0	0	499	509	0	0	
4	0	0	0	0	503	506	1	0	
5	0	0	0	0	504	507	0	0	
6	0	0	0	0	510	509	0	0	
7	0	0	0	0	512	508	0	0	
8	0	0	0	0	526	511	0	0	
9	0	0	0	0	540	508	0	0	
10	0	0	0	0	543	512	0	0	
11	0	0	0	0	537	509	0	0	
12	0	0	0	0	524	510	0	0	
13	0	0	0	0	504	508	0	0	
14	0	0	0	0	504	507	0	0	
15	0	0	0	0	499	508	0	0	
0	0	0	0	0	495	507	0	0	
1	0	0	0	0	503	507	0	0	
2	0	0	0	0	511	508	0	0	
3	0	0	0	0	512	508	0	0	
4	0	0	0	0	512	509	0	0	
5	0	0	0	0	512	508	0	0	
6	0	0	0	0	511	507	0	0	
7	0	0	0	0	508	506	0	0	
8	0	0	0	0	504	508	0	0	
9	0	0	0	0	493	509	0	0	
10	0	0	0	0	506	510	0	0	
11	0	0	0	0	511	510	0	0	
12	0	0	0	0	511	508	0	0	
13	0	0	0	0	513	511	0	0	
14	0	0	0	0	511	508	0	0	
15	0	0	0	0	512	507	0	0	
0	0	0	0	0	514	508	0	0	
1	0	0	0	0	511	509	0	0	
2	0	0	0	0	512	509	0	0	
3	0	0	0	0	511	508	0	0	
4	0	0	0	0	509	505	0	0	
5	0	0	0	0	511	507	0	0	
6	0	0	0	0	512	509	0	0	
7	0	0	0	0	512	510	0	0	
8	0	0	0	0	512	511	0	0	
9	0	0	0	0	512	508	0	0	
10	0	0	0	0	513	508	0	0	
11	0	0	0	0	511	506	0	0	
12	0	0	0	0	508	506	0	0	
13	0	0	0	0	508	509	0	0	
14	0	0	0	0	508	508	0	0	
15	0	0	0	0	511	506	0	0	
0	0	0	0	0	512	508	0	0	
1	0	0	0	0	514	510	0	0	
2	0	0	0	0	511	508	0	0	
3	0	0	0	0	519	508	0	0	
4	0	0	0	0	515	508	0	0	
5	0	0	0	0	511	507	0	0	
6	0	0	0	0	511	508	0	0	
7	0	0	0	0	512	508	0	0	
8	0	0	0	0	511	507	0	0	
9	0	0	0	0	512	510	0	0	
10	0	0	0	0	510	510	0	0	
11	0	0	0	0	511	508	0	0	
12	0	0	0	0	511	510	0	0	
13	0	0	0	0	508	508	0	0	
14	0	0	0	0	509	505	0	0	
15	0	0	0	0	509	508	0	0	
0	0	0	0	0	510	508	0	0	
1	0	0	0	0	513	509	0	0	
2	0	0	0	0	510	508	0	0	
3	0	0	0	0	510	507	0	0	
4	0	0	0	0	511	507	0	0	
5	0	0	0	0	511	508	0	0	
6	0	0	0	0	512	506	0	0	
7	0	0	0	0	509	508	0	0	
8	0	0	0	0	512	509	0	0	
9	0	0	0	0	512	509	0	0	
10	0	0	0	0	510	509	0	0	
11	0	0	0	0	510	506	0	0	
12	0	0	0	0	510	505	0	0	
13	0	0	0	0	510	510	0	0	
14	0	0	0	0	509	510	0	0	
15	0	0	0	0	511	508	0	0	
0	0	0	0	0	512	509	0	0	
1	0	0	0	0	511	507	0	0	
2	0	0	0	0	511	510	0	0	
3	0	0	0	0	512	509	0	0	
4	0	0	0	0	513	510	0	0	
5	0	0	0	0	512	508	0	0	
6	0	0	0	0	511	507	0	0	
7	0	0	0	0	508	508	0	0	
8	0	0	0	0	511	508	0	0	
9	0	0	0	0	509	507	0	0	
10	0	0	0	0	510	508	0	0	
11	0	0	0	0	512	506	0	0	
12	0	0	0	0	515	507	0	0	
13	0	0	0	0	518	508	0	0	
14	0	0	0	0	517	511	0	0	
15	0	0	0	0	516	508	0	0	
0	0	0	0	0	513	509	0	0	
1	0	0	0	0	507	508	0	0	
2	0	0	0	0	499	508	0	0	
3	0	0	0	0	498	509	0	0	
4	0	0	0	0	503	508	0	0	
5	0	0	0	0	510	510	0	0	
6	0	0	0	0	512	506	0	0	
7	0	0	0	0	511	507	0	0	
8	0	0	0	0	515	510	0	0	
9	0	0	0	0	512	509	0	0	
10	0	0	0	0	511	507	0	0	
11	0	0	0	0	515	508	0	0	
12	0	0	0	0	513	508	0	0	
13	0	0	0	0	514	508	0	0	
14	0	0	0	0	512	508	0	0	
15	0	0	0	0	511	510	0	0	
0	0	0	0	0	508	507	0	0	
1	0	0	0	0	508	508	0	0	
2	0	0	0	0	510	511	0	0	
3	0	0	0	0	510	508	0	0	
4	0	0	0	0	513	508	0	0	
5	0	0	0	0	519	508	0	0	
6	0	0	0	0	521	507	0	0	
7	0	0	0	0	522	511	0	0	
8	0	0	0	0	514	509	0	0	
9	0	0	0	0	511	509	0	0	
10	0	0	0	0	510	509	0	0	
11	0	0	0	0	510	508	0	0	
12	0	0	0	0	511	508	1	0	
13	0	0	0	0	511	507	0	0	
14	0	0	0	0	508	508	0	0	
15	0	0	0	0	511	510	0	0	
0	0	0	0	0	509	507	0	0	
1	0	0	0	0	511	508	0	0	
2	0	0	0	0	511	509	0	0	
3	0	0	0	0	510	507	0	0	
4	0	0	0	0	510	506	0	0	
5	0	0	0	0	511	507	0	0	
6	0	0	0	0	510	509	0	0	
7	0	0	0	0	510	508	0	0	
8	0	0	0	0	507	507	0	0	
9	0	0	0	0	511	507	0	0	
10	0	0	0	0	512	506	0	0	
11	0	0	0	0	511	506	0	0	
12	0	0	0	0	512	508	0	0	
13	0	0	0	0	508	507	0	0	
14	0	0	0	0	511	510	0	0	
15	0	0	0	0	512	509	0	0	
0	0	0	0	0	509	508	0	0	
1	0	0	0	0	512	507	0	0	
2	0	0	0	0	508	507	0	0	
3	0	0	0	0	510	511	0	0	
4	0	0	0	0	515	513	0	0	
5	0	0	0	0	515	508	1	0	
6	0	0	0	0	514	510	0	0	
7	0	0	0	0	508	507	0	0	
8	0	0	0	0	509	505	0	0	
9	0	0	0	0	511	505	0	0	
10	0	0	0	0	510	508	0	0	
11	0	0	0	0	509	507	0	0	
12	0	0	0	0	510	507	0	0	
13	0	0	0	0	512	508	0	0	
14	0	0	0	0	516	509	0	0	
15	0	0	0	0	514	508	0	0	
0	0	0	0	0	509	510	0	0	
1	0	0	0	0	508	508	0	0	
2	0	0	0	0	508	506	0	0	
3	0	0	0	0	511	509	0	0	
4	0	0	0	0	509	507	0	0	
5	0	0	0	0	509	507	0	0	
6	0	0	0	0	507	509	0	0	
7	0	0	0	0	512	509	0	0	
8	0	0	0	0	513	510	0	0	
9	0	0	0	0	513	507	1	0	
10	0	0	0	0	511	505	0	0	
11	0	0	0	0	513	508	0	0	
12	0	0	0	0	511	507	0	0	
13	0	0	0	0	515	508	0	0	
14	0	0	0	0	516	511	0	0	
15	0	0	0	0	513	508	0	0	
0	0	0	0	0	511	507	0	0	
1	0	0	0	0	516	506	0	0	
2	0	0	0	0	510	508	0	0	
3	0	0	0	0	505	508	0	0	
4	0	0	0	0	491	509	0	0	
5	0	0	0	0	500	508	0	0	
6	0	0	0	0	511	509	0	0	
7	0	0	0	0	513	510	0	0	
8	0	0	0	0	512	508	1	0	
9	0	0	0	0	512	510	0	0	
10	0	0	0	0	514	509	0	0	
11	0	0	0	0	513	505	0	0	
12	0	0	0	0	511	508	0	0	
13	0	0	0	0	512	508	0	0	
14	0	0	0	0	512	507	0	0	
15	0	0	0	0	512	507	0	0	
0	0	0	0	0	512	507	0	0	
1	0	0	0	0	511	508	0	0	
2	0	0	0	0	514	509	0	0	
3	0	0	0	0	511	507	0	0	
4	0	0	0	0	510	508	0	0	
5	0	0	0	0	510	506	0	0	
6	0	0	0	0	511	508	0	0	
7	0	0	0	0	511	507	0	0	
8	0	0	0	0	511	508	0	0	
9	0	0	0	0	512	510	0	0	
10	0	0	0	0	514	508	0	0	
11	0	0	0	0	513	509	0	0	
12	0	0	0	0	513	508	0	0	
13	0	0	0	0	509	507	0	0	
14	0	0	0	0	507	509	0	0	
15	0	0	0	0	511	507	0	0	
0	0	0	0	0	513	508	0	0	
1	0	0	0	0	512	507	1	0	
2	0	0	0	0	515	510	0	0	
3	0	0	0	0	516	508	0	0	
4	0	0	0	0	523	510	0	0	
5	0	0	0	0	511	508	0	0	
6	0	0	0	0	498	508	0	0	
7	0	0	0	0	503	507	0	0	
8	0	0	0	0	508	504	0	0	
9	0	0	0	0	507	505	0	0	
10	0	0	0	0	510	507	0	0	
11	0	0	0	0	510	508	0	0	
12	0	0	0	0	509	508	0	0	
13	0	0	0	0	514	508	0	0	
14	0	0	0	0	515	508	0	0	
15	0	0	0	0	510	508	0	0	
0	0	0	0	0	508	508	0	0	
1	0	0	0	0	509	509	0	0	
2	0	0	0	0	508	507	0	0	
3	0	0	0	0	508	510	0	0	
4	0	0	0	0	511	510	0	0	
5	0	0	0	0	515	509	0	0	
6	0	0	0	0	515	508	0	0	
7	0	0	0	0	514	508	0	0	
8	0	0	0	0	513	508	0	0	
9	0	0	0	0	509	508	0	0	
10	0	0	0	0	511	506	1	0	
11	0	0	0	0	516	510	0	0	
12	0	0	0	0	514	508	0	0	
13	0	0	0	0	515	510	0	0	
14	0	0	0	0	516	509	0	0	
15	0	0	0	0	515	509	0	0	
0	0	0	0	0	507	507	0	0	
1	0	0	0	0	496	509	0	0	
2	0	0	0	0	493	508	0	0	
3	0	0	0	0	507	508	0	0	
4	0	0	0	0	511	510	0	0	
5	0	0	0	0	512	508	0	0	
6	0	0	0	0	511	505	0	0	
7	0	0	0	0	512	508	0	0	
8	0	0	0	0	513	507	0	0	
9	0	0	0	0	511	508	0	0	
10	0	0	0	0	515	508	0	0	
11	0	0	0	0	514	506	0	0	
12	0	0	0	0	513	508	0	0	
13	0	0	0	0	514	507	0	0	
14	0	0	0	0	514	512	0	0	
15	0	0	0	0	512	508	0	0	
0	0	0	0	0	513	509	0	0	
1	0	0	0	0	511	507	0	0	
2	0	0	0	0	511	511	0	0	
3	0	0	0	0	508	508	0	0	
4	0	0	0	0	510	509	0	0	
5	0	0	0	0	508	508	0	0	
6	0	0	0	0	511	505	0	0	
7	0	0	0	0	513	508	0	0	
8	0	0	0	0	516	507	0	0	
9	0	0	0	0	518	509	0	0	
10	0	0	0	0	517	508	0	0	
11	0	0	0	0	507	508	0	0	
12	0	0	0	0	507	508	0	0	
13	0	0	0	0	508	507	0	0	
14	0	0	0	0	504	510	0	0	
15	0	0	0	0	507	508	0	0	
0	0	0	0	0	510	507	0	0	
1	0	0	0	0	516	509	0	0	
2	0	0	0	0	520	509	0	0	
3	0	0	0	0	515	510	0	0	
4	0	0	0	0	514	508	0	0	
5	0	0	0	0	515	506	0	0	
6	0	0	0	0	515	507	0	0	
7	0	0	0	0	513	506	0	0	
8	0	0	0	0	507	508	0	0	
9	0	0	0	0	499	508	0	0	
10	0	0	0	0	508	507	0	0	
11	0	0	0	0	515	509	0	0	
12	0	0	0	0	513	508	0	0	
13	0	0	0	0	511	508	0	0	
14	0	0	0	0	509	509	0	0	
15	0	0	0	0	510	507	0	0	
0	0	0	0	0	508	507	0	0	
1	0	0	0	0	511	510	0	0	
2	0	0	0	0	511	507	0	0	
3	0	0	0	0	511	510	0	0	
4	0	0	0	0	510	508	0	0	
5	0	0	0	0	511	510	0	0	
6	0	0	0	0	514	508	0	0	
7	0	0	0	0	511	507	0	0	
8	0	0	0	0	511	511	0	0	
9	0	0	0	0	511	510	0	0	
10	0	0	0	0	511	508	0	0	
11	0	0	0	0	511	510	0	0	
12	0	0	0	0	511	510	0	0	
13	0	0	0	0	513	508	0	0	
14	0	0	0	0	511	508	0	0	
15	0	0	0	0	510	508	0	0	
0	0	0	0	0	508	508	1	0	
1	0	0	0	0	512	510	0	0	
2	0	0	0	0	512	508	0	0	
3	0	0	0	0	517	509	0	0	
4	0	0	0	0	519	509	0	0	
5	0	0	0	0	516	507	0	0	
6	0	0	0	0	512	510	0	0	
7	0	0	0	0	507	507	0	0	
8	0	0	0	0	499	507	0	0	
9	0	0	0	0	491	509	0	0	
10	0	0	0	0	505	508	0	0	
11	0	0	0	0	511	510	0	0	
12	0	0	0	0	512	507	0	0	
13	0	0	0	0	511	507	0	0	
14	0	0	0	0	515	510	0	0	
15	0	0	0	0	516	508	0	0	
0	0	0	0	0	514	508	0	0	
1	0	0	0	0	513	506	0	0	
2	0	0	0	0	512	508	0	0	
3	0	0	0	0	516	508	0	0	
4	0	0	0	0	520	510	0	0	
5	0	0	0	0	514	508	0	0	
6	0	0	0	0	514	509	0	0	
7	0	0	0	0	511	508	0	0	
8	0	0	0	0	511	506	0	0	
9	0	0	0	0	499	513	0	0	
10	0	0	0	0	502	510	0	0	
11	0	0	0	0	510	506	0	0	
12	0	0	0	0	511	509	0	0	
13	0	0	0	0	517	509	0	0	
14	0	0	0	0	516	510	0	0	
15	0	0	0	0	514	507	0	0	
0	0	0	0	0	512	508	0	0	
1	0	0	0	0	512	507	0	0	
2	0	0	0	0	513	508	0	0	
3	0	0	0	0	511	508	0	0	
4	0	0	0	0	511	507	0	0	
5	0	0	0	0	511	508	0	0	
6	0	0	0	0	511	506	0	0	
7	0	0	0	0	509	508	0	0	
8	0	0	0	0	511	508	0	0	
9	0	0	0	0	511	508	0	0	
10	0	0	0	0	509	507	0	0	
11	0	0	0	0	510	507	0	0	
12	0	0	0	0	513	507	0	0	
13	0	0	0	0	509	507	0	0	
14	0	0	0	0	511	508	0	0	
15	0	0	0	0	510	509	0	0	
0	0	0	0	0	511	508	0	0	
1	0	0	0	0	511	509	0	0	
2	0	0	0	0	510	508	0	0	
3	0	0	0	0	510	507	0	0	
4	0	0	0	0	510	509	0	0	
5	0	0	0	0	511	507	0	0	
6	0	0	0	0	510	508	0	0	
7	0	0	0	0	510	512	0	0	
8	0	0	0	0	508	508	0	0	
9	0	0	0	0	511	509	0	0	
10	0	0	0	0	511	508	0	0	
11	0	0	0	0	511	505	0	0	
12	0	0	0	0	514	510	0	0	
13	0	0	0	0	513	508	0	0	
14	0	0	0	0	510	508	0	0	
15	0	0	0	0	512	509	0	0	
0	0	0	0	0	515	511	0	0	
1	0	0	0	0	513	507	1	0	
2	0	0	0	0	512	507	0	0	
3	0	0	0	0	511	510	0	0	
4	0	0	0	0	513	509	0	0	
5	0	0	0	0	512	507	0	0	
6	0	0	0	0	512	510	0	0	
7	0	0	0	0	513	508	0	0	
8	0	0	0	0	514	506	0	0	
9	0	0	0	0	512	508	0	0	
10	0	0	0	0	512	506	0	0	
11	0	0	0	0	510	508	0	0	
12	0	0	0	0	512	509	0	0	
13	0	0	0	0	507	505	0	0	
14	0	0	0	0	497	507	0	0	
15	0	0	0	0	502	508	0	0	
0	0	0	0	0	512	509	0	0	
1	0	0	0	0	511	508	0	0	
2	0	0	0	0	511	505	0	0	
3	0	0	0	0	511	506	0	0	
4	0	0	0	0	513	509	0	0	
5	0	0	0	0	512	508	0	0	
6	0	0	0	0	511	508	0	0	
7	0	0	0	0	510	508	0	0	
8	0	0	0	0	511	508	0	0	
9	0	0	0	0	512	508	0	0	
10	0	0	0	0	512	508	0	0	
11	0	0	0	0	510	510	0	0	
12	0	0	0	0	512	509	0	0	
13	0	0	0	0	512	505	0	0	
14	0	0	0	0	511	508	0	0	
15	0	0	0	0	510	509	0	0	
0	0	0	0	0	513	507	0	0	
1	0	0	0	0	511	508	0	0	
2	0	0	0	0	511	508	0	0	
3	0	0	0	0	509	508	0	0	
4	0	0	0	0	510	510	0	0	
5	0	0	0	0	511	509	0	0	
6	0	0	0	0	512	507	0	0	
7	0	0	0	0	511	508	0	0	
8	0	0	0	0	512	507	0	0	
9	0	0	0	0	511	508	0	0	
10	0	0	0	0	511	511	0	0	
11	0	0	0	0	511	507	0	0	
12	0	0	0	0	513	508	0	0	
13	0	0	0	0	512	508	0	0	
14	0	0	0	0	509	510	0	0	
15	0	0	0	0	510	509	0	0	
0	0	0	0	0	508	508	0	0	
1	0	0	0	0	510	509	0	0	
2	0	0	0	0	511	508	0	0	
3	0	0	0	0	512	506	0	0	
4	0	0	0	0	515	509	0	0	
5	0	0	0	0	509	507	0	0	
6	0	0	0	0	512	512	0	0	
7	0	0	0	0	513	511	0	0	
8	0	0	0	0	509	506	0	0	
9	0	0	0	0	510	509	0	0	
10	0	0	0	0	511	508	0	0	
11	0	0	0	0	511	509	0	0	
12	0	0	0	0	511	507	0	0	
13	0	0	0	0	512	506	0	0	
14	0	0	0	0	513	508	0	0	
15	0	0	0	0	511	507	0	0	
0	0	0	0	0	512	511	0	0	
1	0	0	0	0	511	507	0	0	
2	0	0	0	0	509	508	0	0	
3	0	0	0	0	511	507	0	0	
4	0	0	0	0	511	508	0	0	
5	0	0	0	0	508	509	0	0	
6	0	0	0	0	512	511	0	0	
7	0	0	0	0	512	510	0	0	
8	0	0	0	0	511	508	0	0	
9	0	0	0	0	511	509	0	0	
10	0	0	0	0	509	507	0	0	
11	0	0	0	0	511	508	0	0	
12	0	0	0	0	509	509	0	0	
13	0	0	0	0	511	508	0	0	
14	0	0	0	0	512	506	0	0	
15	0	0	0	0	513	507	0	0	
0	0	0	0	0	513	509	0	0	
1	0	0	0	0	512	508	0	0	
2	0	0	0	0	511	508	0	0	
3	0	0	0	0	510	508	0	0	
4	0	0	0	0	514	506	0	0	
5	0	0	0	0	512	508	0	0	
6	0	0	0	0	512	509	0	0	
7	0	0	0	0	511	507	0	0	
8	0	0	0	0	509	507	0	0	
9	0	0	0	0	512	510	0	0	
10	0	0	0	0	512	510	0	0	
11	0	0	0	0	509	507	0	0	
12	0	0	0	0	512	509	0	0	
13	0	0	0	0	509	509	0	0	
14	0	0	0	0	511	510	0	0	
15	0	0	0	0	512	508	0	0	
0	0	0	0	0	511	508	0	0	
1	0	0	0	0	511	508	0	0	
2	0	0	0	0	511	507	0	0	
3	0	0	0	0	512	507	0	0	
4	0	0	0	0	510	508	0	0	
5	0	0	0	0	510	509	0	0	
6	0	0	0	0	511	509	0	0	
7	0	0	0	0	510	509	0	0	
8	0	0	0	0	511	510	0	0	
9	0	0	0	0	510	510	0	0	
10	0	0	0	0	512	510	0	0	
11	0	0	0	0	510	508	0	0	
12	0	0	0	0	509	506	0	0	
13	0	0	0	0	511	506	0	0	
14	0	0	0	0	512	505	0	0	
15	0	0	0	0	515	506	0	0	
0	0	0	0	0	511	507	0	0	
1	0	0	0	0	508	505	0	0	
2	0	0	0	0	510	509	0	0	
3	0	0	0	0	510	509	0	0	
4	0	0	0	0	511	510	0	0	
5	0	0	0	0	511	509	0	0	
6	0	0	0	0	511	509	0	0	
7	0	0	0	0	510	507	0	0	
8	0	0	0	0	513	510	0	0	
9	0	0	0	0	512	508	0	0	
10	0	0	0	0	515	507	0	0	
11	0	0	0	0	517	508	0	0	
12	0	0	0	0	517	508	0	0	
13	0	0	0	0	516	507	0	0	
14	0	0	0	0	513	508	0	0	
15	0	0	0	0	510	509	0	0	
0	0	0	0	0	507	508	0	0	
1	0	0	0	0	497	509	0	0	
2	0	0	0	0	497	507	0	0	
3	0	0	0	0	511	509	0	0	
4	0	0	0	0	512	508	0	0	
5	0	0	0	0	512	508	0	0	
6	0	0	0	0	514	508	0	0	
7	0	0	0	0	520	509	0	0	
8	0	0	0	0	519	508	0	0	
9	0	0	0	0	513	508	0	0	
10	0	0	0	0	501	510	0	0	
11	0	0	0	0	504	507	0	0	
12	0	0	0	0	515	507	0	0	
13	0	0	0	0	510	509	0	0	
14	0	0	0	0	511	507	0	0	
15	0	0	0	0	512	510	0	0	
0	0	0	0	0	511	508	0	0	
1	0	0	0	0	512	510	0	0	
2	0	0	0	0	511	508	0	0	
3	0	0	0	0	514	508	0	0	
4	0	0	0	0	514	509	0	0	
5	0	0	0	0	511	508	0	0	
6	0	0	0	0	511	507	0	0	
7	0	0	0	0	512	511	0	0	
8	0	0	0	0	513	508	0	0	
9	0	0	0	0	511	509	0	0	
10	0	0	0	0	510	507	0	0	
11	0	0	0	0	511	507	0	0	
12	0	0	0	0	511	509	0	0	
13	0	0	0	0	511	508	0	0	
14	0	0	0	0	510	508	0	0	
15	0	0	0	0	512	508	0	0	
0	0	0	0	0	512	508	0	0	
1	0	0	0	0	509	509	0	0	
2	0	0	0	0	511	510	0	0	
3	0	0	0	0	513	508	0	0	
4	0	0	0	0	512	506	0	0	
5	0	0	0	0	510	508	0	0	
6	0	0	0	0	513	511	0	0	
7	0	0	0	0	513	510	0	0	
8	0	0	0	0	512	508	0	0	
9	0	0	0	0	511	508	0	0	
10	0	0	0	0	511	511	0	0	
11	0	0	0	0	508	507	0	0	
12	0	0	0	0	511	508	0	0	
13	0	0	0	0	511	508	0	0	
14	0	0	0	0	513	510	0	0	
15	0	0	0	0	512	507	0	0	
0	0	0	0	0	512	507	0	0	
1	0	0	0	0	513	508	0	0	
2	0	0	0	0	508	508	0	0	
3	0	0	0	0	511	507	0	0	
4	0	0	0	0	512	510	0	0	
5	0	0	0	0	511	509	0	0	
6	0	0	0	0	511	509	0	0	
7	0	0	0	0	508	507	0	0	
8	0	0	0	0	512	507	0	0	
9	0	0	0	0	511	510	0	0	
10	0	0	0	0	511	509	0	0	
11	0	0	0	0	510	508	0	0	
12	0	0	0	0	509	507	0	0	
13	0	0	0	0	512	509	0	0	
14	0	0	0	0	512	508	0	0	
15	0	0	0	0	510	507	0	0	
0	0	0	0	0	512	509	0	0	
1	0	0	0	0	512	506	0	0	
2	0	0	0	0	513	508	0	0	
3	0	0	0	0	510	506	0	0	
4	0	0	0	0	516	511	0	0	
5	0	0	0	0	513	508	0	0	
6	0	0	0	0	513	508	0	0	
7	0	0	0	0	508	509	0	0	
8	0	0	0	0	502	511	0	0	
9	0	0	0	0	495	508	0	0	
10	0	0	0	0	508	509	0	0	
11	0	0	0	0	512	505	0	0	
12	0	0	0	0	513	507	0	0	
13	0	0	0	0	512	508	0	0	
14	0	0	0	0	514	507	0	0	
15	0	0	0	0	512	509	0	0	
0	0	0	0	0	510	506	0	0	
1	0	0	0	0	512	507	0	0	
2	0	0	0	0	510	510	0	0	
3	0	0	0	0	512	508	0	0	
4	0	0	0	0	511	508	0	0	
5	0	0	0	0	509	507	0	0	
6	0	0	0	0	511	508	0	0	
7	0	0	0	0	512	506	0	0	
8	0	0	0	0	512	511	0	0	
9	0	0	0	0	510	508	0	0	
10	0	0	0	0	510	507	0	0	
11	0	0	0	0	512	506	0	0	
12	0	0	0	0	514	507	0	0	
13	0	0	0	0	512	508	0	0	
14	0	0	0	0	512	509	0	0	
15	0	0	0	0	511	508	0	0	
0	0	0	0	0	511	508	0	0	
1	0	0	0	0	511	506	0	0	
2	0	0	0	0	512	509	0	0	
3	0	0	0	0	513	507	0	0	
4	0	0	0	0	510	508	0	0	
5	0	0	0	0	509	507	0	0	
6	0	0	0	0	511	510	0	0	
7	0	0	0	0	512	511	0	0	
8	0	0	0	0	512	508	0	0	
9	0	0	0	0	509	509	0	0	
10	0	0	0	0	511	506	0	0	
11	0	0	0	0	512	507	0	0	
12	0	0	0	0	513	510	0	0	
13	0	0	0	0	510	507	0	0	
14	0	0	0	0	511	509	0	0	
15	0	0	0	0	513	509	0	0	
0	0	0	0	0	511	510	0	0	
1	0	0	0	0	511	509	0	0	
2	0	0	0	0	510	508	0	0	
3	0	0	0	0	511	507	0	0	
4	0	0	0	0	507	508	0	0	
5	0	0	0	0	509	508	0	0	
6	0	0	0	0	513	511	0	0	
7	0	0	0	0	512	508	0	0	
8	0	0	0	0	511	508	0	0	
9	0	0	0	0	512	510	0	0	
10	0	0	0	0	511	509	0	0	
11	0	0	0	0	512	508	0	0	
12	0	0	0	0	515	508	0	0	
13	0	0	0	0	514	509	0	0	
14	0	0	0	0	512	508	0	0	
15	0	0	0	0	511	507	0	0	
0	0	0	0	0	509	506	0	0	
1	0	0	0	0	511	508	0	0	
2	0	0	0	0	513	507	0	0	
3	0	0	0	0	513	506	0	0	
4	0	0	0	0	508	507	0	0	
5	0	0	0	0	510	507	0	0	
6	0	0	0	0	510	510	0	0	
7	0	0	0	0	510	507	0	0	
8	0	0	0	0	511	507	0	0	
9	0	0	0	0	511	509	0	0	
10	0	0	0	0	511	507	0	0	
11	0	0	0	0	510	509	0	0	
12	0	0	0	0	511	508	0	0	
13	0	0	0	0	510	508	0	0	
14	0	0	0	0	511	509	0	0	
15	0	0	0	0	511	509	0	0	
0	0	0	0	0	510	510	0	0	
1	0	0	0	0	512	509	0	0	
2	0	0	0	0	510	507	0	0	
3	0	0	0	0	511	506	0	0	
4	0	0	0	0	511	508	0	0	
5	0	0	0	0	512	508	0	0	
6	0	0	0	0	509	508	0	0	
7	0	0	0	0	510	508	0	0	
8	0	0	0	0	512	509	0	0	
9	0	0	0	0	511	508	0	0	
10	0	0	0	0	512	509	0	0	
11	0	0	0	0	510	507	0	0	
12	0	0	0	0	512	508	0	0	
13	0	0	0	0	512	509	0	0	
14	0	0	0	0	511	508	0	0	
15	0	0	0	0	511	509	0	0	
0	0	0	0	0	511	508	0	0	
1	0	0	0	0	511	510	0	0	
2	0	0	0	0	512	507	0	0	
3	0	0	0	0	512	507	0	0	
4	0	0	0	0	513	507	0	0	
5	0	0	0	0	511	507	0	0	
6	0	0	0	0	508	506	0	0	
7	0	0	0	0	512	509	0	0	
8	0	0	0	0	512	506	0	0	
9	0	0	0	0	512	511	0	0	
10	0	0	0	0	511	508	0	0	
11	0	0	0	0	511	510	0	0	
12	0	0	0	0	511	507	0	0	
13	0	0	0	0	510	508	0	0	
14	0	0	0	0	509	509	0	0	
15	0	0	0	0	512	508	0	0	
0	0	0	0	0	512	507	0	0	
1	0	0	0	0	511	508	0	0	
2	0	0	0	0	511	507	0	0	
3	0	0	0	0	509	509	0	0	
4	0	0	0	0	508	507	0	0	
5	0	0	0	0	508	507	0	0	
6	0	0	0	0	509	508	0	0	
7	0	0	0	0	510	508	0	0	
8	0	0	0	0	510	508	0	0	
9	0	0	0	0	510	510	0	0	
10	0	0	0	0	513	507	0	0	
11	0	0	0	0	513	506	0	0	
12	0	0	0	0	510	508	0	0	
13	0	0	0	0	513	508	0	0	
14	0	0	0	0	510	508	0	0	
15	0	0	0	0	510	508	0	0	
0	0	0	0	0	509	508	0	0	
1	0	0	0	0	509	511	0	0	
2	0	0	0	0	510	509	0	0	
3	0	0	0	0	511	510	0	0	
4	0	0	0	0	512	508	0	0	
5	0	0	0	0	513	510	0	0	
6	0	0	0	0	512	508	0	0	
7	0	0	0	0	513	507	0	0	
8	0	0	0	0	512	507	0	0	
9	0	0	0	0	512	508	0	0	
10	0	0	0	0	511	508	0	0	
11	0	0	0	0	511	508	0	0	
12	0	0	0	0	510	508	0	0	
13	0	0	0	0	509	505	0	0	
14	0	0	0	0	512	510	0	0	
15	0	0	0	0	511	508	0	0	
0	0	0	0	0	510	508	0	0	
1	0	0	0	0	511	510	0	0	
2	0	0	0	0	511	508	0	0	
3	0	0	0	0	510	508	0	0	
4	0	0	0	0	510	505	0	0	
5	0	0	0	0	508	508	0	0	
6	0	0	0	0	509	508	0	0	
7	0	0	0	0	512	508	0	0	
8	0	0	0	0	512	508	0	0	
9	0	0	0	0	512	509	0	0	
10	0	0	0	0	511	508	0	0	
11	0	0	0	0	511	508	0	0	
12	0	0	0	0	512	506	0	0	
13	0	0	0	0	512	509	0	0	
14	0	0	0	0	512	511	0	0	
15	0	0	0	0	512	510	0	0	
0	0	0	0	0	511	508	0	0	
1	0	0	0	0	508	507	0	0	
2	0	0	0	0	511	509	0	0	
3	0	0	0	0	510	509	0	0	
4	0	0	0	0	511	507	0	0	
5	0	0	0	0	511	509	0	0	
6	0	0	0	0	512	509	0	0	
7	0	0	0	0	511	508	0	0	
8	0	0	0	0	510	509	0	0	
9	0	0	0	0	512	511	0	0	
10	0	0	0	0	512	507	0	0	
11	0	0	0	0	515	508	0	0	
12	0	0	0	0	511	511	0	0	
13	0	0	0	0	511	507	0	0	
14	0	0	0	0	512	510	0	0	
15	0	0	0	0	512	509	0	0	
0	0	0	0	0	512	511	0	0	
1	0	0	0	0	510	508	0	0	
2	0	0	0	0	511	508	0	0	
3	0	0	0	0	512	510	0	0	
4	0	0	0	0	510	506	0	0	
5	0	0	0	0	511	509	0	0	
6	0	0	0	0	510	508	0	0	
7	0	0	0	0	509	510	0	0	
8	0	0	0	0	512	511	0	0	
9	0	0	0	0	512	507	0	0	
10	0	0	0	0	512	507	0	0	
11	0	0	0	0	511	508	0	0	
12	0	0	0	0	511	509	0	0	
13	0	0	0	0	512	508	0	0	
14	0	0	0	0	512	510	0	0	
15	0	0	0	0	511	510	0	0	
0	0	0	0	0	513	508	0	0	
1	0	0	0	0	513	507	0	0	
2	0	0	0	0	513	506	0	0	
3	0	0	0	0	512	508	0	0	
4	0	0	0	0	512	507	0	0	
5	0	0	0	0	510	509	0	0	
6	0	0	0	0	511	509	0	0	
7	0	0	0	0	513	507	0	0	
8	0	0	0	0	510	511	0	0	
9	0	0	0	0	510	508	0	0	
10	0	0	0	0	512	507	0	0	
11	0	0	0	0	511	508	0	0	
12	0	0	0	0	511	508	0	0	
13	0	0	0	0	510	510	0	0	
14	0	0	0	0	509	508	0	0	
15	0	0	0	0	510	507	0	0	
0	0	0	0	0	510	508	0	0	
1	0	0	0	0	510	508	0	0	
2	0	0	0	0	510	508	0	0	
3	0	0	0	0	511	510	0	0	
4	0	0	0	0	511	509	0	0	
5	0	0	0	0	510	509	0	0	
6	0	0	0	0	512	511	0	0	
7	0	0	0	0	511	505	0	0	
8	0	0	0	0	511	507	0	0	
9	0	0	0	0	514	509	0	0	
10	0	0	0	0	512	509	0	0	
11	0	0	0	0	512	509	0	0	
12	0	0	0	0	511	509	0	0	
13	0	0	0	0	508	509	0	0	
14	0	0	0	0	510	508	0	0	
15	0	0	0	0	510	508	0	0	
0	0	0	0	0	512	507	0	0	
1	0	0	0	0	512	509	0	0	
2	0	0	0	0	511	508	0	0	
3	0	0	0	0	511	506	0	0	
4	0	0	0	0	509	509	0	0	
5	0	0	0	0	512	507	0	0	
6	0	0	0	0	510	508	0	0	
7	0	0	0	0	509	506	0	0	
8	0	0	0	0	511	508	0	0	
9	0	0	0	0	510	508	0	0	
10	0	0	0	0	511	508	0	0	
11	0	0	0	0	514	507	0	0	
12	0	0	0	0	515	507	0	0	
13	0	0	0	0	512	508	0	0	
14	0	0	0	0	510	510	0	0	
15	0	0	0	0	508	506	0	0	
0	0	0	0	0	510	509	0	0	
1	0	0	0	0	509	509	0	0	
2	0	0	0	0	510	508	0	0	
3	0	0	0	0	513	509	0	0	
4	0	0	0	0	512	509	0	0	
5	0	0	0	0	511	506	0	0	
6	0	0	0	0	510	509	0	0	
7	0	0	0	0	511	505	0	0	
8	0	0	0	0	511	508	0	0	
9	0	0	0	0	512	510	0	0	
10	0	0	0	0	511	508	0	0	
11	0	0	0	0	512	510	0	0	
12	0	0	0	0	512	508	0	0	
13	0	0	0	0	512	509	0	0	
14	0	0	0	0	512	507	0	0	
15	0	0	0	0	510	511	0	0	
0	0	0	0	0	510	507	0	0	
1	0	0	0	0	511	506	0	0	
2	0	0	0	0	510	508	0	0	
3	0	0	0	0	513	510	0	0	
4	0	0	0	0	507	507	0	0	
5	0	0	0	0	511	508	0	0	
6	0	0	0	0	510	508	0	0	
7	0	0	0	0	511	508	0	0	
8	0	0	0	0	513	509	0	0	
9	0	0	0	0	511	508	0	0	
10	0	0	0	0	510	508	0	0	
11	0	0	0	0	510	508	0	0	
12	0	0	0	0	512	509	0	0	
13	0	0	0	0	511	508	0	0	
14	0	0	0	0	512	507	0	0	
15	0	0	0	0	510	508	0	0	
0	0	0	0	0	510	507	0	0	
1	0	0	0	0	511	508	0	0	
2	0	0	0	0	511	509	0	0	
3	0	0	0	0	512	508	0	0	
4	0	0	0	0	512	509	0	0	
5	0	0	0	0	511	508	0	0	
6	0	0	0	0	512	509	0	0	
7	0	0	0	0	511	509	0	0	
8	0	0	0	0	510	506	0	0	
9	0	0	0	0	508	504	0	0	
10	0	0	0	0	509	509	0	0	
11	0	0	0	0	512	509	0	0	
12	0	0	0	0	512	506	0	0	
13	0	0	0	0	514	510	0	0	
14	0	0	0	0	511	508	0	0	
15	0	0	0	0	511	508	0	0	
0	0	0	0	0	511	508	0	0	
1	0	0	0	0	511	508	0	0	
2	0	0	0	0	512	509	0	0	
3	0	0	0	0	508	508	0	0	
4	0	0	0	0	512	510	0	0	
5	0	0	0	0	511	510	0	0	
6	0	0	0	0	508	507	0	0	
7	0	0	0	0	510	508	0	0	
8	0	0	0	0	514	508	0	0	
9	0	0	0	0	508	508	0	0	
10	0	0	0	0	511	508	0	0	
11	0	0	0	0	512	509	0	0	
12	0	0	0	0	508	510	0	0	
13	0	0	0	0	508	507	0	0	
14	0	0	0	0	512	507	0	0	
15	0	0	0	0	512	507	0	0	
0	0	0	0	0	512	507	0	0	
1	0	0	0	0	510	506	0	0	
2	0	0	0	0	510	506	0	0	
3	0	0	0	0	511	507	0	0	
4	0	0	0	0	511	508	0	0	
5	0	0	0	0	510	509	0	0	
6	0	0	0	0	513	508	0	0	
7	0	0	0	0	509	507	0	0	
8	0	0	0	0	510	508	0	0	
9	0	0	0	0	511	510	0	0	
10	0	0	0	0	511	508	0	0	
11	0	0	0	0	510	512	0	0	
12	0	0	0	0	511	508	0	0	
13	0	0	0	0	512	507	0	0	
14	0	0	0	0	512	508	0	0	
15	0	0	0	0	515	507	0	0	
0	0	0	0	0	511	508	0	0	
1	0	0	0	0	510	510	0	0	
2	0	0	0	0	511	508	0	0	
3	0	0	0	0	508	511	0	0	
4	0	0	0	0	512	509	0	0	
5	0	0	0	0	511	507	0	0	
6	0	0	0	0	506	508	0	0	
7	0	0	0	0	510	506	0	0	
8	0	0	0	0	511	507	0	0	
9	0	0	0	0	511	507	0	0	
10	0	0	0	0	513	508	0	0	
11	0	0	0	0	513	507	0	0	
12	0	0	0	0	512	508	0	0	
13	0	0	0	0	516	508	0	0	
14	0	0	0	0	519	508	0	0	
15	0	0	0	0	515	511	0	0	
0	0	0	0	0	512	508	0	0	
1	0	0	0	0	509	507	0	0	
2	0	0	0	0	504	511	0	0	
3	0	0	0	0	491	508	0	0	
4	0	0	0	0	507	508	0	0	
5	0	0	0	0	508	504	0	0	
6	0	0	0	0	511	508	0	0	
7	0	0	0	0	508	509	0	0	
8	0	0	0	0	512	506	0	0	
9	0	0	0	0	511	508	0	0	
10	0	0	0	0	514	507	0	0	
11	0	0	0	0	513	506	0	0	
12	0	0	0	0	510	508	0	0	
13	0	0	0	0	510	509	0	0	
14	0	0	0	0	516	511	0	0	
15	0	0	0	0	516	508	0	0	
0	0	0	0	0	512	507	0	0	
1	0	0	0	0	514	511	0	0	
2	0	0	0	0	511	510	0	0	
3	0	0	0	0	510	509	0	0	
4	0	0	0	0	510	507	0	0	
5	0	0	0	0	512	507	0	0	
6	0	0	0	0	511	509	0	0	
7	0	0	0	0	509	508	0	0	
8	0	0	0	0	510	509	0	0	
9	0	0	0	0	508	506	0	0	
10	0	0	0	0	509	509	0	0	
11	0	0	0	0	511	509	0	0	
12	0	0	0	0	512	508	0	0	
13	0	0	0	0	513	510	0	0	
14	0	0	0	0	513	507	0	0	
15	0	0	0	0	512	506	0	0	
0	0	0	0	0	514	508	0	0	
1	0	0	0	0	511	509	0	0	
2	0	0	0	0	510	508	0	0	
3	0	0	0	0	510	506	0	0	
4	0	0	0	0	509	507	0	0	
5	0	0	0	0	509	507	0	0	
6	0	0	0	0	510	509	0	0	
7	0	0	0	0	510	508	0	0	
8	0	0	0	0	511	508	0	0	
9	0	0	0	0	510	508	0	0	
10	0	0	0	0	518	507	0	0	
11	0	0	0	0	515	509	0	0	
12	0	0	0	0	511	507	0	0	
13	0	0	0	0	512	507	0	0	
14	0	0	0	0	510	508	0	0	
15	0	0	0	0	509	509	0	0	
0	0	0	0	0	511	510	0	0	
1	0	0	0	0	511	508	0	0	
2	0	0	0	0	511	507	0	0	
3	0	0	0	0	509	508	0	0	
4	0	0	0	0	512	508	0	0	
5	0	0	0	0	512	510	0	0	
6	0	0	0	0	510	508	0	0	
7	0	0	0	0	510	508	0	0	
8	0	0	0	0	511	509	0	0	
9	0	0	0	0	511	508	0	0	
10	0	0	0	0	512	506	0	0	
11	0	0	0	0	510	508	0	0	
12	0	0	0	0	508	507	0	0	
13	0	0	0	0	512	510	0	0	
14	0	0	0	0	512	510	0	0	
15	0	0	0	0	514	505	0	0	
0	0	0	0	0	518	508	0	0	
1	0	0	0	0	511	508	0	0	
2	0	0	0	0	510	508	0	0	
3	0	0	0	0	511	509	0	0	
4	0	0	0	0	509	508	0	0	
5	0	0	0	0	513	509	0	0	
6	0	0	0	0	509	506	0	0	
7	0	0	0	0	511	509	0	0	
8	0	0	0	0	511	510	0	0	
9	0	0	0	0	510	509	0	0	
10	0	0	0	0	512	509	0	0	
11	0	0	0	0	509	508	0	0	
12	0	0	0	0	512	510	0	0	
13	0	0	0	0	511	510	0	0	
14	0	0	0	0	511	509	0	0	
15	0	0	0	0	514	510	0	0	
0	0	0	0	0	513	508	0	0	
1	0	0	0	0	510	509	0	0	
2	0	0	0	0	510	510	0	0	
3	0	0	0	0	516	508	0	0	
4	0	0	0	0	518	508	0	0	
5	0	0	0	0	513	505	0	0	
6	0	0	0	0	512	507	0	0	
7	0	0	0	0	515	508	0	0	
8	0	0	0	0	511	508	0	0	
9	0	0	0	0	511	508	0	0	
10	0	0	0	0	496	507	0	0	
11	0	0	0	0	498	508	0	0	
12	0	0	0	0	498	508	0	0	
13	0	0	0	0	510	507	0	0	
14	0	0	0	0	515	509	0	0	
15	0	0	0	0	513	509	0	0	
0	0	0	0	0	510	508	0	0	
1	0	0	0	0	518	505	0	0	
2	0	0	0	0	521	507	0	0	
3	0	0	0	0	515	508	0	0	
4	0	0	0	0	514	507	0	0	
5	0	0	0	0	512	509	0	0	
6	0	0	0	0	513	510	0	0	
7	0	0	0	0	509	506	0	0	
8	0	0	0	0	509	508	0	0	
9	0	0	0	0	511	506	0	0	
10	0	0	0	0	511	508	0	0	
11	0	0	0	0	512	508	0	0	
12	0	0	0	0	511	508	0	0	
13	0	0	0	0	511	508	0	0	
14	0	0	0	0	507	507	0	0	
15	0	0	0	0	512	508	0	0	
0	0	0	0	0	511	510	0	0	
1	0	0	0	0	512	508	0	0	
2	0	0	0	0	515	509	0	0	
3	0	0	0	0	511	508	0	0	
4	0	0	0	0	511	507	0	0	
5	0	0	0	0	511	508	0	0	
6	0	0	0	0	509	508	0	0	
7	0	0	0	0	511	507	0	0	
8	0	0	0	0	508	508	0	0	
9	0	0	0	0	512	507	0	0	
10	0	0	0	0	510	506	0	0	
11	0	0	0	0	513	508	0	0	
12	0	0	0	0	513	509	0	0	
13	0	0	0	0	511	507	0	0	
14	0	0	0	0	512	508	0	0	
15	0	0	0	0	511	507	0	0	
0	0	0	0	0	510	508	0	0	
1	0	0	0	0	510	508	0	0	
2	0	0	0	0	510	508	0	0	
3	0	0	0	0	510	507	0	0	
4	0	0	0	0	510	509	0	0	
5	0	0	0	0	508	510	0	0	
6	0	0	0	0	511	507	0	0	
7	0	0	0	0	508	507	0	0	
8	0	0	0	0	511	508	0	0	
9	0	0	0	0	511	508	0	0	
10	0	0	0	0	511	508	0	0	
11	0	0	0	0	518	508	0	0	
12	0	0	0	0	513	508	0	0	
13	0	0	0	0	514	506	0	0	
14	0	0	0	0	515	508	0	0	
15	0	0	0	0	515	507	0	0	
0	0	0	0	0	511	508	0	0	
1	0	0	0	0	507	506	0	0	
2	0	0	0	0	510	506	0	0	
3	0	0	0	0	511	508	0	0	
4	0	0	0	0	511	510	0	0	
5	0	0	0	0	510	506	0	0	
6	0	0	0	0	510	510	0	0	
7	0	0	0	0	509	510	0	0	
8	0	0	0	0	510	509	0	0	
9	0	0	0	0	509	509	0	0	
10	0	0	0	0	511	508	0	0	
11	0	0	0	0	507	508	0	0	
12	0	0	0	0	511	507	0	0	
13	0	0	0	0	512	507	0	0	
14	0	0	0	0	511	509	0	0	
15	0	0	0	0	513	509	0	0	
0	0	0	0	0	511	506	0	0	
1	0	0	0	0	512	508	0	0	
2	0	0	0	0	513	509	0	0	
3	0	0	0	0	512	508	0	0	
4	0	0	0	0	510	508	0	0	
5	0	0	0	0	510	507	0	0	
6	0	0	0	0	510	506	0	0	
7	0	0	0	0	509	507	0	0	
8	0	0	0	0	512	513	0	0	
9	0	0	0	0	509	509	0	0	
10	0	0	0	0	513	511	0	0	
11	0	0	0	0	510	509	0	0	
12	0	0	0	0	510	507	0	0	
13	0	0	0	0	511	510	0	0	
14	0	0	0	0	511	508	0	0	
15	0	0	0	0	511	507	0	0	
0	0	0	0	0	512	508	0	0	
1	0	0	0	0	513	507	0	0	
2	0	0	0	0	512	510	0	0	
3	0	0	0	0	513	508	0	0	
4	0	0	0	0	512	508	0	0	
5	0	0	0	0	511	508	0	0	
6	0	0	0	0	513	510	0	0	
7	0	0	0	0	508	508	0	0	
8	0	0	0	0	509	508	0	0	
9	0	0	0	0	510	508	0	0	
10	0	0	0	0	512	508	0	0	
11	0	0	0	0	512	508	0	0	
12	0	0	0	0	511	507	0	0	
13	0	0	0	0	510	509	0	0	
14	0	0	0	0	510	507	0	0	
15	0	0	0	0	511	509	0	0	
0	0	0	0	0	510	510	0	0	
1	0	0	0	0	510	508	0	0	
2	0	0	0	0	514	510	0	0	
3	0	0	0	0	512	508	0	0	
4	0	0	0	0	511	506	0	0	
5	0	0	0	0	508	509	0	0	
6	0	0	0	0	513	508	0	0	
7	0	0	0	0	521	508	0	0	
8	0	0	0	0	515	507	0	0	
9	0	0	0	0	522	510	0	0	
10	0	0	0	0	521	507	0	0	
11	0	0	0	0	518	508	0	0	
12	0	0	0	0	508	507	0	0	
13	0	0	0	0	479	509	0	0	
14	0	0	0	0	486	509	0	0	
15	0	0	0	0	507	508	0	0	
0	0	0	0	0	511	507	0	0	
1	0	0	0	0	512	507	0	0	
2	0	0	0	0	515	508	0	0	
3	0	0	0	0	517	509	0	0	
4	0	0	0	0	517	509	0	0	
5	0	0	0	0	514	508	0	0	
6	0	0	0	0	511	507	0	0	
7	0	0	0	0	508	508	0	0	
8	0	0	0	0	512	508	0	0	
9	0	0	0	0	511	508	0	0	
10	0	0	0	0	515	509	0	0	
11	0	0	0	0	512	509	0	0	
12	0	0	0	0	508	507	0	0	
13	0	0	0	0	511	508	0	0	
14	0	0	0	0	515	508	0	0	
15	0	0	0	0	513	509	0	0	
0	0	0	0	0	509	509	0	0	
1	0	0	0	0	511	508	0	0	
2	0	0	0	0	508	505	0	0	
3	0	0	0	0	509	508	0	0	
4	0	0	0	0	510	508	0	0	
5	0	0	0	0	511	510	0	0	
6	0	0	0	0	510	508	0	0	
7	0	0	0	0	508	508	0	0	
8	0	0	0	0	511	507	0	0	
9	0	0	0	0	518	505	0	0	
10	0	0	0	0	513	508	0	0	
11	0	0	0	0	509	507	0	0	
12	0	0	0	0	513	508	0	0	
13	0	0	0	0	510	510	0	0	
14	0	0	0	0	511	508	0	0	
15	0	0	0	0	511	508	0	0	
0	0	0	0	0	511	508	0	0	
1	0	0	0	0	510	507	0	0	
2	0	0	0	0	510	510	0	0	
3	0	0	0	0	512	510	0	0	
4	0	0	0	0	513	508	0	0	
5	0	0	0	0	508	508	0	0	
6	0	0	0	0	508	508	0	0	
7	0	0	0	0	511	508	0	0	
8	0	0	0	0	513	510	0	0	
9	0	0	0	0	511	507	0	0	
10	0	0	0	0	511	507	0	0	
11	0	0	0	0	511	508	0	0	
12	0	0	0	0	511	508	0	0	
13	0	0	0	0	510	508	0	0	
14	0	0	0	0	511	508	0	0	
15	0	0	0	0	509	505	0	0	
0	0	0	0	0	515	507	0	0	
1	0	0	0	0	511	507	0	0	
2	0	0	0	0	511	508	0	0	
3	0	0	0	0	511	507	0	0	
4	0	0	0	0	509	508	0	0	
5	0	0	0	0	509	509	0	0	
6	0	0	0	0	511	509	0	0	
7	0	0	0	0	510	508	0	0	
8	0	0	0	0	512	510	0	0	
9	0	0	0	0	509	508	0	0	
10	0	0	0	0	511	512	0	0	
11	0	0	0	0	511	508	0	0	
12	0	0	0	0	508	507	0	0	
13	0	0	0	0	512	508	0	0	
14	0	0	0	0	508	507	0	0	
15	0	0	0	0	517	508	0	0	
0	0	0	0	0	520	509	0	0	
1	0	0	0	0	516	507	0	0	
2	0	0	0	0	519	508	0	0	
3	0	0	0	0	520	506	0	0	
4	0	0	0	0	519	510	0	0	
5	0	0	0	0	509	508	0	0	
6	0	0	0	0	489	511	0	0	
7	0	0	0	0	505	508	0	0	
8	0	0	0	0	511	508	0	0	
9	0	0	0	0	510	510	0	0	
10	0	0	0	0	497	509	0	0	
11	0	0	0	0	492	507	0	0	
12	0	0	0	0	510	510	0	0	
13	0	0	0	0	512	507	0	0	
14	0	0	0	0	511	508	0	0	
15	0	0	0	0	510	508	0	0	
0	0	0	0	0	519	504	0	0	
1	0	0	0	0	515	508	0	0	
2	0	0	0	0	512	508	0	0	
3	0	0	0	0	514	508	0	0	
4	0	0	0	0	513	511	0	0	
5	0	0	0	0	512	510	0	0	
6	0	0	0	0	507	508	0	0	
7	0	0	0	0	506	507	0	0	
8	0	0	0	0	511	508	0	0	
9	0	0	0	0	515	505	0	0	
10	0	0	0	0	512	508	0	0	
11	0	0	0	0	513	508	0	0	
12	0	0	0	0	515	505	0	0	
13	0	0	0	0	515	509	0	0	
14	0	0	0	0	523	510	0	0	
15	0	0	0	0	528	507	0	0	
0	0	0	0	0	518	507	0	0	
1	0	0	0	0	507	507	0	0	
2	0	0	0	0	504	509	0	0	
3	0	0	0	0	508	508	0	0	
4	0	0	0	0	509	509	0	0	
5	0	0	0	0	512	509	0	0	
6	0	0	0	0	512	507	0	0	
7	0	0	0	0	511	507	0	0	
8	0	0	0	0	510	507	0	0	
9	0	0	0	0	511	509	0	0	
10	0	0	0	0	508	508	0	0	
11	0	0	0	0	504	504	0	0	
12	0	0	0	0	509	508	0	0	
13	0	0	0	0	509	510	0	0	
14	0	0	0	0	511	507	0	0	
15	0	0	0	0	510	506	0	0	
0	0	0	0	0	509	508	0	0	
1	0	0	0	0	511	507	0	0	
2	0	0	0	0	514	507	0	0	
3	0	0	0	0	513	508	0	0	
4	0	0	0	0	508	507	0	0	
5	0	0	0	0	506	508	0	0	
6	0	0	0	0	509	508	0	0	
7	0	0	0	0	510	507	0	0	
8	0	0	0	0	510	507	0	0	
9	0	0	0	0	510	505	0	0	
10	0	0	0	0	509	506	0	0	
11	0	0	0	0	510	507	0	0	
12	0	0	0	0	509	509	0	0	
13	0	0	0	0	516	510	0	0	
14	0	0	0	0	518	512	0	0	
15	0	0	0	0	515	510	0	0	
0	0	0	0	0	515	508	0	0	
1	0	0	0	0	515	509	0	0	
2	0	0	0	0	512	507	0	0	
3	0	0	0	0	509	509	0	0	
4	0	0	0	0	485	509	0	0	
5	0	0	0	0	503	507	0	0	
6	0	0	0	0	508	508	0	0	
7	0	0	0	0	511	509	0	0	
8	0	0	0	0	516	507	0	0	
9	0	0	0	0	513	507	0	0	
10	0	0	0	0	510	507	0	0	
11	0	0	0	0	508	508	0	0	
12	0	0	0	0	512	507	0	0	
13	0	0	0	0	516	507	0	0	
14	0	0	0	0	518	508	0	0	
15	0	0	0	0	512	508	0	0	
0	0	0	0	0	505	510	0	0	
1	0	0	0	0	511	508	0	0	
2	0	0	0	0	512	508	0	0	
3	0	0	0	0	510	505	0	0	
4	0	0	0	0	512	509	0	0	
5	0	0	0	0	517	508	0	0	
6	0	0	0	0	518	507	0	0	
7	0	0	0	0	506	509	0	0	
8	0	0	0	0	508	509	0	0	
9	0	0	0	0	510	508	0	0	
10	0	0	0	0	509	506	0	0	
11	0	0	0	0	511	510	0	0	
12	0	0	0	0	511	509	0	0	
13	0	0	0	0	511	510	0	0	
14	0	0	0	0	509	510	0	0	
15	0	0	0	0	516	510	0	0	
0	0	0	0	0	518	505	0	0	
1	0	0	0	0	511	509	0	0	
2	0	0	0	0	510	505	0	0	
3	0	0	0	0	505	504	0	0	
4	0	0	0	0	505	507	0	0	
5	0	0	0	0	509	510	0	0	
6	0	0	0	0	505	509	0	0	
7	0	0	0	0	508	510	0	0	
8	0	0	0	0	510	509	0	0	
9	0	0	0	0	507	509	0	0	
10	0	0	0	0	523	510	0	0	
11	0	0	0	0	525	506	0	0	
12	0	0	0	0	523	511	0	0	
13	0	0	0	0	523	508	0	0	
14	0	0	0	0	515	507	0	0	
15	0	0	0	0	509	510	0	0	
0	0	0	0	0	507	508	0	0	
1	0	0	0	0	508	506	0	0	
2	0	0	0	0	503	508	0	0	
3	0	0	0	0	510	509	0	0	
4	0	0	0	0	527	512	0	0	
5	0	0	0	0	512	509	0	0	
6	0	0	0	0	496	512	0	0	
7	0	0	0	0	495	510	0	0	
8	0	0	0	0	507	507	0	0	
9	0	0	0	0	511	510	0	0	
10	0	0	0	0	509	507	0	0	
11	0	0	0	0	514	508	0	0	
12	0	0	0	0	512	508	0	0	
13	0	0	0	0	513	509	0	0	
14	0	0	0	0	512	511	0	0	
15	0	0	0	0	512	507	0	0	
0	0	0	0	0	513	508	0	0	
1	0	0	0	0	515	508	0	0	
2	0	0	0	0	517	508	0	0	
3	0	0	0	0	511	507	0	0	
4	0	0	0	0	511	510	0	0	
5	0	0	0	0	505	507	0	0	
6	0	0	0	0	508	508	0	0	
7	0	0	0	0	511	509	0	0	
8	0	0	0	0	511	508	0	0	
9	0	0	0	0	515	509	0	0	
10	0	0	0	0	509	507	0	0	
11	0	0	0	0	516	507	0	0	
12	0	0	0	0	519	507	0	0	
13	0	0	0	0	517	507	0	0	
14	0	0	0	0	515	508	0	0	
15	0	0	0	0	511	507	0	0	
0	0	0	0	0	510	508	0	0	
1	0	0	0	0	510	507	0	0	
2	0	0	0	0	511	507	0	0	
3	0	0	0	0	508	509	0	0	
4	0	0	0	0	508	506	0	0	
5	0	0	0	0	510	510	0	0	
6	0	0	0	0	513	509	0	0	
7	0	0	0	0	515	508	0	0	
8	0	0	0	0	520	508	0	0	
9	0	0	0	0	511	506	0	0	
10	0	0	0	0	496	507	0	0	
11	0	0	0	0	499	509	0	0	
12	0	0	0	0	507	507	0	0	
13	0	0	0	0	512	506	0	0	
14	0	0	0	0	513	506	0	0	
15	0	0	0	0	511	507	0	0	
0	0	0	0	0	512	506	0	0	
1	0	0	0	0	514	509	0	0	
2	0	0	0	0	509	509	0	0	
3	0	0	0	0	504	508	0	0	
4	0	0	0	0	504	508	0	0	
5	0	0	0	0	508	508	0	0	
6	0	0	0	0	513	509	0	0	
7	0	0	0	0	519	508	0	0	
8	0	0	0	0	511	508	0	0	
9	0	0	0	0	516	509	0	0	
10	0	0	0	0	523	508	0	0	
11	0	0	0	0	522	508	0	0	
12	0	0	0	0	515	508	0	0	
13	0	0	0	0	507	506	0	0	
14	0	0	0	0	509	508	0	0	
15	0	0	0	0	511	507	0	0	
0	0	0	0	0	513	507	0	0	
1	0	0	0	0	504	509	0	0	
2	0	0	0	0	489	509	0	0	
3	0	0	0	0	500	507	0	0	
4	0	0	0	0	505	508	0	0	
5	0	0	0	0	511	510	0	0	
6	0	0	0	0	507	509	0	0	
7	0	0	0	0	507	507	0	0	
8	0	0	0	0	512	508	0	0	
9	0	0	0	0	513	509	0	0	
10	0	0	0	0	515	508	0	0	
11	0	0	0	0	516	507	0	0	
12	0	0	0	0	519	508	0	0	
13	0	0	0	0	524	510	0	0	
14	0	0	0	0	527	509	0	0	
15	0	0	0	0	523	508	0	0	
0	0	0	0	0	519	506	0	0	
1	0	0	0	0	516	507	0	0	
2	0	0	0	0	504	507	0	0	
3	0	0	0	0	489	509	0	0	
4	0	0	0	0	495	510	0	0	
5	0	0	0	0	506	508	0	0	
6	0	0	0	0	510	507	0	0	
7	0	0	0	0	509	508	0	0	
8	0	0	0	0	512	509	0	0	
9	0	0	0	0	518	511	0	0	
10	0	0	0	0	521	507	0	0	
11	0	0	0	0	519	512	0	0	
12	0	0	0	0	513	508	0	0	
13	0	0	0	0	508	509	0	0	
14	0	0	0	0	511	508	0	0	
15	0	0	0	0	510	509	0	0	
0	0	0	0	0	509	506	0	0	
1	0	0	0	0	509	510	0	0	
2	0	0	0	0	509	510	0	0	
3	0	0	0	0	509	510	0	0	
4	0	0	0	0	511	508	0	0	
5	0	0	0	0	512	511	0	0	
6	0	0	0	0	507	508	0	0	
7	0	0	0	0	507	509	0	0	
8	0	0	0	0	513	508	0	0	
9	0	0	0	0	517	508	0	0	
10	0	0	0	0	513	508	0	0	
11	0	0	0	0	514	508	0	0	
12	0	0	0	0	513	506	0	0	
13	0	0	0	0	513	510	0	0	
14	0	0	0	0	516	506	0	0	
15	0	0	0	0	521	508	0	0	
0	0	0	0	0	520	508	0	0	
1	0	0	0	0	518	507	0	0	
2	0	0	0	0	507	509	0	0	
3	0	0	0	0	496	508	0	0	
4	0	0	0	0	508	510	0	0	
5	0	0	0	0	496	510	0	0	
6	0	0	0	0	489	510	0	0	
7	0	0	0	0	511	510	0	0	
8	0	0	0	0	519	507	0	0	
9	0	0	0	0	524	510	0	0	
10	0	0	0	0	519	508	0	0	
11	0	0	0	0	502	508	0	0	
12	0	0	0	0	503	510	0	0	
13	0	0	0	0	509	510	0	0	
14	0	0	0	0	511	509	0	0	
15	0	0	0	0	513	509	0	0	
0	0	0	0	0	514	508	0	0	
1	0	0	0	0	514	507	0	0	
2	0	0	0	0	511	508	0	0	
3	0	0	0	0	508	507	0	0	
4	0	0	0	0	509	508	0	0	
5	0	0	0	0	512	510	0	0	
6	0	0	0	0	515	506	0	0	
7	0	0	0	0	515	505	0	0	
8	0	0	0	0	514	505	0	0	
9	0	0	0	0	517	507	0	0	
10	0	0	0	0	519	508	0	0	
11	0	0	0	0	518	509	0	0	
12	0	0	0	0	510	507	0	0	
13	0	0	0	0	507	505	0	0	
14	0	0	0	0	506	508	0	0	
15	0	0	0	0	504	508	0	0	
0	0	0	0	0	504	508	0	0	
1	0	0	0	0	508	507	0	0	
2	0	0	0	0	511	506	0	0	
3	0	0	0	0	519	506	0	0	
4	0	0	0	0	531	507	0	0	
5	0	0	0	0	530	509	0	0	
6	0	0	0	0	516	511	0	0	
7	0	0	0	0	510	510	0	0	
8	0	0	0	0	503	509	0	0	
9	0	0	0	0	494	508	0	0	
10	0	0	0	0	486	509	0	0	
11	0	0	0	0	499	508	0	0	
12	0	0	0	0	501	507	0	0	
13	0	0	0	0	507	508	0	0	
14	0	0	0	0	514	506	0	0	
15	0	0	0	0	520	508	0	0	
0	0	0	0	0	523	508	0	0	
1	0	0	0	0	519	509	0	0	
2	0	0	0	0	527	506	0	0	
3	0	0	0	0	521	505	0	0	
4	0	0	0	0	523	507	0	0	
5	0	0	0	0	525	509	0	0	
6	0	0	0	0	521	507	0	0	
7	0	0	0	0	514	510	0	0	
8	0	0	0	0	508	508	0	0	
9	0	0	0	0	512	508	0	0	
10	0	0	0	0	511	508	0	0	
11	0	0	0	0	518	508	0	0	
12	0	0	0	0	518	509	0	0	
13	0	0	0	0	510	509	0	0	
14	0	0	0	0	504	506	0	0	
15	0	0	0	0	492	508	0	0	
0	0	0	0	0	462	509	0	0	
1	0	0	0	0	476	510	0	0	
2	0	0	0	0	497	511	0	0	
3	0	0	0	0	508	507	4	0	
4	0	0	0	0	506	508	10	0	
5	0	0	0	0	502	509	18	0	
6	0	0	0	0	520	505	16	0	
7	0	0	0	0	522	508	20	0	
8	0	0	0	0	511	507	19	0	
9	0	0	0	0	514	507	17	0	
10	0	0	0	0	524	505	18	0	
11	0	0	0	0	527	508	19	0	
12	0	0	0	0	520	508	18	0	
13	0	0	0	0	511	508	16	0	
14	0	0	0	0	510	509	15	0	
15	0	0	0	0	506	507	22	0	
0	0	0	0	0	508	509	21	0	
1	0	0	0	0	513	510	23	0	
2	0	0	0	0	511	510	24	0	
3	0	0	0	0	514	510	23	0	
4	0	0	0	0	510	506	22	0	
5	0	0	0	0	513	508	21	0	
6	0	0	0	0	510	509	21	0	
7	0	0	0	0	511	507	19	0	
8	0	0	0	0	514	509	20	0	
9	0	0	0	0	513	507	22	0	
10	0	0	0	0	513	510	21	0	
11	0	0	0	0	506	511	22	0	
12	0	0	0	0	492	505	26	0	
13	0	0	0	0	506	509	26	0	
14	0	0	0	0	516	508	25	0	
15	0	0	0	0	515	508	27	0	
0	0	0	0	0	515	508	26	0	
1	0	0	0	0	509	508	28	0	
2	0	0	0	0	513	511	28	0	
3	0	0	0	0	512	506	27	0	
4	0	0	0	0	515	509	29	0	
5	0	0	0	0	518	507	30	0	
6	0	0	0	0	515	507	31	0	
7	0	0	0	0	514	507	33	0	
8	0	0	0	0	510	509	33	0	
9	0	0	0	0	508	511	34	0	
10	0	0	0	0	512	509	33	0	
11	0	0	0	0	509	510	32	0	
12	0	0	0	0	508	512	32	0	
13	0	0	0	0	506	511	30	0	
14	0	0	0	0	514	509	31	0	
15	0	0	0	0	517	509	34	0	
0	0	0	0	0	514	508	33	0	
1	0	0	0	0	509	507	33	0	
2	0	0	0	0	510	509	34	0	
3	0	0	0	0	514	506	34	0	
4	0	0	0	0	515	505	36	0	
5	0	0	0	0	512	506	36	0	
6	0	0	0	0	520	508	34	0	
7	0	0	0	0	536	508	35	0	
8	0	0	0	0	549	508	34	0	
9	0	0	0	0	537	510	36	0	
10	0	0	0	0	490	508	38	0	
11	0	0	0	0	478	507	38	0	
12	0	0	0	0	476	506	38	0	
13	0	0	0	0	507	505	40	0	
14	0	0	0	0	496	509	39	0	
15	0	0	0	0	488	508	40	0	
0	0	0	0	0	495	510	42	0	
1	0	0	0	0	503	509	40	0	
2	0	0	0	0	511	508	41	0	
3	0	0	0	0	513	507	39	0	
4	0	0	0	0	514	508	40	0	
5	0	0	0	0	512	507	40	0	
6	0	0	0	0	512	507	42	0	
7	0	0	0	0	515	508	42	0	
8	0	0	0	0	518	506	41	0	
9	0	0	0	0	518	508	42	0	
10	0	0	0	0	518	510	42	0	
11	0	0	0	0	513	507	48	0	
12	0	0	0	0	514	508	49	0	
13	0	0	0	0	516	508	51	0	
14	0	0	0	0	516	508	56	0	
15	0	0	0	0	511	507	56	0	
0	0	0	0	0	506	509	56	0	
1	0	0	0	0	508	508	58	0	
2	0	0	0	0	511	508	57	0	
3	0	0	0	0	512	506	59	0	
4	0	0	0	0	511	507	59	0	
5	0	0	0	0	508	507	59	0	
6	0	0	0	0	510	507	58	0	
7	0	0	0	0	513	509	60	0	
8	0	0	0	0	513	510	60	0	
9	0	0	0	0	511	511	60	0	
10	0	0	0	0	512	508	59	0	
11	0	0	0	0	513	509	60	0	
12	0	0	0	0	512	508	57	0	
13	0	0	0	0	513	510	59	0	
14	0	0	0	0	510	509	59	0	
15	0	0	0	0	507	508	58	0	
0	0	0	0	0	508	505	59	0	
1	0	0	0	0	507	506	58	0	
2	0	0	0	0	507	509	58	0	
3	0	0	0	0	505	508	57	0	
4	0	0	0	0	502	507	57	0	
5	0	0	0	0	506	507	55	0	
6	0	0	0	0	512	509	56	0	
7	0	0	0	0	525	507	54	0	
8	0	0	0	0	522	505	55	0	
9	0	0	0	0	527	508	55	0	
10	0	0	0	0	530	507	55	0	
11	0	0	0	0	523	508	56	0	
12	0	0	0	0	512	507	56	0	
13	0	0	0	0	496	510	52	0	
14	0	0	0	0	494	509	52	0	
15	0	0	0	0	501	509	41	0	
0	0	0	0	0	505	510	43	0	
1	0	0	0	0	508	508	43	0	
2	0	0	0	0	508	507	43	0	
3	0	0	0	0	507	508	44	0	
4	0	0	0	0	508	508	44	0	
5	0	0	0	0	508	508	43	0	
6	0	0	0	0	514	509	44	0	
7	0	0	0	0	521	509	41	0	
8	0	0	0	0	523	509	43	0	
9	0	0	0	0	530	510	42	0	
10	0	0	0	0	513	510	41	0	
11	0	0	0	0	499	509	43	0	
12	0	0	0	0	508	509	43	0	
13	0	0	0	0	513	508	42	0	
14	0	0	0	0	517	507	45	0	
15	0	0	0	0	523	510	45	0	
0	0	0	0	0	520	507	44	0	
1	0	0	0	0	511	507	46	0	
2	0	0	0	0	499	507	47	0	
3	0	0	0	0	503	509	47	0	
4	0	0	0	0	500	511	46	0	
5	0	0	0	0	492	507	48	0	
6	0	0	0	0	504	511	50	0	
7	0	0	0	0	513	505	49	0	
8	0	0	0	0	523	508	50	0	
9	0	0	0	0	528	510	52	0	
10	0	0	0	0	521	508	52	0	
11	0	0	0	0	523	509	50	0	
12	0	0	0	0	511	507	56	0	
13	0	0	0	0	511	506	56	0	
14	0	0	0	0	511	507	59	0	
15	0	0	0	0	515	508	54	0	
0	0	0	0	0	515	513	58	0	
1	0	0	0	0	500	507	54	0	
2	0	0	0	0	494	509	56	0	
3	0	0	0	0	504	508	58	0	
4	0	0	0	0	513	509	62	0	
5	0	0	0	0	516	507	65	0	
6	0	0	0	0	503	507	65	0	
7	0	0	0	0	513	507	66	0	
8	0	0	0	0	518	508	63	0	
9	0	0	0	0	508	508	79	0	
10	0	0	0	0	504	508	80	0	
11	0	0	0	0	507	508	85	0	
12	0	0	0	0	511	509	86	0	
13	0	0	0	0	511	507	79	0	
14	0	0	0	0	514	508	79	0	
15	0	0	0	0	511	507	82	0	
0	0	0	0	0	511	507	83	0	
1	0	0	0	0	511	512	84	0	
2	0	0	0	0	513	511	82	0	
3	0	0	0	0	511	505	80	0	
4	0	0	0	0	511	508	78	0	
5	0	0	0	0	510	507	84	0	
6	0	0	0	0	508	508	83	0	
7	0	0	0	0	510	508	83	0	
8	0	0	0	0	512	507	80	0	
9	0	0	0	0	512	508	85	0	
10	0	0	0	0	511	506	80	0	
11	0	0	0	0	511	507	81	0	
12	0	0	0	0	512	507	80	0	
13	0	0	0	0	511	508	82	0	
14	0	0	0	0	511	510	84	0	
15	0	0	0	0	511	509	82	0	
0	0	0	0	0	512	508	75	0	
1	0	0	0	0	513	507	81	0	
2	0	0	0	0	510	509	77	0	
3	0	0	0	0	514	508	80	0	
4	0	0	0	0	509	508	79	0	
5	0	0	0	0	508	505	87	0	
6	0	0	0	0	507	510	88	0	
7	0	0	0	0	508	508	89	0	
8	0	0	0	0	511	508	90	0	
9	0	0	0	0	513	505	89	0	
10	0	0	0	0	518	509	90	0	
11	0	0	0	0	515	510	89	0	
12	0	0	0	0	514	508	90	0	
13	0	0	0	0	512	510	88	0	
14	0	0	0	0	509	508	88	0	
15	0	0	0	0	512	508	87	0	
0	0	0	0	0	512	510	87	0	
1	0	0	0	0	512	510	88	0	
2	0	0	0	0	509	508	87	0	
3	0	0	0	0	503	507	89	0	
4	0	0	0	0	504	510	87	0	
5	0	0	0	0	505	510	88	0	
6	0	0	0	0	509	508	89	0	
7	0	0	0	0	513	506	88	0	
8	0	0	0	0	517	506	88	0	
9	0	0	0	0	525	507	88	0	
10	0	0	0	0	528	508	87	0	
11	0	0	0	0	518	509	88	0	
12	0	0	0	0	505	508	87	0	
13	0	0	0	0	508	505	86	0	
14	0	0	0	0	504	509	88	0	
15	0	0	0	0	503	510	88	0	
0	0	0	0	0	490	507	89	0	
1	0	0	0	0	516	507	89	0	
2	0	0	0	0	524	508	88	0	
3	0	0	0	0	515	510	89	0	
4	0	0	0	0	503	510	89	0	
5	0	0	0	0	496	509	88	0	
6	0	0	0	0	504	509	88	0	
7	0	0	0	0	512	508	88	0	
8	0	0	0	0	514	508	85	0	
9	0	0	0	0	510	510	85	0	
10	0	0	0	0	511	508	85	0	
11	0	0	0	0	518	508	86	0	
12	0	0	0	0	516	505	87	0	
13	0	0	0	0	512	509	86	0	
14	0	0	0	0	513	510	86	0	
15	0	0	0	0	512	509	85	0	
0	0	0	0	0	511	508	86	0	
1	0	0	0	0	513	511	84	0	
2	0	0	0	0	513	508	85	0	
3	0	0	0	0	509	508	88	0	
4	0	0	0	0	510	506	86	0	
5	0	0	0	0	512	508	87	0	
6	0	0	0	0	503	507	75	0	
7	0	0	0	0	508	509	74	0	
8	0	0	0	0	510	508	74	0	
9	0	0	0	0	513	507	75	0	
10	0	0	0	0	523	508	73	0	
11	0	0	0	0	520	507	74	0	
12	0	0	0	0	523	508	72	0	
13	0	0	0	0	510	509	73	0	
14	0	0	0	0	505	506	73	0	
15	0	0	0	0	508	507	72	0	
0	0	0	0	0	500	507	71	0	
1	0	0	0	0	510	510	73	0	
2	0	0	0	0	512	510	73	0	
3	0	0	0	0	514	507	71	0	
4	0	0	0	0	508	510	73	0	
5	0	0	0	0	512	507	73	0	
6	0	0	0	0	512	509	74	0	
7	0	0	0	0	511	509	73	0	
8	0	0	0	0	512	508	73	0	
9	0	0	0	0	512	511	74	0	
10	0	0	0	0	511	507	73	0	
11	0	0	0	0	510	508	72	0	
12	0	0	0	0	516	508	73	0	
13	0	0	0	0	513	506	73	0	
14	0	0	0	0	516	510	72	0	
15	0	0	0	0	516	508	73	0	
0	0	0	0	0	521	509	72	0	
1	0	0	0	0	513	508	73	0	
2	0	0	0	0	502	509	72	0	
3	0	0	0	0	496	508	73	0	
4	0	0	0	0	492	508	73	0	
5	0	0	0	0	499	508	72	0	
6	0	0	0	0	508	507	73	0	
7	0	0	0	0	515	509	73	0	
8	0	0	0	0	512	505	74	0	
9	0	0	0	0	510	505	72	0	
10	0	0	0	0	508	508	74	0	
11	0	0	0	0	520	510	74	0	
12	0	0	0	0	526	509	74	0	
13	0	0	0	0	515	508	72	0	
14	0	0	0	0	515	507	73	0	
15	0	0	0	0	509	505	73	0	
0	0	0	0	0	514	508	72	0	
1	0	0	0	0	514	507	75	0	
2	0	0	0	0	515	508	75	0	
3	0	0	0	0	515	510	75	0	
4	0	0	0	0	512	508	74	0	
5	0	0	0	0	513	512	76	0	
6	0	0	0	0	515	507	73	0	
7	0	0	0	0	511	507	74	0	
8	0	0	0	0	509	505	73	0	
9	0	0	0	0	505	507	72	0	
10	0	0	0	0	506	508	72	0	
11	0	0	0	0	504	508	73	0	
12	0	0	0	0	511	508	72	0	
13	0	0	0	0	513	505	73	0	
14	0	0	0	0	516	505	72	0	
15	0	0	0	0	518	508	75	0	
0	0	0	0	0	511	513	74	0	
1	0	0	0	0	503	510	72	0	
2	0	0	0	0	502	507	73	0	
3	0	0	0	0	506	508	74	0	
4	0	0	0	0	511	505	72	0	
5	0	0	0	0	511	509	73	0	
6	0	0	0	0	515	508	72	0	
7	0	0	0	0	510	507	74	0	
8	0	0	0	0	510	509	73	0	
9	0	0	0	0	514	510	74	0	
10	0	0	0	0	510	510	76	0	
11	0	0	0	0	508	509	75	0	
12	0	0	0	0	507	505	75	0	
13	0	0	0	0	508	510	75	0	
14	0	0	0	0	506	508	74	0	
15	0	0	0	0	508	507	71	0	
0	0	0	0	0	510	508	75	0	
1	0	0	0	0	507	506	73	0	
2	0	0	0	0	515	506	72	0	
3	0	0	0	0	518	509	71	0	
4	0	0	0	0	519	509	71	0	
5	0	0	0	0	521	507	72	0	
6	0	0	0	0	519	507	72	0	
7	0	0	0	0	514	507	71	0	
8	0	0	0	0	505	511	72	0	
9	0	0	0	0	500	508	73	0	
10	0	0	0	0	502	508	73	0	
11	0	0	0	0	492	508	73	0	
12	0	0	0	0	508	509	74	0	
13	0	0	0	0	517	509	73	0	
14	0	0	0	0	519	509	74	0	
15	0	0	0	0	511	507	74	0	
0	0	0	0	0	511	510	74	0	
1	0	0	0	0	523	508	74	0	
2	0	0	0	0	527	506	74	0	
3	0	0	0	0	518	508	74	0	
4	0	0	0	0	510	508	75	0	
5	0	0	0	0	510	511	76	0	
6	0	0	0	0	496	511	75	0	
7	0	0	0	0	477	509	76	0	
8	0	0	0	0	508	508	76	0	
9	0	0	0	0	518	508	76	0	
10	0	0	0	0	513	508	77	0	
11	0	0	0	0	518	510	77	0	
12	0	0	0	0	515	511	76	0	
13	0	0	0	0	503	508	77	0	
14	0	0	0	0	502	510	79	0	
15	0	0	0	0	504	507	79	0	
0	0	0	0	0	509	508	79	0	
1	0	0	0	0	518	507	78	0	
2	0	0	0	0	517	506	78	0	
3	0	0	0	0	523	506	78	0	
4	0	0	0	0	532	504	78	0	
5	0	0	0	0	529	511	79	0	
6	0	0	0	0	519	508	77	0	
7	0	0	0	0	512	509	79	0	
8	0	0	0	0	509	507	76	0	
9	0	0	0	0	514	507	76	0	
10	0	0	0	0	515	508	77	0	
11	0	0	0	0	510	508	78	0	
12	0	0	0	0	502	508	77	0	
13	0	0	0	0	501	509	79	0	
14	0	0	0	0	497	505	79	0	
15	0	0	0	0	505	507	79	0	
0	0	0	0	0	509	510	78	0	
1	0	0	0	0	515	509	79	0	
2	0	0	0	0	521	508	79	0	
3	0	0	0	0	528	506	79	0	
4	0	0	0	0	518	505	79	0	
5	0	0	0	0	508	507	79	0	
6	0	0	0	0	497	510	81	0	
7	0	0	0	0	504	511	81	0	
8	0	0	0	0	513	508	81	0	
9	0	0	0	0	511	507	81	0	
10	0	0	0	0	510	509	81	0	
11	0	0	0	0	516	508	81	0	
12	0	0	0	0	516	507	81	0	
13	0	0	0	0	507	507	79	0	
14	0	0	0	0	495	508	80	0	
15	0	0	0	0	487	508	81	0	
0	0	0	0	0	491	507	81	0	
1	0	0	0	0	507	506	80	0	
2	0	0	0	0	523	505	79	0	
3	0	0	0	0	529	506	80	0	
4	0	0	0	0	508	508	81	0	
5	0	0	0	0	510	508	79	0	
6	0	0	0	0	513	510	80	0	
7	0	0	0	0	508	507	81	0	
8	0	0	0	0	507	509	81	0	
9	0	0	0	0	514	510	84	0	
10	0	0	0	0	520	510	84	0	
11	0	0	0	0	517	509	84	0	
12	0	0	0	0	516	507	83	0	
13	0	0	0	0	518	505	84	0	
14	0	0	0	0	508	508	84	0	
15	0	0	0	0	509	510	84	0	
0	0	0	0	0	511	510	84	0	
1	0	0	0	0	513	510	84	0	
2	0	0	0	0	511	510	83	0	
3	0	0	0	0	509	509	83	0	
4	0	0	0	0	509	509	84	0	
5	0	0	0	0	511	507	83	0	
6	0	0	0	0	511	507	82	0	
7	0	0	0	0	510	506	83	0	
8	0	0	0	0	512	508	82	0	
9	0	0	0	0	513	508	83	0	
10	0	0	0	0	513	510	80	0	
11	0	0	0	0	506	508	83	0	
12	0	0	0	0	510	508	82	0	
13	0	0	0	0	509	509	84	0	
14	0	0	0	0	511	510	84	0	
15	0	0	0	0	512	507	85	0	
0	0	0	0	0	514	509	83	0	
1	0	0	0	0	513	508	84	0	
2	0	0	0	0	512	508	84	0	
3	0	0	0	0	512	508	84	0	
4	0	0	0	0	511	508	83	0	
5	0	0	0	0	506	505	82	0	
6	0	0	0	0	511	507	81	0	
7	0	0	0	0	516	508	83	0	
8	0	0	0	0	518	508	82	0	
9	0	0	0	0	519	509	83	0	
10	0	0	0	0	515	507	83	0	
11	0	0	0	0	503	508	81	0	
12	0	0	0	0	487	509	81	0	
13	0	0	0	0	481	508	83	0	
14	0	0	0	0	508	508	81	0	
15	0	0	0	0	521	507	81	0	
0	0	0	0	0	519	510	83	0	
1	0	0	0	0	518	507	83	0	
2	0	0	0	0	516	510	83	0	
3	0	0	0	0	513	507	80	0	
4	0	0	0	0	512	507	80	0	
5	0	0	0	0	513	508	82	0	
6	0	0	0	0	510	509	81	0	
7	0	0	0	0	509	510	79	0	
8	0	0	0	0	508	506	79	0	
9	0	0	0	0	508	509	81	0	
10	0	0	0	0	510	510	84	0	
11	0	0	0	0	511	507	84	0	
12	0	0	0	0	513	510	80	0	
13	0	0	0	0	512	509	84	0	
14	0	0	0	0	516	509	81	0	
15	0	0	0	0	518	511	83	0	
0	0	0	0	0	514	508	83	0	
1	0	0	0	0	508	508	80	0	
2	0	0	0	0	511	508	83	0	
3	0	0	0	0	514	507	82	0	
4	0	0	0	0	519	507	83	0	
5	0	0	0	0	518	510	81	0	
6	0	0	0	0	515	509	84	0	
7	0	0	0	0	520	505	83	0	
8	0	0	0	0	512	504	82	0	
9	0	0	0	0	502	508	84	0	
10	0	0	0	0	496	512	84	0	
11	0	0	0	0	514	510	84	0	
12	0	0	0	0	520	511	83	0	
13	0	0	0	0	529	510	84	0	
14	0	0	0	0	519	511	84	0	
15	0	0	0	0	504	511	84	0	
0	0	0	0	0	479	509	85	0	
1	0	0	0	0	494	507	83	0	
2	0	0	0	0	505	510	86	0	
3	0	0	0	0	512	509	86	0	
4	0	0	0	0	533	511	86	0	
5	0	0	0	0	531	508	84	0	
6	0	0	0	0	501	512	83	0	
7	0	0	0	0	518	505	86	0	
8	0	0	0	0	519	502	85	0	
9	0	0	0	0	485	507	86	0	
10	0	0	0	0	497	498	86	0	
11	0	0	0	0	514	500	85	0	
12	0	0	0	0	515	505	85	0	
13	0	0	0	0	501	513	85	0	
14	0	0	0	0	517	512	86	0	
15	0	0	0	0	521	509	86	0	
0	0	0	0	0	515	510	85	0	
1	0	0	0	0	501	511	85	0	
2	0	0	0	0	501	510	86	0	
3	0	0	0	0	511	509	85	0	
4	0	0	0	0	515	507	86	0	
5	0	0	0	0	511	508	86	0	
6	0	0	0	0	510	507	86	0	
7	0	0	0	0	511	505	85	0	
8	0	0	0	0	512	507	85	0	
9	0	0	0	0	513	510	85	0	
10	0	0	0	0	514	507	85	0	
11	0	0	0	0	512	505	85	0	
12	0	0	0	0	510	508	85	0	
13	0	0	0	0	509	509	86	0	
14	0	0	0	0	513	508	85	0	
15	0	0	0	0	512	508	84	0	
0	0	0	0	0	509	505	84	0	
1	0	0	0	0	513	506	83	0	
2	0	0	0	0	513	507	83	0	
3	0	0	0	0	512	508	85	0	
4	0	0	0	0	511	508	85	0	
5	0	0	0	0	509	508	85	0	
6	0	0	0	0	508	507	85	0	
7	0	0	0	0	508	508	85	0	
8	0	0	0	0	512	510	85	0	
9	0	0	0	0	514	508	86	0	
10	0	0	0	0	516	508	85	0	
11	0	0	0	0	516	507	85	0	
12	0	0	0	0	513	506	85	0	
13	0	0	0	0	515	508	86	0	
14	0	0	0	0	512	507	86	0	
15	0	0	0	0	508	510	85	0	
0	0	0	0	0	503	510	85	0	
1	0	0	0	0	502	508	85	0	
2	0	0	0	0	508	508	85	0	
3	0	0	0	0	509	507	85	0	
4	0	0	0	0	512	507	86	0	
5	0	0	0	0	517	508	86	0	
6	0	0	0	0	521	507	85	0	
7	0	0	0	0	512	508	86	0	
8	0	0	0	0	509	509	84	0	
9	0	0	0	0	494	511	85	0	
10	0	0	0	0	505	510	85	0	
11	0	0	0	0	514	509	86	0	
12	0	0	0	0	521	508	85	0	
13	0	0	0	0	526	510	86	0	
14	0	0	0	0	512	510	85	0	
15	0	0	0	0	511	510	84	0	
0	0	0	0	0	513	508	85	0	
1	0	0	0	0	513	508	85	0	
2	0	0	0	0	502	507	85	0	
3	0	0	0	0	483	507	86	0	
4	0	0	0	0	507	505	84	0	
5	0	0	0	0	519	506	85	0	
6	0	0	0	0	514	505	85	0	
7	0	0	0	0	509	507	85	0	
8	0	0	0	0	502	510	82	0	
9	0	0	0	0	511	508	82	0	
10	0	0	0	0	515	510	82	0	
11	0	0	0	0	519	511	80	0	
12	0	0	0	0	516	508	81	0	
13	0	0	0	0	524	510	81	0	
14	0	0	0	0	523	509	83	0	
15	0	0	0	0	519	507	83	0	
0	0	0	0	0	525	508	83	0	
1	0	0	0	0	511	507	81	0	
2	0	0	0	0	507	507	82	0	
3	0	0	0	0	491	508	81	0	
4	0	0	0	0	491	508	82	0	
5	0	0	0	0	504	513	81	0	
6	0	0	0	0	497	511	80	0	
7	0	0	0	0	512	510	80	0	
8	0	0	0	0	505	510	80	0	
9	0	0	0	0	508	508	81	0	
10	0	0	0	0	515	506	81	0	
11	0	0	0	0	520	508	78	0	
12	0	0	0	0	509	507	81	0	
13	0	0	0	0	517	509	77	0	
14	0	0	0	0	514	510	76	0	
15	0	0	0	0	517	507	79	0	
0	0	0	0	0	520	509	74	0	
1	0	0	0	0	511	506	75	0	
2	0	0	0	0	509	507	76	0	
3	0	0	0	0	509	508	77	0	
4	0	0	0	0	513	508	76	0	
5	0	0	0	0	512	509	74	0	
6	0	0	0	0	512	509	72	0	
7	0	0	0	0	518	509	75	0	
8	0	0	0	0	519	505	73	0	
9	0	0	0	0	516	508	74	0	
10	0	0	0	0	516	508	76	0	
11	0	0	0	0	518	508	73	0	
12	0	0	0	0	516	506	77	0	
13	0	0	0	0	518	510	75	0	
14	0	0	0	0	515	510	76	0	
15	0	0	0	0	508	509	76	0	
0	0	0	0	0	504	508	75	0	
1	0	0	0	0	508	509	71	0	
2	0	0	0	0	507	507	71	0	
3	0	0	0	0	499	506	76	0	
4	0	0	0	0	504	508	74	0	
5	0	0	0	0	508	506	72	0	
6	0	0	0	0	507	507	71	0	
7	0	0	0	0	510	506	71	0	
8	0	0	0	0	512	508	70	0	
9	0	0	0	0	513	507	72	0	
10	0	0	0	0	508	506	73	0	
11	0	0	0	0	515	508	72	0	
12	0	0	0	0	512	508	72	0	
13	0	0	0	0	504	510	68	0	
14	0	0	0	0	508	510	71	0	
15	0	0	0	0	507	510	71	0	
0	0	0	0	0	510	514	73	0	
1	0	0	0	0	515	510	75	0	
2	0	0	0	0	521	509	75	0	
3	0	0	0	0	524	503	76	0	
4	0	0	0	0	518	500	73	0	
5	0	0	0	0	509	502	77	0	
6	0	0	0	0	478	500	71	0	
7	0	0	0	0	507	501	72	0	
8	0	0	0	0	517	506	70	0	
9	0	0	0	0	506	514	70	0	
10	0	0	0	0	500	511	72	0	
11	0	0	0	0	512	512	70	0	
12	0	0	0	0	515	510	64	0	
13	0	0	0	0	512	511	68	0	
14	0	0	0	0	511	510	66	0	
15	0	0	0	0	503	507	64	0	
0	0	0	0	0	509	512	47	0	
1	0	0	0	0	523	508	46	0	
2	0	0	0	0	534	508	44	0	
3	0	0	0	0	529	506	42	0	
4	0	0	0	0	509	506	43	0	
5	0	0	0	0	504	505	41	0	
6	0	0	0	0	492	508	41	0	
7	0	0	0	0	495	512	39	0	
8	0	0	0	0	513	512	39	0	
9	0	0	0	0	523	511	37	0	
10	0	0	0	0	528	513	37	0	
11	0	0	0	0	507	511	37	0	
12	0	0	0	0	493	502	35	0	
13	0	0	0	0	499	499	32	0	
14	0	0	0	0	508	505	31	0	
15	0	0	0	0	512	510	28	0	
0	0	0	0	0	514	514	30	0	
1	0	0	0	0	516	510	27	0	
2	0	0	0	0	515	506	26	0	
3	0	0	0	0	517	504	25	0	
4	0	0	0	0	517	504	25	0	
5	0	0	0	0	523	500	24	0	
6	0	0	0	0	534	496	28	0	
7	0	0	0	0	490	497	29	0	
8	0	0	0	0	491	502	29	0	
9	0	0	0	0	503	512	28	0	
10	0	0	0	0	506	514	28	0	
11	0	0	0	0	516	512	27	0	
12	0	0	0	0	522	512	24	0	
13	0	0	0	0	529	510	21	0	
14	0	0	0	0	514	507	23	0	
15	0	0	0	0	493	510	19	0	
0	0	0	0	0	492	510	21	0	
1	0	0	0	0	513	512	20	0	
2	0	0	0	0	529	512	22	0	
3	0	0	0	0	529	513	21	0	
4	0	0	0	0	511	514	22	0	
5	0	0	0	0	496	515	22	0	
6	0	0	0	0	501	513	23	0	
7	0	0	0	0	511	513	22	0	
8	0	0	0	0	519	511	20	0	
9	0	0	0	0	513	508	18	0	
10	0	0	0	0	502	500	15	0	
11	0	0	0	0	517	499	25	0	
12	0	0	0	0	529	496	21	0	
13	0	0	0	0	491	492	22	0	
14	0	0	0	0	492	502	17	0	
15	0	0	0	0	504	512	20	0	
0	0	0	0	0	518	515	21	0	
1	0	0	0	0	520	513	10	0	
2	0	0	0	0	527	513	12	0	
3	0	0	0	0	523	516	14	0	
4	0	0	0	0	518	517	12	0	
5	0	0	0	0	509	514	0	0	
6	0	0	0	0	512	508	0	0	
7	0	0	0	0	508	504	0	0	
8	0	0	0	0	497	497	0	0	
9	0	0	0	0	490	492	0	0	
10	0	0	0	0	490	497	0	0	
11	0	0	0	0	535	504	0	0	
12	0	0	0	0	540	519	0	0	
13	0	0	0	0	526	521	0	0	
14	0	0	0	0	530	525	0	0	
15	0	0	0	0	540	521	0	0	
0	0	0	0	0	535	519	0	0	
1	0	0	0	0	523	508	0	0	
2	0	0	0	0	510	508	0	0	
3	0	0	0	0	497	493	0	0	
4	0	0	0	0	488	480	0	0	
5	0	0	0	0	471	486	0	0	
6	0	0	0	0	450	500	0	0	
7	0	0	0	0	466	512	0	0	
8	0	0	0	0	499	520	0	0	
9	0	0	0	0	531	522	0	0	
10	0	0	0	0	543	521	0	0	
11	0	0	0	0	524	519	0	0	
12	0	0	0	0	567	518	0	0	
13	0	0	0	0	556	519	0	0	
14	0	0	0	0	487	508	0	0	
15	0	0	0	0	485	506	0	0	
0	0	0	0	0	520	498	0	0	
1	0	0	0	0	538	491	0	0	
2	0	0	0	0	539	488	0	0	
3	0	0	0	0	522	498	0	0	
4	0	0	0	0	503	503	0	0	
5	0	0	0	0	510	498	0	0	
6	0	0	0	0	529	503	0	0	
7	0	0	0	0	507	531	0	0	
8	0	0	0	0	483	546	0	0	
9	0	0	0	0	490	529	0	0	
10	0	0	0	0	501	513	0	0	
11	0	0	0	0	515	506	0	0	
12	0	0	0	0	456	491	9	0	
13	0	0	0	0	463	465	10	0	
14	0	0	0	0	513	460	16	0	
15	0	0	0	0	491	484	16	0	
0	0	0	0	0	469	511	15	0	
1	0	0	0	0	483	522	15	0	
2	0	0	0	0	491	549	16	0	
3	0	0	0	0	496	554	16	0	
4	0	0	0	0	541	540	15	0	
5	0	0	0	0	586	508	16	0	
6	0	0	0	0	549	487	0	0	
7	0	0	0	0	525	474	0	0	
8	0	0	0	0	508	483	0	0	
9	0	0	0	0	512	497	0	0	
10	0	0	0	0	522	503	0	0	
11	0	0	0	0	492	511	0	0	
12	0	0	0	0	465	515	0	0	
13	0	0	0	0	534	507	0	0	
14	0	0	0	0	559	517	0	0	
15	0	0	0	0	623	523	0	0	
0	0	0	0	0	608	520	0	0	
1	0	0	0	0	558	513	0	0	
2	0	0	0	0	503	507	0	0	
3	0	0	0	0	477	502	0	0	
4	0	0	0	0	436	504	0	0	
5	0	0	0	0	445	500	0	0	
6	0	0	0	0	424	511	0	0	
7	0	0	0	0	392	515	0	0	
8	0	0	0	0	471	521	0	0	
9	0	0	0	0	499	519	0	0	
10	0	0	0	0	529	508	0	0	
11	0	0	0	0	533	502	0	0	
12	0	0	0	0	604	501	0	0	
13	0	0	0	0	479	489	0	0	
14	0	0	0	0	525	485	0	0	
15	0	0	0	0	422	499	0	0	
0	0	0	0	0	467	490	0	0	
1	0	0	0	0	524	476	0	0	
2	0	0	0	0	646	503	0	0	
3	0	0	0	0	669	528	0	0	
4	0	0	0	0	450	540	0	0	
5	0	0	0	0	507	529	0	0	
6	0	0	0	0	605	540	0	0	
7	0	0	0	0	654	521	0	0	
8	0	0	0	0	531	487	0	0	
9	0	0	0	0	385	502	0	0	
10	0	0	0	0	492	529	0	0	
11	0	0	0	0	466	524	0	0	
12	0	0	0	0	469	513	0	0	
13	0	0	0	0	467	525	0	0	
14	0	0	0	0	459	509	0	0	
15	0	0	0	0	421	488	0	0	
0	0	0	0	0	457	479	0	0	
1	0	0	0	0	518	480	0	0	
2	0	0	0	0	517	492	0	0	
3	0	0	0	0	525	521	0	0	
4	0	0	0	0	468	548	0	0	
5	0	0	0	0	504	542	0	0	
6	0	0	0	0	532	524	0	0	
7	0	0	0	0	545	502	0	0	
8	0	0	0	0	544	494	0	0	
9	0	0	0	0	529	483	0	0	
10	0	0	0	0	589	487	0	0	
11	0	0	0	0	596	504	0	0	
12	0	0	0	0	606	511	0	0	
13	0	0	0	0	571	521	0	0	
14	0	0	0	0	398	511	0	0	
15	0	0	0	0	279	503	0	0	
0	0	0	0	0	460	477	0	0	
1	0	0	0	0	604	502	0	0	
2	0	0	0	0	526	492	0	0	
3	0	0	0	0	511	507	0	0	
4	0	0	0	0	513	507	0	0	
5	0	0	0	0	488	515	0	0	
6	0	0	0	0	539	524	0	0	
7	0	0	0	0	492	521	0	0	
8	0	0	0	0	527	510	0	0	
9	0	0	0	0	465	516	0	0	
10	0	0	0	0	473	524	0	0	
11	0	0	0	0	521	511	0	0	
12	0	0	0	0	554	494	0	0	
13	0	0	0	0	606	486	0	0	
14	0	0	0	0	545	491	0	0	
15	0	0	0	0	533	543	0	0	
0	0	0	0	0	536	539	0	0	
1	0	0	0	0	573	522	0	0	
2	0	0	0	0	560	531	0	0	
3	0	0	0	0	547	520	15	0	
4	0	0	0	0	617	493	23	0	
5	0	0	0	0	464	463	26	0	
6	0	0	0	0	368	456	28	0	
7	0	0	0	0	435	500	31	0	
8	0	0	0	0	519	544	31	0	
9	0	0	0	0	581	552	36	0	
10	0	0	0	0	646	547	38	0	
11	0	0	0	0	464	521	41	0	
12	0	0	0	0	311	508	40	0	
13	0	0	0	0	397	494	39	0	
14	0	0	0	0	409	477	51	0	
15	0	0	0	0	495	473	43	0	
0	0	0	0	0	516	501	50	0	
1	0	0	0	0	555	476	49	0	
2	0	0	0	0	565	459	55	0	
3	0	0	0	0	525	486	54	0	
4	0	0	0	0	566	507	54	0	
5	0	0	0	0	491	524	48	0	
6	0	0	0	0	480	504	49	0	
7	0	0	0	0	493	502	52	0	
8	0	0	0	0	498	531	54	0	
9	0	0	0	0	509	543	55	0	
10	0	0	0	0	504	534	59	0	
11	0	0	0	0	553	547	60	0	
12	0	0	0	0	612	540	63	0	
13	0	0	0	0	551	519	64	0	
14	0	0	0	0	522	518	67	0	
15	0	0	0	0	480	515	72	0	
0	0	0	0	0	362	493	75	0	
1	0	0	0	0	508	526	76	0	
2	0	0	0	0	616	544	76	0	
3	0	0	0	0	606	528	76	0	
4	0	0	0	0	489	505	78	0	
5	0	0	0	0	373	439	81	0	
6	0	0	0	0	323	407	80	0	
7	0	0	0	0	432	513	86	0	
8	0	0	0	0	611	572	86	0	
9	0	0	0	0	796	537	88	0	
10	0	0	0	0	691	556	84	0	
11	0	0	0	0	480	509	84	0	
12	0	0	0	0	396	498	85	0	
13	0	0	0	0	383	540	86	0	
14	0	0	0	0	487	496	86	0	
15	0	0	0	0	532	454	87	0	
0	0	0	0	0	529	464	89	0	
1	0	0	0	0	516	451	89	0	
2	0	0	0	0	487	429	87	0	
3	0	0	0	0	493	388	89	0	
4	0	0	0	0	484	470	88	0	
5	0	0	0	0	541	526	88	0	
6	0	0	0	0	552	567	86	0	
7	0	0	0	0	527	574	88	0	
8	0	0	0	0	501	544	86	0	
9	0	0	0	0	414	561	89	0	
10	0	0	0	0	414	543	88	0	
11	0	0	0	0	566	502	84	0	
12	0	0	0	0	639	500	83	0	
13	0	0	0	0	579	505	84	0	
14	0	0	0	0	463	534	83	0	
15	0	0	0	0	473	532	82	0	
0	0	0	0	0	505	538	82	0	
1	0	0	0	0	557	515	83	0	
2	0	0	0	0	595	488	84	0	
3	0	0	0	0	489	476	83	0	
4	0	0	0	0	478	504	83	0	
5	0	0	0	0	485	531	80	0	
6	0	0	0	0	553	532	79	0	
7	0	0	0	0	503	514	76	0	
8	0	0	0	0	484	488	79	0	
9	0	0	0	0	466	477	79	0	
10	0	0	0	0	437	476	76	0	
11	0	0	0	0	437	500	68	0	
12	0	0	0	0	419	513	69	0	
13	0	0	0	0	500	496	70	0	
14	0	0	0	0	522	505	68	0	
15	0	0	0	0	553	521	68	0	
0	0	0	0	0	511	536	69	0	
1	0	0	0	0	572	536	70	0	
2	0	0	0	0	609	520	72	0	
3	0	0	0	0	519	473	69	0	
4	0	0	0	0	572	490	74	0	
5	0	0	0	0	567	522	73	0	
6	0	0	0	0	532	534	72	0	
7	0	0	0	0	532	497	72	0	
8	0	0	0	0	487	507	73	0	
9	0	0	0	0	521	508	75	0	
10	0	0	0	0	463	497	76	0	
11	0	0	0	0	474	505	79	0	
12	0	0	0	0	531	511	85	0	
13	0	0	0	0	550	536	89	0	
14	0	0	0	0	566	519	92	0	
15	0	0	0	0	563	501	90	0	
0	0	0	0	0	531	509	97	0	
1	0	0	0	0	537	497	100	0	
2	0	0	0	0	528	501	101	0	
3	0	0	0	0	483	495	105	0	
4	0	0	0	0	423	526	107	1	
5	0	0	0	0	470	518	110	0	
6	0	0	0	0	512	524	113	0	
7	0	0	0	0	477	522	113	0	
8	0	0	0	0	475	525	120	0	
9	0	0	0	0	483	484	122	0	
10	0	0	0	0	473	488	126	0	
11	0	0	0	0	528	529	126	0	
12	0	0	0	0	529	547	131	0	
13	0	0	0	0	504	546	131	0	
14	0	0	0	0	480	527	136	0	
15	0	0	0	0	450	487	138	0	
0	0	0	0	0	481	491	142	0	
1	0	0	0	0	496	496	145	0	
2	0	0	0	0	487	472	152	0	
3	0	0	0	0	567	446	154	0	
4	0	0	0	0	689	476	159	0	
5	0	0	0	0	659	510	162	0	
6	0	0	0	0	508	510	165	0	
7	0	0	0	0	377	491	162	0	
8	0	0	0	0	408	510	163	0	
9	0	0	0	0	525	523	167	0	
10	0	0	0	0	559	507	167	0	
11	0	0	0	0	598	503	167	0	
12	0	0	0	0	585	500	167	0	
13	0	0	0	0	509	507	166	0	
14	0	0	0	0	453	526	170	0	
15	0	0	0	0	403	521	176	0	
0	0	0	0	0	428	519	177	0	
1	0	0	0	0	526	472	180	0	
2	0	0	0	0	499	478	184	0	
3	0	0	0	0	516	495	185	0	
4	0	0	0	0	474	519	186	0	
5	0	0	0	0	502	547	188	0	
6	0	0	0	0	651	517	189	0	
7	0	0	0	0	688	507	191	0	
8	0	0	0	0	529	543	192	0	
9	0	0	0	0	414	521	191	0	
10	0	0	0	0	356	499	191	0	
11	0	0	0	0	365	519	195	0	
12	0	0	0	0	450	519	194	0	
13	0	0	0	0	525	500	193	0	
14	0	0	0	0	511	490	196	0	
15	0	0	0	0	521	504	195	0	
0	0	0	0	0	513	527	196	0	
1	0	0	0	0	492	543	198	0	
2	0	0	0	0	556	520	198	0	
3	0	0	0	0	549	497	200	0	
4	0	0	0	0	414	474	202	0	
5	0	0	0	0	467	449	202	0	
6	0	0	0	0	565	475	202	0	
7	0	0	0	0	571	540	201	0	
8	0	0	0	0	558	543	204	0	
9	0	0	0	0	566	517	202	0	
10	0	0	0	0	576	514	204	0	
11	0	0	0	0	633	518	204	0	
12	0	0	0	0	624	500	205	0	
13	0	0	0	0	647	508	210	0	
14	0	0	0	0	511	505	211	0	
15	0	0	0	0	361	519	211	0	
0	0	0	0	0	382	528	213	0	
1	0	0	0	0	420	516	214	0	
2	0	0	0	0	492	491	212	0	
3	0	0	0	0	472	473	211	0	
4	0	0	0	0	486	495	211	0	
5	0	0	0	0	521	501	211	0	
6	0	0	0	0	512	504	212	0	
7	0	0	0	0	538	524	209	0	
8	0	0	0	0	560	538	206	0	
9	0	0	0	0	595	524	204	0	
10	0	0	0	0	571	504	208	0	
11	0	0	0	0	510	494	210	0	
12	0	0	0	0	492	501	210	0	
13	0	0	0	0	455	504	210	0	
14	0	0	0	0	428	517	204	0	
15	0	0	0	0	439	535	206	0	
0	0	0	0	0	487	517	207	0	
1	0	0	0	0	563	504	205	0	
2	0	0	0	0	601	492	205	0	
3	0	0	0	0	545	515	206	0	
4	0	0	0	0	492	543	206	0	
5	0	0	0	0	480	505	205	0	
6	0	0	0	0	490	484	204	0	
7	0	0	0	0	487	459	205	0	
8	0	0	0	0	476	480	206	0	
9	0	0	0	0	489	536	207	0	
10	0	0	0	0	448	551	209	0	
11	0	0	0	0	539	543	209	0	
12	0	0	0	0	524	532	212	0	
13	0	0	0	0	543	492	212	0	
14	0	0	0	0	540	497	213	0	
15	0	0	0	0	580	493	214	0	
0	0	0	0	0	586	495	217	0	
1	0	0	0	0	600	493	216	0	
2	0	0	0	0	567	502	217	0	
3	0	0	0	0	428	487	216	0	
4	0	0	0	0	375	473	216	0	
5	0	0	0	0	468	490	216	0	
6	0	0	0	0	559	532	218	0	
7	0	0	0	0	487	524	220	0	
8	0	0	0	0	404	527	220	0	
9	0	0	0	0	449	533	221	0	
10	0	0	0	0	542	555	222	0	
11	0	0	0	0	597	544	225	0	
12	0	0	0	0	644	492	223	0	
13	0	0	0	0	615	463	224	0	
14	0	0	0	0	477	483	227	0	
15	0	0	0	0	398	491	228	0	
0	0	0	0	0	388	492	228	0	
1	0	0	0	0	502	508	230	0	
2	0	0	0	0	579	540	229	0	
3	0	0	0	0	525	540	231	0	
4	0	0	0	0	489	513	233	0	
5	0	0	0	0	517	479	235	0	
6	0	0	0	0	494	495	237	0	
7	0	0	0	0	465	491	237	0	
8	0	0	0	0	499	489	237	0	
9	0	0	0	0	519	512	237	0	
10	0	0	0	0	502	508	238	0	
11	0	0	0	0	449	508	237	0	
12	0	0	0	0	442	515	238	0	
13	0	0	0	0	523	514	238	0	
14	0	0	0	0	565	506	237	0	
15	0	0	0	0	586	498	238	0	
0	0	0	0	0	598	503	240	0	
1	0	0	0	0	602	518	241	0	
2	0	0	0	0	502	535	239	0	
3	0	0	0	0	464	524	240	0	
4	0	0	0	0	443	527	239	0	
5	0	0	0	0	465	513	240	0	
6	0	0	0	0	497	511	241	0	
7	0	0	0	0	541	499	240	0	
8	0	0	0	0	567	479	240	0	
9	0	0	0	0	528	486	241	0	
10	0	0	0	0	483	508	242	0	
11	0	0	0	0	569	498	243	0	
12	0	0	0	0	543	519	243	0	
13	0	0	0	0	505	528	243	0	
14	0	0	0	0	518	531	241	0	
15	0	0	0	0	506	514	242	0	
0	0	0	0	0	540	497	243	0	
1	0	0	0	0	488	513	242	0	
2	0	0	0	0	496	511	241	0	
3	0	0	0	0	461	500	241	0	
4	0	0	0	0	491	523	241	0	
5	0	0	0	0	515	519	241	0	
6	0	0	0	0	577	497	242	0	
7	0	0	0	0	598	505	242	0	
8	0	0	0	0	600	497	242	0	
9	0	0	0	0	540	472	243	0	
10	0	0	0	0	449	501	241	0	
11	0	0	0	0	431	512	243	0	
12	0	0	0	0	467	511	241	0	
13	0	0	0	0	404	508	242	0	
14	0	0	0	0	463	512	243	0	
15	0	0	0	0	518	512	243	0	
0	0	0	0	0	522	516	244	0	
1	0	0	0	0	472	535	246	0	
2	0	0	0	0	499	502	246	0	
3	0	0	0	0	522	496	244	0	
4	0	0	0	0	527	489	243	0	
5	0	0	0	0	518	491	243	0	
6	0	0	0	0	454	514	244	0	
7	0	0	0	0	514	524	243	0	
8	0	0	0	0	579	537	244	0	
9	0	0	0	0	553	548	243	0	
10	0	0	0	0	486	532	241	0	
11	0	0	0	0	515	494	240	0	
12	0	0	0	0	545	473	240	0	
13	0	0	0	0	545	514	241	0	
14	0	0	0	0	495	519	241	0	
15	0	0	0	0	495	488	241	0	
0	0	0	0	0	463	459	240	0	
1	0	0	0	0	413	478	241	0	
2	0	0	0	0	498	515	240	0	
3	0	0	0	0	579	515	240	0	
4	0	0	0	0	580	516	240	0	
5	0	0	0	0	583	517	239	0	
6	0	0	0	0	580	519	239	0	
7	0	0	0	0	535	526	240	0	
8	0	0	0	0	502	501	241	0	
9	0	0	0	0	409	519	242	0	
10	0	0	0	0	414	514	242	0	
11	0	0	0	0	478	496	243	0	
12	0	0	0	0	572	473	244	0	
13	0	0	0	0	532	521	246	0	
14	0	0	0	0	485	539	246	0	
15	0	0	0	0	518	508	245	0	
0	0	0	0	0	532	530	244	0	
1	0	0	0	0	468	555	245	0	
2	0	0	0	0	412	526	245	0	
3	0	0	0	0	441	476	245	0	
4	0	0	0	0	536	462	246	0	
5	0	0	0	0	592	437	247	0	
6	0	0	0	0	593	438	248	0	
7	0	0	0	0	541	477	248	0	
8	0	0	0	0	596	524	249	0	
9	0	0	0	0	577	531	251	0	
10	0	0	0	0	459	542	252	0	
11	0	0	0	0	381	532	253	0	
12	0	0	0	0	409	538	253	0	
13	0	0	0	0	487	529	252	0	
14	0	0	0	0	499	524	254	0	
15	0	0	0	0	530	522	255	0	
0	0	0	0	0	608	503	255	0	
1	0	0	0	0	607	506	256	0	
2	0	0	0	0	616	492	256	0	
3	0	0	0	0	552	492	256	0	
4	0	0	0	0	475	521	255	0	
5	0	0	0	0	415	526	255	0	
6	0	0	0	0	434	526	256	0	
7	0	0	0	0	504	508	255	0	
8	0	0	0	0	527	499	255	0	
9	0	0	0	0	545	493	255	0	
10	0	0	0	0	560	495	255	0	
11	0	0	0	0	550	505	255	0	
12	0	0	0	0	529	537	254	0	
13	0	0	0	0	541	528	254	0	
14	0	0	0	0	536	534	255	0	
15	0	0	0	0	392	520	255	0	
0	0	0	0	0	409	484	255	0	
1	0	0	0	0	534	445	255	0	
2	0	0	0	0	541	463	255	0	
3	0	0	0	0	528	494	254	0	
4	0	0	0	0	492	521	254	0	
5	0	0	0	0	545	509	252	0	
6	0	0	0	0	526	510	252	0	
7	0	0	0	0	475	514	252	0	
8	0	0	0	0	398	548	249	0	
9	0	0	0	0	440	529	250	0	
10	0	0	0	0	547	521	249	0	
11	0	0	0	0	556	504	249	0	
12	0	0	0	0	536	483	249	0	
13	0	0	0	0	544	498	248	0	
14	0	0	0	0	546	481	249	0	
15	0	0	0	0	563	495	249	0	
0	0	0	0	0	503	566	249	0	
1	0	0	0	0	423	552	249	0	
2	0	0	0	0	498	513	249	0	
3	0	0	0	0	548	485	251	0	
4	0	0	0	0	571	492	248	0	
5	0	0	0	0	522	510	249	0	
6	0	0	0	0	484	521	250	0	
7	0	0	0	0	485	498	249	0	
8	0	0	0	0	488	498	249	0	
9	0	0	0	0	524	501	249	0	
10	0	0	0	0	535	494	249	0	
11	0	0	0	0	552	521	252	0	
12	0	0	0	0	549	553	252	0	
13	0	0	0	0	505	548	252	0	
14	0	0	0	0	472	529	252	0	
15	0	0	0	0	438	499	253	0	
0	0	0	0	0	403	487	251	0	
1	0	0	0	0	515	451	252	0	
2	0	0	0	0	515	465	252	0	
3	0	0	0	0	460	494	254	0	
4	0	0	0	0	497	500	254	0	
5	0	0	0	0	517	484	255	0	
6	0	0	0	0	496	498	256	0	
7	0	0	0	0	462	530	257	0	
8	0	0	0	0	513	519	256	0	
9	0	0	0	0	578	496	258	0	
10	0	0	0	0	588	503	259	0	
11	0	0	0	0	555	514	258	0	
12	0	0	0	0	502	510	260	0	
13	0	0	0	0	501	521	259	0	
14	0	0	0	0	500	525	259	0	
15	0	0	0	0	564	525	259	0	
0	0	0	0	0	596	523	260	0	
1	0	0	0	0	547	505	259	0	
2	0	0	0	0	460	508	259	0	
3	0	0	0	0	474	520	261	0	
4	0	0	0	0	503	502	260	0	
5	0	0	0	0	582	504	258	0	
6	0	0	0	0	539	509	260	0	
7	0	0	0	0	439	508	259	0	
8	0	0	0	0	403	513	257	0	
9	0	0	0	0	508	509	259	0	
10	0	0	0	0	555	505	259	0	
11	0	0	0	0	548	484	260	0	
12	0	0	0	0	583	504	258	0	
13	0	0	0	0	551	515	259	0	
14	0	0	0	0	454	525	258	0	
15	0	0	0	0	427	523	261	0	
0	0	0	0	0	417	505	261	0	
1	0	0	0	0	457	516	258	0	
2	0	0	0	0	489	517	257	0	
3	0	0	0	0	591	535	258	0	
4	0	0	0	0	670	501	259	0	
5	0	0	0	0	600	492	256	0	
6	0	0	0	0	468	484	256	0	
7	0	0	0	0	451	475	255	0	
8	0	0	0	0	472	509	253	0	
9	0	0	0	0	452	529	253	0	
10	0	0	0	0	447	518	254	0	
11	0	0	0	0	493	508	254	0	
12	0	0	0	0	527	509	252	0	
13	0	0	0	0	558	506	250	0	
14	0	0	0	0	593	501	250	0	
15	0	0	0	0	568	505	246	0	
0	0	0	0	0	550	512	247	0	
1	0	0	0	0	544	499	245	0	
2	0	0	0	0	481	488	244	0	
3	0	0	0	0	498	539	243	0	
4	0	0	0	0	490	531	242	0	
5	0	0	0	0	496	515	242	0	
6	0	0	0	0	448	512	239	0	
7	0	0	0	0	489	519	240	0	
8	0	0	0	0	574	527	240	0	
9	0	0	0	0	608	539	239	0	
10	0	0	0	0	552	552	238	1	
11	0	0	0	0	438	522	238	0	
12	0	0	0	0	461	446	236	0	
13	0	0	0	0	545	403	235	0	
14	0	0	0	0	542	452	238	0	
15	0	0	0	0	421	508	235	0	
0	0	0	0	0	352	494	235	0	
1	0	0	0	0	491	516	234	0	
2	0	0	0	0	524	534	231	0	
3	0	0	0	0	542	522	231	0	
4	0	0	0	0	506	519	228	0	
5	0	0	0	0	541	528	229	0	
6	0	0	0	0	557	515	229	0	
7	0	0	0	0	555	511	229	0	
8	0	0	0	0	545	532	230	0	
9	0	0	0	0	489	521	230	0	
10	0	0	0	0	547	503	227	0	
11	0	0	0	0	534	509	227	0	
12	0	0	0	0	518	520	226	0	
13	0	0	0	0	470	487	226	0	
14	0	0	0	0	525	465	224	0	
15	0	0	0	0	513	493	223	0	
0	0	0	0	0	382	509	222	0	
1	0	0	0	0	398	529	220	0	
2	0	0	0	0	461	520	219	0	
3	0	0	0	0	443	514	217	0	
4	0	0	0	0	537	507	213	0	
5	0	0	0	0	601	496	214	0	
6	0	0	0	0	609	504	214	0	
7	0	0	0	0	569	523	213	0	
8	0	0	0	0	557	516	213	0	
9	0	0	0	0	530	499	214	0	
10	0	0	0	0	515	509	215	0	
11	0	0	0	0	530	520	215	0	
12	0	0	0	0	580	504	214	0	
13	0	0	0	0	604	490	214	0	
14	0	0	0	0	546	499	211	0	
15	0	0	0	0	461	507	211	0	
0	0	0	0	0	408	499	210	0	
1	0	0	0	0	479	505	209	0	
2	0	0	0	0	512	519	209	0	
3	0	0	0	0	424	522	209	0	
4	0	0	0	0	503	517	210	0	
5	0	0	0	0	495	491	211	0	
6	0	0	0	0	516	507	212	0	
7	0	0	0	0	494	521	211	0	
8	0	0	0	0	523	496	210	0	
9	0	0	0	0	523	496	211	0	
10	0	0	0	0	556	519	209	0	
11	0	0	0	0	547	524	209	0	
12	0	0	0	0	521	523	209	0	
13	0	0	0	0	477	509	211	0	
14	0	0	0	0	451	520	209	0	
15	0	0	0	0	481	509	209	0	
0	0	0	0	0	521	489	206	0	
1	0	0	0	0	588	496	207	0	
2	0	0	0	0	570	504	208	0	
3	0	0	0	0	526	507	207	0	
4	0	0	0	0	475	507	207	0	
5	0	0	0	0	502	508	207	0	
6	0	0	0	0	613	495	208	0	
7	0	0	0	0	584	526	208	0	
8	0	0	0	0	490	552	207	0	
9	0	0	0	0	415	542	206	0	
10	0	0	0	0	411	502	206	0	
11	0	0	0	0	375	478	205	0	
12	0	0	0	0	455	475	204	0	
13	0	0	0	0	566	494	204	0	
14	0	0	0	0	543	503	203	0	
15	0	0	0	0	509	502	201	0	
0	0	0	0	0	538	503	200	0	
1	0	0	0	0	544	534	199	0	
2	0	0	0	0	515	526	198	0	
3	0	0	0	0	508	519	197	0	
4	0	0	0	0	524	521	196	0	
5	0	0	0	0	554	531	197	0	
6	0	0	0	0	529	520	196	0	
7	0	0	0	0	512	500	196	0	
8	0	0	0	0	478	490	197	0	
9	0	0	0	0	472	486	195	0	
10	0	0	0	0	536	477	196	0	
11	0	0	0	0	547	499	195	0	
12	0	0	0	0	560	484	195	0	
13	0	0	0	0	555	488	193	0	
14	0	0	0	0	497	530	195	0	
15	0	0	0	0	484	532	195	1	
0	0	0	0	0	493	519	193	0	
1	0	0	0	0	439	515	195	0	
2	0	0	0	0	447	507	198	0	
3	0	0	0	0	494	487	197	0	
4	0	0	0	0	515	498	198	0	
5	0	0	0	0	491	525	195	0	
6	0	0	0	0	490	527	196	0	
7	0	0	0	0	493	524	196	0	
8	0	0	0	0	515	524	198	0	
9	0	0	0	0	608	521	198	0	
10	0	0	0	0	577	504	198	0	
11	0	0	0	0	470	497	199	0	
12	0	0	0	0	519	484	199	0	
13	0	0	0	0	532	505	200	0	
14	0	0	0	0	516	487	199	0	
15	0	0	0	0	561	502	199	0	
0	0	0	0	0	455	534	199	0	
1	0	0	0	0	517	545	201	0	
2	0	0	0	0	522	521	202	0	
3	0	0	0	0	498	497	201	0	
4	0	0	0	0	556	490	202	0	
5	0	0	0	0	557	498	202	0	
6	0	0	0	0	501	471	201	0	
7	0	0	0	0	479	472	201	0	
8	0	0	0	0	490	483	201	0	
9	0	0	0	0	482	534	201	0	
10	0	0	0	0	472	547	202	0	
11	0	0	0	0	507	525	202	0	
12	0	0	0	0	557	515	202	0	
13	0	0	0	0	519	526	200	0	
14	0	0	0	0	452	519	200	0	
15	0	0	0	0	496	500	201	0	
0	0	0	0	0	549	499	202	0	
1	0	0	0	0	558	496	202	0	
2	0	0	0	0	592	498	202	0	
3	0	0	0	0	583	498	202	0	
4	0	0	0	0	539	486	202	0	
5	0	0	0	0	472	498	203	0	
6	0	0	0	0	396	515	203	0	
7	0	0	0	0	483	511	202	0	
8	0	0	0	0	556	512	202	0	
9	0	0	0	0	530	524	202	0	
10	0	0	0	0	482	526	201	0	
11	0	0	0	0	459	521	201	0	
12	0	0	0	0	430	513	201	0	
13	0	0	0	0	480	502	202	0	
14	0	0	0	0	527	509	201	0	
15	0	0	0	0	522	528	201	0	
0	0	0	0	0	521	507	202	0	
1	0	0	0	0	512	501	201	0	
2	0	0	0	0	519	494	201	0	
3	0	0	0	0	556	513	201	0	
4	0	0	0	0	565	541	201	0	
5	0	0	0	0	558	523	201	0	
6	0	0	0	0	517	504	200	0	
7	0	0	0	0	504	499	201	0	
8	0	0	0	0	477	474	201	0	
9	0	0	0	0	460	487	200	0	
10	0	0	0	0	475	492	200	0	
11	0	0	0	0	500	480	201	0	
12	0	0	0	0	520	476	201	0	
13	0	0	0	0	530	513	201	0	
14	0	0	0	0	547	540	201	0	
15	0	0	0	0	549	537	201	0	
0	0	0	0	0	511	530	202	0	
1	0	0	0	0	478	527	202	0	
2	0	0	0	0	467	509	203	0	
3	0	0	0	0	469	502	203	0	
4	0	0	0	0	486	487	203	0	
5	0	0	0	0	449	497	204	0	
6	0	0	0	0	501	512	205	0	
7	0	0	0	0	576	507	205	0	
8	0	0	0	0	614	511	205	0	
9	0	0	0	0	579	507	205	0	
10	0	0	0	0	580	492	206	0	
11	0	0	0	0	471	511	206	0	
12	0	0	0	0	457	501	206	0	
13	0	0	0	0	488	489	205	0	
14	0	0	0	0	498	535	205	0	
15	0	0	0	0	462	532	205	0	
0	0	0	0	0	509	497	205	0	
1	0	0	0	0	489	487	204	0	
2	0	0	0	0	472	513	204	0	
3	0	0	0	0	488	512	205	0	
4	0	0	0	0	497	505	205	0	
5	0	0	0	0	537	494	206	0	
6	0	0	0	0	556	507	204	0	
7	0	0	0	0	599	529	204	0	
8	0	0	0	0	561	526	204	0	
9	0	0	0	0	562	524	203	0	
10	0	0	0	0	574	524	204	0	
11	0	0	0	0	545	498	203	0	
12	0	0	0	0	490	504	203	0	
13	0	0	0	0	433	502	203	0	
14	0	0	0	0	451	495	201	0	
15	0	0	0	0	454	494	202	0	
0	0	0	0	0	517	502	201	0	
1	0	0	0	0	483	508	200	0	
2	0	0	0	0	502	513	201	0	
3	0	0	0	0	485	508	199	0	
4	0	0	0	0	506	510	198	0	
5	0	0	0	0	509	496	198	0	
6	0	0	0	0	541	493	196	0	
7	0	0	0	0	501	517	196	0	
8	0	0	0	0	498	543	197	0	
9	0	0	0	0	542	516	195	0	
10	0	0	0	0	555	522	197	0	
11	0	0	0	0	581	527	197	0	
12	0	0	0	0	539	521	198	0	
13	0	0	0	0	529	490	196	1	
14	0	0	0	0	505	497	196	0	
15	0	0	0	0	492	495	196	0	
0	0	0	0	0	450	493	197	0	
1	0	0	0	0	428	475	198	0	
2	0	0	0	0	467	499	199	0	
3	0	0	0	0	539	504	201	0	
4	0	0	0	0	570	502	199	0	
5	0	0	0	0	465	528	200	0	
6	0	0	0	0	531	543	201	0	
7	0	0	0	0	519	568	201	0	
8	0	0	0	0	517	556	203	0	
9	0	0	0	0	519	546	204	0	
10	0	0	0	0	492	515	204	0	
11	0	0	0	0	519	476	205	0	
12	0	0	0	0	530	450	204	0	
13	0	0	0	0	511	446	205	0	
14	0	0	0	0	560	440	206	0	
15	0	0	0	0	546	469	205	0	
0	0	0	0	0	527	506	206	0	
1	0	0	0	0	450	547	205	0	
2	0	0	0	0	462	529	205	0	
3	0	0	0	0	496	500	204	0	
4	0	0	0	0	495	487	204	0	
5	0	0	0	0	477	474	204	0	
6	0	0	0	0	455	500	205	0	
7	0	0	0	0	453	530	204	0	
8	0	0	0	0	496	531	205	0	
9	0	0	0	0	517	529	204	0	
10	0	0	0	0	563	519	205	0	
11	0	0	0	0	606	511	204	0	
12	0	0	0	0	556	527	205	0	
13	0	0	0	0	519	521	205	0	
14	0	0	0	0	552	515	204	0	
15	0	0	0	0	520	513	204	0	
0	0	0	0	0	498	513	204	0	
1	0	0	0	0	459	497	205	0	
2	0	0	0	0	451	499	205	0	
3	0	0	0	0	480	515	204	0	
4	0	0	0	0	519	535	205	0	
5	0	0	0	0	572	522	205	0	
6	0	0	0	0	617	499	205	0	
7	0	0	0	0	596	502	204	0	
8	0	0	0	0	578	506	204	0	
9	0	0	0	0	483	495	204	0	
10	0	0	0	0	431	504	205	0	
11	0	0	0	0	418	499	205	0	
12	0	0	0	0	506	493	205	0	
13	0	0	0	0	513	511	205	0	
14	0	0	0	0	506	523	205	0	
15	0	0	0	0	489	514	206	0	
0	0	0	0	0	445	516	206	0	
1	0	0	0	0	443	502	206	0	
2	0	0	0	0	455	492	204	0	
3	0	0	0	0	473	497	206	0	
4	0	0	0	0	541	497	206	0	
5	0	0	0	0	582	495	206	0	
6	0	0	0	0	586	501	205	0	
7	0	0	0	0	606	521	207	0	
8	0	0	0	0	593	514	206	0	
9	0	0	0	0	535	509	207	0	
10	0	0	0	0	437	531	207	0	
11	0	0	0	0	464	532	207	0	
12	0	0	0	0	542	521	207	0	
13	0	0	0	0	527	516	207	0	
14	0	0	0	0	507	510	207	0	
15	0	0	0	0	579	515	206	0	
0	0	0	0	0	563	493	205	0	
1	0	0	0	0	496	483	204	0	
2	0	0	0	0	435	472	203	0	
3	0	0	0	0	429	478	203	0	
4	0	0	0	0	439	501	201	0	
5	0	0	0	0	472	526	199	0	
6	0	0	0	0	524	538	197	0	
7	0	0	0	0	544	536	196	0	
8	0	0	0	0	587	492	194	0	
9	0	0	0	0	435	509	192	0	
10	0	0	0	0	440	503	192	0	
11	0	0	0	0	534	526	190	0	
12	0	0	0	0	591	528	189	0	
13	0	0	0	0	575	518	186	0	
14	0	0	0	0	531	490	186	0	
15	0	0	0	0	483	495	184	0	
0	0	0	0	0	452	493	181	0	
1	0	0	0	0	504	486	178	0	
2	0	0	0	0	560	492	178	0	
3	0	0	0	0	531	507	177	0	
4	0	0	0	0	531	513	177	0	
5	0	0	0	0	512	523	177	0	
6	0	0	0	0	488	510	177	0	
7	0	0	0	0	459	518	178	0	
8	0	0	0	0	502	522	177	0	
9	0	0	0	0	514	523	177	0	
10	0	0	0	0	490	513	178	0	
11	0	0	0	0	485	511	178	0	
12	0	0	0	0	507	511	178	0	
13	0	0	0	0	505	518	180	0	
14	0	0	0	0	606	500	180	0	
15	0	0	0	0	611	487	181	0	
0	0	0	0	0	521	497	181	0	
1	0	0	0	0	492	490	180	0	
2	0	0	0	0	493	512	182	0	
3	0	0	0	0	481	527	184	0	
4	0	0	0	0	477	521	185	0	
5	0	0	0	0	488	508	185	0	
6	0	0	0	0	482	518	185	0	
7	0	0	0	0	524	538	185	0	
8	0	0	0	0	534	521	185	0	
9	0	0	0	0	451	484	185	0	
10	0	0	0	0	464	470	185	0	
11	0	0	0	0	504	476	190	0	
12	0	0	0	0	512	471	192	0	
13	0	0	0	0	531	477	192	0	
14	0	0	0	0	554	510	193	0	
15	0	0	0	0	526	551	195	0	
0	0	0	0	0	491	554	199	0	
1	0	0	0	0	495	536	196	0	
2	0	0	0	0	539	510	195	0	
3	0	0	0	0	534	503	198	0	
4	0	0	0	0	576	501	197	0	
5	0	0	0	0	587	493	194	0	
6	0	0	0	0	528	504	196	0	
7	0	0	0	0	432	505	193	0	
8	0	0	0	0	465	511	196	0	
9	0	0	0	0	469	520	198	0	
10	0	0	0	0	519	521	201	0	
11	0	0	0	0	487	504	200	0	
12	0	0	0	0	524	495	201	0	
13	0	0	0	0	499	510	203	0	
14	0	0	0	0	536	519	202	0	
15	0	0	0	0	502	515	201	0	
0	0	0	0	0	519	499	203	0	
1	0	0	0	0	556	494	201	0	
2	0	0	0	0	535	498	203	0	
3	0	0	0	0	510	487	202	0	
4	0	0	0	0	509	498	201	0	
5	0	0	0	0	547	516	201	0	
6	0	0	0	0	572	525	204	0	
7	0	0	0	0	573	526	204	0	
8	0	0	0	0	471	523	203	0	
9	0	0	0	0	469	512	203	0	
10	0	0	0	0	492	511	202	0	
11	0	0	0	0	478	512	203	0	
12	0	0	0	0	472	493	201	0	
13	0	0	0	0	483	485	203	0	
14	0	0	0	0	442	524	202	0	
15	0	0	0	0	473	535	205	0	
0	0	0	0	0	512	518	204	0	
1	0	0	0	0	550	511	204	0	
2	0	0	0	0	547	500	203	0	
3	0	0	0	0	496	490	204	0	
4	0	0	0	0	456	488	201	0	
5	0	0	0	0	464	480	199	0	
6	0	0	0	0	473	511	200	0	
7	0	0	0	0	568	539	200	0	
8	0	0	0	0	560	508	201	0	
9	0	0	0	0	519	505	202	0	
10	0	0	0	0	532	527	200	0	
11	0	0	0	0	521	494	199	0	
12	0	0	0	0	503	466	200	0	
13	0	0	0	0	556	526	199	0	
14	0	0	0	0	560	550	200	0	
15	0	0	0	0	560	510	199	0	
0	0	0	0	0	543	509	199	0	
1	0	0	0	0	583	518	197	0	
2	0	0	0	0	531	510	200	0	
3	0	0	0	0	450	493	198	0	
4	0	0	0	0	385	508	199	0	
5	0	0	0	0	409	532	199	0	
6	0	0	0	0	486	510	198	0	
7	0	0	0	0	515	482	197	0	
8	0	0	0	0	554	487	198	0	
9	0	0	0	0	479	468	199	0	
10	0	0	0	0	532	493	199	0	
11	0	0	0	0	524	488	199	0	
12	0	0	0	0	496	493	197	0	
13	0	0	0	0	507	519	197	0	
14	0	0	0	0	512	529	195	0	
15	0	0	0	0	531	526	194	0	
0	0	0	0	0	540	528	194	0	
1	0	0	0	0	511	527	195	0	
2	0	0	0	0	525	520	191	0	
3	0	0	0	0	570	509	191	0	
4	0	0	0	0	527	500	191	0	
5	0	0	0	0	443	499	189	0	
6	0	0	0	0	451	504	189	0	
7	0	0	0	0	532	499	188	0	
8	0	0	0	0	554	508	188	0	
9	0	0	0	0	563	522	188	0	
10	0	0	0	0	528	536	188	0	
11	0	0	0	0	515	533	187	0	
12	0	0	0	0	522	529	187	0	
13	0	0	0	0	429	514	187	0	
14	0	0	0	0	455	485	188	0	
15	0	0	0	0	501	493	187	0	
0	0	0	0	0	535	500	187	0	
1	0	0	0	0	551	493	186	0	
2	0	0	0	0	574	504	190	0	
3	0	0	0	0	532	521	191	0	
4	0	0	0	0	471	521	192	0	
5	0	0	0	0	510	514	192	0	
6	0	0	0	0	528	529	192	0	
7	0	0	0	0	492	502	193	0	
8	0	0	0	0	486	485	193	0	
9	0	0	0	0	482	487	192	0	
10	0	0	0	0	481	491	195	0	
11	0	0	0	0	496	503	195	1	
12	0	0	0	0	526	504	195	2	
13	0	0	0	0	501	505	193	2	
14	0	0	0	0	527	510	195	3	
15	0	0	0	0	550	522	196	4	
0	0	0	0	0	491	530	195	3	
1	0	0	0	0	547	521	196	5	
2	0	0	0	0	543	509	195	4	
3	0	0	0	0	520	508	196	4	
4	0	0	0	0	494	499	195	4	
5	0	0	0	0	484	497	194	3	
6	0	0	0	0	470	498	196	3	
7	0	0	0	0	499	484	195	3	
8	0	0	0	0	494	509	195	3	
9	0	0	0	0	536	519	196	3	
10	0	0	0	0	555	519	196	3	
11	0	0	0	0	554	505	195	2	
12	0	0	0	0	564	499	195	4	
13	0	0	0	0	457	507	195	2	
14	0	0	0	0	446	508	195	3	
15	0	0	0	0	476	505	195	2	
0	0	0	0	0	528	510	192	2	
1	0	0	0	0	567	518	193	3	
2	0	0	0	0	551	501	192	3	
3	0	0	0	0	546	499	192	3	
4	0	0	0	0	511	512	192	3	
5	0	0	0	0	486	521	191	4	
6	0	0	0	0	476	532	190	4	
7	0	0	0	0	506	511	191	6	
8	0	0	0	0	427	531	191	5	
9	0	0	0	0	472	518	191	7	
10	0	0	0	0	499	489	193	9	
11	0	0	0	0	501	477	192	7	
12	0	0	0	0	534	495	192	8	
13	0	0	0	0	555	499	192	8	
14	0	0	0	0	535	519	191	7	
15	0	0	0	0	529	522	191	8	
0	0	0	0	0	519	520	189	8	
1	0	0	0	0	518	493	189	8	
2	0	0	0	0	526	491	190	12	
3	0	0	0	0	533	489	189	15	
4	0	0	0	0	510	505	189	14	
5	0	0	0	0	536	501	189	16	
6	0	0	0	0	553	504	189	15	
7	0	0	0	0	449	509	190	15	
8	0	0	0	0	379	518	190	17	
9	0	0	0	0	499	519	190	16	
10	0	0	0	0	547	529	191	17	
11	0	0	0	0	575	531	190	16	
12	0	0	0	0	467	513	190	16	
13	0	0	0	0	443	504	191	15	
14	0	0	0	0	515	508	190	16	
15	0	0	0	0	517	524	189	15	
0	0	0	0	0	519	507	191	17	
1	0	0	0	0	550	502	190	15	
2	0	0	0	0	535	488	191	16	
3	0	0	0	0	554	472	191	14	
4	0	0	0	0	590	491	191	15	
5	0	0	0	0	520	507	191	15	
6	0	0	0	0	511	522	191	14	
7	0	0	0	0	550	518	189	14	
8	0	0	0	0	517	509	190	13	
9	0	0	0	0	499	512	191	14	
10	0	0	0	0	480	510	192	14	
11	0	0	0	0	466	509	190	14	
12	0	0	0	0	445	499	190	14	
13	0	0	0	0	440	503	189	14	
14	0	0	0	0	452	519	187	14	
15	0	0	0	0	503	529	188	14	
0	0	0	0	0	537	523	188	13	
1	0	0	0	0	532	505	187	13	
2	0	0	0	0	501	505	188	13	
3	0	0	0	0	489	510	188	13	
4	0	0	0	0	561	521	188	14	
5	0	0	0	0	608	533	188	13	
6	0	0	0	0	614	520	189	13	
7	0	0	0	0	585	503	188	13	
8	0	0	0	0	506	476	187	13	
9	0	0	0	0	423	487	186	13	
10	0	0	0	0	424	509	185	13	
11	0	0	0	0	454	507	184	13	
12	0	0	0	0	480	479	184	12	
13	0	0	0	0	558	483	184	12	
14	0	0	0	0	539	507	185	10	
15	0	0	0	0	499	523	184	10	
0	0	0	0	0	514	531	184	10	
1	0	0	0	0	547	512	184	9	
2	0	0	0	0	512	515	184	7	
3	0	0	0	0	474	514	184	6	
4	0	0	0	0	477	498	184	5	
5	0	0	0	0	479	493	184	4	
6	0	0	0	0	464	516	183	4	
7	0	0	0	0	479	517	184	3	
8	0	0	0	0	510	510	183	3	
9	0	0	0	0	497	508	182	2	
10	0	0	0	0	569	523	183	1	
11	0	0	0	0	556	515	183	0	
12	0	0	0	0	549	509	179	0	
13	0	0	0	0	528	506	179	0	
14	0	0	0	0	533	497	179	0	
15	0	0	0	0	511	489	177	0	
0	0	0	0	0	506	500	176	0	
1	0	0	0	0	519	533	177	0	
2	0	0	0	0	528	515	176	0	
3	0	0	0	0	511	499	177	0	
4	0	0	0	0	496	516	176	0	
5	0	0	0	0	504	510	176	0	
6	0	0	0	0	480	508	175	0	
7	0	0	0	0	493	526	175	0	
8	0	0	0	0	521	524	173	0	
9	0	0	0	0	496	508	172	0	
10	0	0	0	0	499	493	174	0	
11	0	0	0	0	533	498	174	0	
12	0	0	0	0	587	493	173	0	
13	0	0	0	0	537	487	173	0	
14	0	0	0	0	546	466	173	0	
15	0	0	0	0	497	497	173	0	
0	0	0	0	0	483	521	172	0	
1	0	0	0	0	487	535	175	0	
2	0	0	0	0	516	519	176	0	
3	0	0	0	0	470	500	176	0	
4	0	0	0	0	483	507	177	0	
5	0	0	0	0	490	507	177	0	
6	0	0	0	0	514	511	176	0	
7	0	0	0	0	547	517	178	0	
8	0	0	0	0	532	516	176	0	
9	0	0	0	0	505	505	176	0	
10	0	0	0	0	455	518	177	0	
11	0	0	0	0	527	536	177	0	
12	0	0	0	0	505	541	177	0	
13	0	0	0	0	539	522	177	0	
14	0	0	0	0	531	524	178	0	
15	0	0	0	0	498	503	176	0	
0	0	0	0	0	484	472	177	0	
1	0	0	0	0	494	475	176	0	
2	0	0	0	0	498	470	176	0	
3	0	0	0	0	476	501	175	0	
4	0	0	0	0	508	495	175	0	
5	0	0	0	0	568	495	173	0	
6	0	0	0	0	577	516	171	0	
7	0	0	0	0	555	515	170	0	
8	0	0	0	0	469	508	169	0	
9	0	0	0	0	458	502	167	0	
10	0	0	0	0	470	512	168	0	
11	0	0	0	0	475	519	167	0	
12	0	0	0	0	484	519	167	0	
13	0	0	0	0	544	509	167	0	
14	0	0	0	0	588	515	166	0	
15	0	0	0	0	556	515	166	0	
0	0	0	0	0	544	495	167	0	
1	0	0	0	0	453	507	166	0	
2	0	0	0	0	421	519	167	0	
3	0	0	0	0	481	497	166	0	
4	0	0	0	0	511	511	166	0	
5	0	0	0	0	520	522	165	0	
6	0	0	0	0	544	513	162	0	
7	0	0	0	0	583	499	164	0	
8	0	0	0	0	568	492	163	0	
9	0	0	0	0	503	508	163	0	
10	0	0	0	0	510	519	162	0	
11	0	0	0	0	523	520	160	0	
12	0	0	0	0	500	531	161	0	
13	0	0	0	0	497	524	161	0	
14	0	0	0	0	481	521	163	0	
15	0	0	0	0	443	510	162	0	
0	0	0	0	0	497	487	162	1	
1	0	0	0	0	527	500	163	1	
2	0	0	0	0	503	503	163	0	
3	0	0	0	0	533	489	163	0	
4	0	0	0	0	525	490	164	0	
5	0	0	0	0	450	502	165	0	
6	0	0	0	0	480	493	162	1	
7	0	0	0	0	496	512	162	0	
8	0	0	0	0	540	517	163	0	
9	0	0	0	0	584	511	163	0	
10	0	0	0	0	569	515	165	1	
11	0	0	0	0	501	506	165	1	
12	0	0	0	0	453	499	164	1	
13	0	0	0	0	511	512	165	1	
14	0	0	0	0	550	512	165	1	
15	0	0	0	0	574	521	166	1	
0	0	0	0	0	545	514	166	1	
1	0	0	0	0	489	515	165	1	
2	0	0	0	0	491	510	166	1	
3	0	0	0	0	513	511	166	0	
4	0	0	0	0	497	512	166	1	
5	0	0	0	0	482	511	166	0	
6	0	0	0	0	509	512	166	1	
7	0	0	0	0	518	516	164	1	
8	0	0	0	0	414	504	162	1	
9	0	0	0	0	467	485	161	1	
10	0	0	0	0	532	494	158	1	
11	0	0	0	0	512	499	154	1	
12	0	0	0	0	521	511	153	2	
13	0	0	0	0	555	505	153	1	
14	0	0	0	0	568	495	152	1	
15	0	0	0	0	517	514	151	1	
0	0	0	0	0	480	520	152	1	
1	0	0	0	0	532	506	153	1	
2	0	0	0	0	542	516	156	1	
3	0	0	0	0	537	517	154	0	
4	0	0	0	0	573	516	154	0	
5	0	0	0	0	535	512	154	0	
6	0	0	0	0	492	530	153	0	
7	0	0	0	0	448	512	152	0	
8	0	0	0	0	478	498	151	0	
9	0	0	0	0	500	498	153	0	
10	0	0	0	0	489	492	153	0	
11	0	0	0	0	446	496	155	1	
12	0	0	0	0	489	502	152	1	
13	0	0	0	0	551	506	152	1	
14	0	0	0	0	587	513	152	1	
15	0	0	0	0	570	500	152	1	
0	0	0	0	0	507	511	153	1	
1	0	0	0	0	487	508	152	2	
2	0	0	0	0	479	492	152	1	
3	0	0	0	0	472	500	152	1	
4	0	0	0	0	480	500	154	1	
5	0	0	0	0	509	510	154	1	
6	0	0	0	0	521	509	154	0	
7	0	0	0	0	517	519	153	0	
8	0	0	0	0	483	522	152	0	
9	0	0	0	0	502	535	153	0	
10	0	0	0	0	498	531	152	0	
11	0	0	0	0	485	502	155	0	
12	0	0	0	0	561	513	152	1	
13	0	0	0	0	560	528	152	1	
14	0	0	0	0	566	496	152	0	
15	0	0	0	0	533	498	150	1	
0	0	0	0	0	551	501	149	1	
1	0	0	0	0	519	494	150	1	
2	0	0	0	0	517	509	150	2	
3	0	0	0	0	536	520	151	2	
4	0	0	0	0	485	520	152	3	
5	0	0	0	0	507	522	152	2	
6	0	0	0	0	466	516	151	4	
7	0	0	0	0	440	504	152	3	
8	0	0	0	0	435	479	153	3	
9	0	0	0	0	469	461	154	4	
10	0	0	0	0	509	450	154	4	
11	0	0	0	0	491	478	153	3	
12	0	0	0	0	472	538	153	4	
13	0	0	0	0	487	543	152	5	
14	0	0	0	0	538	527	153	3	
15	0	0	0	0	581	514	153	3	
0	0	0	0	0	603	492	154	4	
1	0	0	0	0	545	493	154	3	
2	0	0	0	0	564	505	153	3	
3	0	0	0	0	531	525	153	4	
4	0	0	0	0	495	527	153	5	
5	0	0	0	0	459	524	153	4	
6	0	0	0	0	468	514	153	4	
7	0	0	0	0	490	503	153	5	
8	0	0	0	0	515	506	153	5	
9	0	0	0	0	512	522	153	4	
10	0	0	0	0	524	507	152	5	
11	0	0	0	0	518	505	155	5	
12	0	0	0	0	519	500	155	4	
13	0	0	0	0	560	496	154	4	
14	0	0	0	0	551	497	155	4	
15	0	0	0	0	457	511	153	4	
0	0	0	0	0	484	509	151	5	
1	0	0	0	0	510	519	150	4	
2	0	0	0	0	541	523	149	4	
3	0	0	0	0	581	525	148	4	
4	0	0	0	0	489	508	149	4	
5	0	0	0	0	467	495	148	4	
6	0	0	0	0	472	484	147	5	
7	0	0	0	0	513	483	147	4	
8	0	0	0	0	512	507	145	4	
9	0	0	0	0	492	516	145	5	
10	0	0	0	0	465	512	146	5	
11	0	0	0	0	453	512	145	4	
12	0	0	0	0	515	513	143	5	
13	0	0	0	0	537	520	144	5	
14	0	0	0	0	512	526	143	6	
15	0	0	0	0	527	517	143	5	
0	0	0	0	0	508	502	145	5	
1	0	0	0	0	515	502	145	5	
2	0	0	0	0	547	494	145	5	
3	0	0	0	0	528	508	145	5	
4	0	0	0	0	559	496	144	5	
5	0	0	0	0	543	497	144	5	
6	0	0	0	0	533	520	144	5	
7	0	0	0	0	515	527	143	5	
8	0	0	0	0	524	508	144	5	
9	0	0	0	0	530	493	142	5	
10	0	0	0	0	531	494	142	5	
11	0	0	0	0	467	520	142	5	
12	0	0	0	0	456	520	142	5	
13	0	0	0	0	485	510	142	4	
14	0	0	0	0	566	510	143	5	
15	0	0	0	0	541	517	143	5	
0	0	0	0	0	465	514	144	5	
1	0	0	0	0	424	489	142	5	
2	0	0	0	0	475	489	142	5	
3	0	0	0	0	558	509	143	5	
4	0	0	0	0	566	516	143	5	
5	0	0	0	0	536	527	142	5	
6	0	0	0	0	509	514	143	4	
7	0	0	0	0	476	504	144	4	
8	0	0	0	0	469	505	145	4	
9	0	0	0	0	490	525	143	6	
10	0	0	0	0	514	528	145	5	
11	0	0	0	0	527	520	144	5	
12	0	0	0	0	535	519	145	5	
13	0	0	0	0	559	496	143	6	
14	0	0	0	0	487	505	144	6	
15	0	0	0	0	440	499	144	6	
0	0	0	0	0	491	500	143	7	
1	0	0	0	0	551	488	143	7	
2	0	0	0	0	592	472	144	7	
3	0	0	0	0	610	462	144	8	
4	0	0	0	0	542	486	143	9	
5	0	0	0	0	440	514	141	9	
6	0	0	0	0	387	518	144	10	
7	0	0	0	0	454	528	144	10	
8	0	0	0	0	519	535	144	9	
9	0	0	0	0	531	520	143	9	
10	0	0	0	0	543	522	142	9	
11	0	0	0	0	523	525	142	10	
12	0	0	0	0	499	521	139	12	
13	0	0	0	0	504	511	139	12	
14	0	0	0	0	473	511	140	11	
15	0	0	0	0	442	490	142	11	
0	0	0	0	0	513	485	141	12	
1	0	0	0	0	547	495	142	11	
2	0	0	0	0	555	492	141	11	
3	0	0	0	0	548	503	141	12	
4	0	0	0	0	538	530	139	14	
5	0	0	0	0	535	519	138	14	
6	0	0	0	0	530	497	141	15	
7	0	0	0	0	498	506	140	14	
8	0	0	0	0	503	518	139	14	
9	0	0	0	0	529	513	140	15	
10	0	0	0	0	524	503	141	15	
11	0	0	0	0	452	509	141	14	
12	0	0	0	0	445	503	140	15	
13	0	0	0	0	513	486	140	15	
14	0	0	0	0	531	495	140	14	
15	0	0	0	0	527	505	138	14	
0	0	0	0	0	523	500	138	14	
1	0	0	0	0	552	505	140	14	
2	0	0	0	0	512	522	140	15	
3	0	0	0	0	443	528	139	15	
4	0	0	0	0	432	530	140	15	
5	0	0	0	0	452	531	142	14	
6	0	0	0	0	500	517	140	14	
7	0	0	0	0	540	499	139	14	
8	0	0	0	0	581	481	138	14	
9	0	0	0	0	561	485	138	14	
10	0	0	0	0	524	494	138	15	
11	0	0	0	0	605	508	138	24	
12	0	0	0	0	559	523	139	24	
13	0	0	0	0	468	533	139	25	
14	0	0	0	0	479	518	138	25	
15	0	0	0	0	460	511	138	24	
0	0	0	0	0	450	510	139	25	
1	0	0	0	0	486	477	136	25	
2	0	0	0	0	547	493	135	25	
3	0	0	0	0	544	547	137	25	
4	0	0	0	0	537	529	136	26	
5	0	0	0	0	518	503	135	25	
6	0	0	0	0	560	476	139	25	
7	0	0	0	0	545	492	140	25	
8	0	0	0	0	493	518	137	25	
9	0	0	0	0	469	518	135	25	
10	0	0	0	0	487	527	134	25	
11	0	0	0	0	507	524	135	25	
12	0	0	0	0	576	512	134	25	
13	0	0	0	0	549	513	134	25	
14	0	0	0	0	465	503	133	24	
15	0	0	0	0	432	472	130	24	
0	0	0	0	0	470	471	130	25	
1	0	0	0	0	519	503	132	25	
2	0	0	0	0	577	513	132	24	
3	0	0	0	0	575	513	133	24	
4	0	0	0	0	525	508	129	24	
5	0	0	0	0	529	529	126	22	
6	0	0	0	0	494	536	123	22	
7	0	0	0	0	538	520	120	20	
8	0	0	0	0	460	500	117	21	
9	0	0	0	0	447	511	119	23	
10	0	0	0	0	440	510	115	23	
11	0	0	0	0	483	508	116	23	
12	0	0	0	0	481	515	116	23	
13	0	0	0	0	540	518	113	23	
14	0	0	0	0	524	514	113	22	
15	0	0	0	0	521	499	113	25	
0	0	0	0	0	533	488	116	22	
1	0	0	0	0	534	483	115	21	
2	0	0	0	0	502	474	114	24	
3	0	0	0	0	511	510	112	24	
4	0	0	0	0	510	522	112	24	
5	0	0	0	0	521	535	108	24	
6	0	0	0	0	527	526	111	25	
7	0	0	0	0	527	523	110	26	
8	0	0	0	0	544	519	106	26	
9	0	0	0	0	524	515	108	26	
10	0	0	0	0	492	499	110	27	
11	0	0	0	0	454	491	110	27	
12	0	0	0	0	467	473	108	28	
13	0	0	0	0	503	482	109	28	
14	0	0	0	0	511	510	111	28	
15	0	0	0	0	519	515	111	28	
0	0	0	0	0	488	540	112	28	
1	0	0	0	0	519	510	112	29	
2	0	0	0	0	513	502	110	30	
3	0	0	0	0	550	507	114	30	
4	0	0	0	0	555	512	109	31	
5	0	0	0	0	587	515	111	30	
6	0	0	0	0	548	512	111	31	
7	0	0	0	0	483	524	114	31	
8	0	0	0	0	432	522	112	31	
9	0	0	0	0	467	525	113	33	
10	0	0	0	0	520	529	110	35	
11	0	0	0	0	476	521	109	34	
12	0	0	0	0	529	503	108	35	
13	0	0	0	0	541	486	107	34	
14	0	0	0	0	553	477	109	33	
15	0	0	0	0	588	489	108	33	
0	0	0	0	0	571	494	108	34	
1	0	0	0	0	476	509	104	33	
2	0	0	0	0	470	496	104	34	
3	0	0	0	0	479	503	103	35	
4	0	0	0	0	496	494	104	34	
5	0	0	0	0	484	484	101	30	
6	0	0	0	0	470	502	105	33	
7	0	0	0	0	472	529	95	31	
8	0	0	0	0	521	525	95	33	
9	0	0	0	0	513	514	95	30	
10	0	0	0	0	494	527	95	32	
11	0	0	0	0	460	533	94	33	
12	0	0	0	0	465	524	94	31	
13	0	0	0	0	514	500	92	31	
14	0	0	0	0	556	487	94	32	
15	0	0	0	0	564	493	95	30	
0	0	0	0	0	550	500	96	31	
1	0	0	0	0	547	501	98	32	
2	0	0	0	0	574	511	96	28	
3	0	0	0	0	545	520	96	30	
4	0	0	0	0	495	524	96	31	
5	0	0	0	0	452	525	97	30	
6	0	0	0	0	517	509	98	30	
7	0	0	0	0	485	500	97	31	
8	0	0	0	0	561	514	101	29	
9	0	0	0	0	592	504	99	29	
10	0	0	0	0	534	507	97	29	
11	0	0	0	0	443	496	99	28	
12	0	0	0	0	442	499	99	30	
13	0	0	0	0	491	504	99	29	
14	0	0	0	0	508	519	96	28	
15	0	0	0	0	550	505	96	28	
0	0	0	0	0	503	507	96	28	
1	0	0	0	0	478	513	96	27	
2	0	0	0	0	505	508	97	26	
3	0	0	0	0	497	501	98	30	
4	0	0	0	0	492	509	96	31	
5	0	0	0	0	460	507	97	29	
6	0	0	0	0	502	502	96	31	
7	0	0	0	0	514	499	98	33	
8	0	0	0	0	538	502	97	32	
9	0	0	0	0	542	507	96	31	
10	0	0	0	0	505	523	97	32	
11	0	0	0	0	458	515	95	33	
12	0	0	0	0	516	508	96	33	
13	0	0	0	0	532	522	95	33	
14	0	0	0	0	533	510	95	31	
15	0	0	0	0	508	510	96	31	
0	0	0	0	0	526	504	95	33	
1	0	0	0	0	543	495	94	33	
2	0	0	0	0	501	503	95	33	
3	0	0	0	0	497	516	94	33	
4	0	0	0	0	567	529	95	35	
5	0	0	0	0	533	525	95	34	
6	0	0	0	0	468	516	94	35	
7	0	0	0	0	500	507	95	34	
8	0	0	0	0	526	512	95	34	
9	0	0	0	0	518	516	99	34	
10	0	0	0	0	498	515	102	34	
11	0	0	0	0	577	490	102	33	
12	0	0	0	0	564	484	102	34	
13	0	0	0	0	481	497	105	33	
14	0	0	0	0	439	495	103	33	
15	0	0	0	0	469	470	105	34	
0	0	0	0	0	511	481	103	32	
1	0	0	0	0	574	505	103	32	
2	0	0	0	0	568	514	102	33	
3	0	0	0	0	517	527	101	32	
4	0	0	0	0	485	510	100	32	
5	0	0	0	0	451	517	103	31	
6	0	0	0	0	475	551	100	31	
7	0	0	0	0	459	549	102	31	
8	0	0	0	0	478	512	102	30	
9	0	0	0	0	523	480	102	29	
10	0	0	0	0	456	480	104	28	
11	0	0	0	0	496	508	99	29	
12	0	0	0	0	556	508	100	28	
13	0	0	0	0	573	500	100	28	
14	0	0	0	0	609	514	103	28	
15	0	0	0	0	562	520	103	28	
0	0	0	0	0	504	516	102	29	
1	0	0	0	0	498	509	98	30	
2	0	0	0	0	462	501	97	29	
3	0	0	0	0	470	525	95	29	
4	0	0	0	0	472	518	96	29	
5	0	0	0	0	480	515	94	29	
6	0	0	0	0	462	515	94	29	
7	0	0	0	0	491	510	97	30	
8	0	0	0	0	538	518	99	30	
9	0	0	0	0	545	544	98	30	
10	0	0	0	0	553	521	97	30	
11	0	0	0	0	561	479	95	29	
12	0	0	0	0	536	451	95	28	
13	0	0	0	0	555	487	93	28	
14	0	0	0	0	599	491	92	28	
15	0	0	0	0	596	500	97	28	
0	0	0	0	0	454	512	98	28	
